Time (s);WE(1).Potential (V);WE(1).Current (A);Corrected time (s);Index;Current range
8.9643879773671;-0.49993896484375;-0.0097625732421875;0;1;1 A
8.97438797734185;-0.49981689453125;-0.009417724609375;0.00999999997475243;2;1 A
8.9843879773166;-0.499786376953125;-0.0092193603515625;0.0199999999495049;3;1 A
8.99438797729135;-0.49981689453125;-0.009124755859375;0.0299999999242573;4;1 A
9.00438797726611;-0.4998779296875;-0.0090484619140625;0.0399999998990097;5;1 A
9.01438797724086;-0.499786376953125;-0.009014892578125;0.0499999998737621;6;1 A
9.02438797721561;-0.499755859375;-0.00899658203125001;0.0599999998485146;7;1 A
9.03438797719036;-0.499786376953125;-0.00895080566406251;0.069999999823267;8;1 A
9.04438797716512;-0.499725341796875;-0.00896606445312501;0.0799999997980194;9;1 A
9.05438797713987;-0.499847412109375;-0.008953857421875;0.0899999997727718;10;1 A
9.06438797711462;-0.499786376953125;-0.008941650390625;0.0999999997475243;11;1 A
9.07438797708937;-0.499847412109375;-0.008929443359375;0.109999999722277;12;1 A
9.08438797706413;-0.499847412109375;-0.00890197753906249;0.119999999697029;13;1 A
9.09438797703888;-0.499847412109375;-0.00890197753906249;0.129999999671782;14;1 A
9.10438797701363;-0.499786376953125;-0.00888671874999999;0.139999999646534;15;1 A
9.11438797698838;-0.49981689453125;-0.0088836669921875;0.149999999621286;16;1 A
9.12438797696313;-0.499725341796875;-0.00885925292968751;0.159999999596039;17;1 A
9.13438797693789;-0.49981689453125;-0.0088470458984375;0.169999999570791;18;1 A
9.14438797691264;-0.499755859375;-0.0088775634765625;0.179999999545544;19;1 A
9.15438797688739;-0.499786376953125;-0.00888671874999999;0.189999999520296;20;1 A
9.16438797686214;-0.499847412109375;-0.0088958740234375;0.199999999495049;21;1 A
9.1743879768369;-0.49981689453125;-0.00888671874999999;0.209999999469801;22;1 A
9.18438797681165;-0.499847412109375;-0.00887451171875001;0.219999999444553;23;1 A
9.1943879767864;-0.499786376953125;-0.008892822265625;0.229999999419306;24;1 A
9.20438797676115;-0.499908447265625;-0.00888977050781251;0.239999999394058;25;1 A
9.21438797673591;-0.499847412109375;-0.0088775634765625;0.249999999368811;26;1 A
9.22438797671066;-0.49981689453125;-0.0088531494140625;0.259999999343563;27;1 A
9.23438797668541;-0.4998779296875;-0.0088470458984375;0.269999999318316;28;1 A
9.24438797666016;-0.499847412109375;-0.00884094238281249;0.279999999293068;29;1 A
9.25438797663492;-0.49981689453125;-0.00885009765625;0.28999999926782;30;1 A
9.26438797660967;-0.499786376953125;-0.0088470458984375;0.299999999242573;31;1 A
9.27438797658442;-0.499847412109375;-0.008831787109375;0.309999999217325;32;1 A
9.28438797655917;-0.499755859375;-0.00885009765625;0.319999999192078;33;1 A
9.29438797653393;-0.4998779296875;-0.00885620117187499;0.32999999916683;34;1 A
9.30438797650868;-0.499847412109375;-0.0088623046875;0.339999999141583;35;1 A
9.31438797648343;-0.499908447265625;-0.00885620117187499;0.349999999116335;36;1 A
9.32438797645818;-0.499908447265625;-0.00884399414062501;0.359999999091087;37;1 A
9.33438797643294;-0.49981689453125;-0.00882873535156251;0.36999999906584;38;1 A
9.34438797640769;-0.499755859375;-0.0088165283203125;0.379999999040592;39;1 A
9.35438797638244;-0.49981689453125;-0.00880126953125;0.389999999015345;40;1 A
9.36438797635719;-0.49969482421875;-0.00875244140625001;0.399999998990097;41;1 A
9.37438797633195;-0.499786376953125;-0.0087310791015625;0.40999999896485;42;1 A
9.3843879763067;-0.49981689453125;-0.008709716796875;0.419999998939602;43;1 A
9.39438797628145;-0.499786376953125;-0.00867919921875;0.429999998914354;44;1 A
9.4043879762562;-0.499786376953125;-0.0086669921875;0.439999998889107;45;1 A
9.41438797623096;-0.499847412109375;-0.00861511230468751;0.449999998863859;46;1 A
9.42438797620571;-0.499847412109375;-0.00859375;0.459999998838612;47;1 A
9.43438797618046;-0.499847412109375;-0.00858459472656251;0.469999998813364;48;1 A
9.44438797615521;-0.499847412109375;-0.00858154296874999;0.479999998788116;49;1 A
9.45438797612996;-0.49981689453125;-0.00858154296874999;0.489999998762869;50;1 A
9.46438797610472;-0.49981689453125;-0.00855712890625;0.499999998737621;51;1 A
9.47438797607947;-0.499847412109375;-0.008563232421875;0.509999998712374;52;1 A
9.48438797605422;-0.49981689453125;-0.0085296630859375;0.519999998687126;53;1 A
9.49438797602897;-0.499755859375;-0.00852355957031251;0.529999998661879;54;1 A
9.50438797600373;-0.499755859375;-0.00848999023437499;0.539999998636631;55;1 A
9.51438797597848;-0.499786376953125;-0.0084381103515625;0.549999998611383;56;1 A
9.52438797595323;-0.499755859375;-0.008453369140625;0.559999998586136;57;1 A
9.53438797592798;-0.49981689453125;-0.0084228515625;0.569999998560888;58;1 A
9.54438797590274;-0.49981689453125;-0.00841369628906249;0.579999998535641;59;1 A
9.55438797587749;-0.499847412109375;-0.0083892822265625;0.589999998510393;60;1 A
9.56438797585224;-0.499847412109375;-0.0083587646484375;0.599999998485146;61;1 A
9.57438797582699;-0.49981689453125;-0.0083587646484375;0.609999998459898;62;1 A
9.58438797580175;-0.499847412109375;-0.00835266113281249;0.61999999843465;63;1 A
9.5943879757765;-0.49981689453125;-0.00837097167968751;0.629999998409403;64;1 A
9.60438797575125;-0.499725341796875;-0.0083587646484375;0.639999998384155;65;1 A
9.614387975726;-0.499755859375;-0.00836181640625;0.649999998358908;66;1 A
9.62438797570076;-0.4998779296875;-0.0083740234375;0.65999999833366;67;1 A
9.63438797567551;-0.49981689453125;-0.00837097167968751;0.669999998308413;68;1 A
9.64438797565026;-0.499847412109375;-0.008392333984375;0.679999998283165;69;1 A
9.65438797562501;-0.499847412109375;-0.0083740234375;0.689999998257917;70;1 A
9.66438797559977;-0.4998779296875;-0.008380126953125;0.69999999823267;71;1 A
9.67438797557452;-0.499786376953125;-0.00841674804687501;0.709999998207422;72;1 A
9.68438797554927;-0.49981689453125;-0.00842895507812499;0.719999998182175;73;1 A
9.69438797552402;-0.49981689453125;-0.00844421386718749;0.729999998156927;74;1 A
9.70438797549878;-0.499755859375;-0.0084381103515625;0.73999999813168;75;1 A
9.71438797547353;-0.49981689453125;-0.00844726562500001;0.749999998106432;76;1 A
9.72438797544828;-0.499847412109375;-0.00844726562500001;0.759999998081184;77;1 A
9.73438797542303;-0.499725341796875;-0.0084564208984375;0.769999998055937;78;1 A
9.74438797539779;-0.499786376953125;-0.00844421386718749;0.779999998030689;79;1 A
9.75438797537254;-0.499786376953125;-0.0084075927734375;0.789999998005442;80;1 A
9.76438797534729;-0.499755859375;-0.00841674804687501;0.799999997980194;81;1 A
9.77438797532204;-0.499786376953125;-0.00839843749999999;0.809999997954947;82;1 A
9.7843879752968;-0.49981689453125;-0.008404541015625;0.819999997929699;83;1 A
9.79438797527155;-0.499786376953125;-0.00841369628906249;0.829999997904451;84;1 A
9.8043879752463;-0.499847412109375;-0.00840148925781251;0.839999997879204;85;1 A
9.81438797522105;-0.499755859375;-0.0084228515625;0.849999997853956;86;1 A
9.8243879751958;-0.499786376953125;-0.00844726562500001;0.859999997828709;87;1 A
9.83438797517056;-0.499786376953125;-0.0084564208984375;0.869999997803461;88;1 A
9.84438797514531;-0.49969482421875;-0.00844726562500001;0.879999997778214;89;1 A
9.85438797512006;-0.49981689453125;-0.0084197998046875;0.889999997752966;90;1 A
9.86438797509481;-0.499725341796875;-0.0083892822265625;0.899999997727718;91;1 A
9.87438797506957;-0.49981689453125;-0.0083740234375;0.909999997702471;92;1 A
9.88438797504432;-0.499847412109375;-0.00836181640625;0.919999997677223;93;1 A
9.89438797501907;-0.499755859375;-0.00832519531250001;0.929999997651976;94;1 A
9.90438797499382;-0.4998779296875;-0.00830993652343751;0.939999997626728;95;1 A
9.91438797496858;-0.499847412109375;-0.00830688476562499;0.949999997601481;96;1 A
9.92438797494333;-0.49981689453125;-0.00830688476562499;0.959999997576233;97;1 A
9.93438797491808;-0.49981689453125;-0.00829162597656249;0.969999997550985;98;1 A
9.94438797489283;-0.49981689453125;-0.0082672119140625;0.979999997525738;99;1 A
9.95438797486759;-0.499725341796875;-0.0082550048828125;0.98999999750049;100;1 A
9.96438797484234;-0.499847412109375;-0.0082366943359375;0.999999997475243;101;1 A
9.97438797481709;-0.499786376953125;-0.00826416015625001;1.00999999745;102;1 A
9.98438797479184;-0.49981689453125;-0.008251953125;1.01999999742475;103;1 A
9.9943879747666;-0.499786376953125;-0.008258056640625;1.0299999973995;104;1 A
10.0043879747413;-0.499786376953125;-0.00828857421875;1.03999999737425;105;1 A
10.0143879747161;-0.49981689453125;-0.0082855224609375;1.049999997349;106;1 A
10.0243879746909;-0.49981689453125;-0.00832519531250001;1.05999999732376;107;1 A
10.0343879746656;-0.4998779296875;-0.008319091796875;1.06999999729851;108;1 A
10.0443879746404;-0.499908447265625;-0.0083038330078125;1.07999999727326;109;1 A
10.0543879746151;-0.499755859375;-0.0083038330078125;1.08999999724801;110;1 A
10.0643879745899;-0.499755859375;-0.00827941894531251;1.09999999722277;111;1 A
10.0743879745646;-0.499725341796875;-0.00826416015625001;1.10999999719752;112;1 A
10.0843879745394;-0.49969482421875;-0.0082244873046875;1.11999999717227;113;1 A
10.0943879745141;-0.499786376953125;-0.00821533203124999;1.12999999714702;114;1 A
10.1043879744889;-0.499755859375;-0.0082244873046875;1.13999999712178;115;1 A
10.1143879744636;-0.49981689453125;-0.00823059082031249;1.14999999709653;116;1 A
10.1243879744384;-0.4998779296875;-0.00824890136718751;1.15999999707128;117;1 A
10.1343879744131;-0.49981689453125;-0.0082366943359375;1.16999999704603;118;1 A
10.1443879743879;-0.4998779296875;-0.00827636718749999;1.17999999702079;119;1 A
10.1543879743626;-0.499847412109375;-0.00829467773437501;1.18999999699554;120;1 A
10.1643879743374;-0.49981689453125;-0.008282470703125;1.19999999697029;121;1 A
10.1743879743121;-0.499755859375;-0.0082977294921875;1.20999999694504;122;1 A
10.1843879742869;-0.499847412109375;-0.008270263671875;1.2199999969198;123;1 A
10.1943879742616;-0.499755859375;-0.008258056640625;1.22999999689455;124;1 A
10.2043879742364;-0.499847412109375;-0.00824584960937499;1.2399999968693;125;1 A
10.2143879742111;-0.499755859375;-0.00823364257812501;1.24999999684405;126;1 A
10.2243879741859;-0.499847412109375;-0.0081939697265625;1.25999999681881;127;1 A
10.2343879741607;-0.49981689453125;-0.00813903808593749;1.26999999679356;128;1 A
10.2443879741354;-0.499786376953125;-0.00814208984375001;1.27999999676831;129;1 A
10.2543879741102;-0.49981689453125;-0.00811767578125;1.28999999674306;130;1 A
10.2643879740849;-0.499847412109375;-0.00813903808593749;1.29999999671782;131;1 A
10.2743879740597;-0.499786376953125;-0.00815429687499999;1.30999999669257;132;1 A
10.2843879740344;-0.499969482421875;-0.0081512451171875;1.31999999666732;133;1 A
10.2943879740092;-0.49981689453125;-0.0082122802734375;1.32999999664207;134;1 A
10.3043879739839;-0.499755859375;-0.00824584960937499;1.33999999661683;135;1 A
10.3143879739587;-0.499786376953125;-0.00826416015625001;1.34999999659158;136;1 A
10.3243879739334;-0.499725341796875;-0.008258056640625;1.35999999656633;137;1 A
10.3343879739082;-0.499786376953125;-0.0082275390625;1.36999999654108;138;1 A
10.3443879738829;-0.499847412109375;-0.00821838378906251;1.37999999651583;139;1 A
10.3543879738577;-0.49981689453125;-0.008209228515625;1.38999999649059;140;1 A
10.3643879738324;-0.499786376953125;-0.008197021484375;1.39999999646534;141;1 A
10.3743879738072;-0.499847412109375;-0.008160400390625;1.40999999644009;142;1 A
10.3843879737819;-0.499786376953125;-0.00816650390625;1.41999999641484;143;1 A
10.3943879737567;-0.49981689453125;-0.00817260742187501;1.4299999963896;144;1 A
10.4043879737314;-0.499847412109375;-0.00817260742187501;1.43999999636435;145;1 A
10.4143879737062;-0.499725341796875;-0.0081817626953125;1.4499999963391;146;1 A
10.424387973681;-0.499786376953125;-0.00816955566406249;1.45999999631385;147;1 A
10.4343879736557;-0.499847412109375;-0.0081634521484375;1.46999999628861;148;1 A
10.4443879736305;-0.499847412109375;-0.00816650390625;1.47999999626336;149;1 A
10.4543879736052;-0.499755859375;-0.0081634521484375;1.48999999623811;150;1 A
10.46438797358;-0.499755859375;-0.00814208984375001;1.49999999621286;151;1 A
10.4743879735547;-0.499847412109375;-0.0081451416015625;1.50999999618762;152;1 A
10.4843879735295;-0.49981689453125;-0.0081787109375;1.51999999616237;153;1 A
10.4943879735042;-0.499755859375;-0.00820312500000001;1.52999999613712;154;1 A
10.504387973479;-0.49981689453125;-0.00823974609375;1.53999999611187;155;1 A
10.5143879734537;-0.49981689453125;-0.0082427978515625;1.54999999608663;156;1 A
10.5243879734285;-0.4998779296875;-0.0082427978515625;1.55999999606138;157;1 A
10.5343879734032;-0.49981689453125;-0.0082550048828125;1.56999999603613;158;1 A
10.544387973378;-0.499786376953125;-0.00824890136718751;1.57999999601088;159;1 A
10.5543879733527;-0.49981689453125;-0.0082366943359375;1.58999999598564;160;1 A
10.5643879733275;-0.499755859375;-0.008197021484375;1.59999999596039;161;1 A
10.5743879733022;-0.49981689453125;-0.0081451416015625;1.60999999593514;162;1 A
10.584387973277;-0.499755859375;-0.00809326171874999;1.61999999590989;163;1 A
10.5943879732517;-0.499755859375;-0.0080718994140625;1.62999999588465;164;1 A
10.6043879732265;-0.499786376953125;-0.00803222656249999;1.6399999958594;165;1 A
10.6143879732012;-0.499755859375;-0.0079803466796875;1.64999999583415;166;1 A
10.624387973176;-0.499847412109375;-0.00798950195312501;1.6599999958089;167;1 A
10.6343879731508;-0.499847412109375;-0.0079803466796875;1.66999999578366;168;1 A
10.6443879731255;-0.499847412109375;-0.0079986572265625;1.67999999575841;169;1 A
10.6543879731003;-0.499786376953125;-0.00803222656249999;1.68999999573316;170;1 A
10.664387973075;-0.499786376953125;-0.00803222656249999;1.69999999570791;171;1 A
10.6743879730498;-0.49981689453125;-0.00806884765625;1.70999999568267;172;1 A
10.6843879730245;-0.499847412109375;-0.00809326171874999;1.71999999565742;173;1 A
10.6943879729993;-0.499786376953125;-0.00810546875;1.72999999563217;174;1 A
10.704387972974;-0.499786376953125;-0.0080841064453125;1.73999999560692;175;1 A
10.7143879729488;-0.499786376953125;-0.00806274414062499;1.74999999558167;176;1 A
10.7243879729235;-0.499847412109375;-0.008074951171875;1.75999999555643;177;1 A
10.7343879728983;-0.499786376953125;-0.0080535888671875;1.76999999553118;178;1 A
10.744387972873;-0.499847412109375;-0.008074951171875;1.77999999550593;179;1 A
10.7543879728478;-0.49981689453125;-0.0080596923828125;1.78999999548068;180;1 A
10.7643879728225;-0.4998779296875;-0.00803527832031251;1.79999999545544;181;1 A
10.7743879727973;-0.499786376953125;-0.00804748535156249;1.80999999543019;182;1 A
10.784387972772;-0.499755859375;-0.00803527832031251;1.81999999540494;183;1 A
10.7943879727468;-0.499786376953125;-0.008038330078125;1.82999999537969;184;1 A
10.8043879727215;-0.49969482421875;-0.0080230712890625;1.83999999535445;185;1 A
10.8143879726963;-0.499786376953125;-0.00798950195312501;1.8499999953292;186;1 A
10.824387972671;-0.49981689453125;-0.00797119140624999;1.85999999530395;187;1 A
10.8343879726458;-0.499847412109375;-0.0079620361328125;1.8699999952787;188;1 A
10.8443879726206;-0.4998779296875;-0.0079620361328125;1.87999999525346;189;1 A
10.8543879725953;-0.49981689453125;-0.00794372558593751;1.88999999522821;190;1 A
10.8643879725701;-0.4998779296875;-0.00797119140624999;1.89999999520296;191;1 A
10.8743879725448;-0.49981689453125;-0.00799560546875;1.90999999517771;192;1 A
10.8843879725196;-0.4998779296875;-0.008026123046875;1.91999999515247;193;1 A
10.8943879724943;-0.49981689453125;-0.0080902099609375;1.92999999512722;194;1 A
10.9043879724691;-0.499755859375;-0.00810852050781249;1.93999999510197;195;1 A
10.9143879724438;-0.499786376953125;-0.00814208984375001;1.94999999507672;196;1 A
10.9243879724186;-0.499847412109375;-0.00818786621093751;1.95999999505148;197;1 A
10.9343879723933;-0.499755859375;-0.008221435546875;1.96999999502623;198;1 A
10.9443879723681;-0.49981689453125;-0.0082672119140625;1.97999999500098;199;1 A
10.9543879723428;-0.499786376953125;-0.0083038330078125;1.98999999497573;200;1 A
10.9643879723176;-0.499847412109375;-0.0083465576171875;1.99999999495049;201;1 A
10.9743879722923;-0.49981689453125;-0.00836791992187499;2.00999999492524;202;1 A
10.9843879722671;-0.499847412109375;-0.00838623046875001;2.01999999489999;203;1 A
10.9943879722418;-0.499786376953125;-0.0083770751953125;2.02999999487474;204;1 A
11.0043879722166;-0.499847412109375;-0.00835571289062501;2.0399999948495;205;1 A
11.0143879721913;-0.49981689453125;-0.00835571289062501;2.04999999482425;206;1 A
11.0243879721661;-0.499786376953125;-0.00832519531250001;2.059999994799;207;1 A
11.0343879721408;-0.499725341796875;-0.00830993652343751;2.06999999477375;208;1 A
11.0443879721156;-0.499725341796875;-0.00829162597656249;2.0799999947485;209;1 A
11.0543879720904;-0.499755859375;-0.00826416015625001;2.08999999472326;210;1 A
11.0643879720651;-0.49981689453125;-0.008270263671875;2.09999999469801;211;1 A
11.0743879720399;-0.499786376953125;-0.00829467773437501;2.10999999467276;212;1 A
11.0843879720146;-0.499847412109375;-0.008282470703125;2.11999999464751;213;1 A
11.0943879719894;-0.499847412109375;-0.00826416015625001;2.12999999462227;214;1 A
11.1043879719641;-0.499847412109375;-0.008258056640625;2.13999999459702;215;1 A
11.1143879719389;-0.49981689453125;-0.00823364257812501;2.14999999457177;216;1 A
11.1243879719136;-0.49981689453125;-0.0082366943359375;2.15999999454652;217;1 A
11.1343879718884;-0.499755859375;-0.00823059082031249;2.16999999452128;218;1 A
11.1443879718631;-0.499755859375;-0.0082244873046875;2.17999999449603;219;1 A
11.1543879718379;-0.499755859375;-0.0082427978515625;2.18999999447078;220;1 A
11.1643879718126;-0.4998779296875;-0.00826416015625001;2.19999999444553;221;1 A
11.1743879717874;-0.499786376953125;-0.00830078125;2.20999999442029;222;1 A
11.1843879717621;-0.499847412109375;-0.008331298828125;2.21999999439504;223;1 A
11.1943879717369;-0.49981689453125;-0.00835266113281249;2.22999999436979;224;1 A
11.2043879717116;-0.49981689453125;-0.00836181640625;2.23999999434454;225;1 A
11.2143879716864;-0.499786376953125;-0.0083587646484375;2.2499999943193;226;1 A
11.2243879716611;-0.499847412109375;-0.0083770751953125;2.25999999429405;227;1 A
11.2343879716359;-0.499786376953125;-0.008343505859375;2.2699999942688;228;1 A
11.2443879716106;-0.4998779296875;-0.0083343505859375;2.27999999424355;229;1 A
11.2543879715854;-0.49981689453125;-0.00835571289062501;2.28999999421831;230;1 A
11.2643879715602;-0.49981689453125;-0.00834045410156251;2.29999999419306;231;1 A
11.2743879715349;-0.49981689453125;-0.0083770751953125;2.30999999416781;232;1 A
11.2843879715097;-0.499664306640625;-0.0083648681640625;2.31999999414256;233;1 A
11.2943879714844;-0.499725341796875;-0.0083587646484375;2.32999999411732;234;1 A
11.3043879714592;-0.499847412109375;-0.0083648681640625;2.33999999409207;235;1 A
11.3143879714339;-0.49981689453125;-0.008343505859375;2.34999999406682;236;1 A
11.3243879714087;-0.4998779296875;-0.00832519531250001;2.35999999404157;237;1 A
11.3343879713834;-0.499786376953125;-0.0082855224609375;2.36999999401633;238;1 A
11.3443879713582;-0.499847412109375;-0.008282470703125;2.37999999399108;239;1 A
11.3543879713329;-0.499786376953125;-0.008258056640625;2.38999999396583;240;1 A
11.3643879713077;-0.499847412109375;-0.0082550048828125;2.39999999394058;241;1 A
11.3743879712824;-0.499725341796875;-0.0082855224609375;2.40999999391533;242;1 A
11.3843879712572;-0.499786376953125;-0.00826416015625001;2.41999999389009;243;1 A
11.3943879712319;-0.49969482421875;-0.00829467773437501;2.42999999386484;244;1 A
11.4043879712067;-0.499786376953125;-0.00832519531250001;2.43999999383959;245;1 A
11.4143879711814;-0.499847412109375;-0.00834045410156251;2.44999999381434;246;1 A
11.4243879711562;-0.49981689453125;-0.00837097167968751;2.4599999937891;247;1 A
11.4343879711309;-0.499786376953125;-0.00836791992187499;2.46999999376385;248;1 A
11.4443879711057;-0.499786376953125;-0.0083648681640625;2.4799999937386;249;1 A
11.4543879710805;-0.499786376953125;-0.0083648681640625;2.48999999371335;250;1 A
11.4643879710552;-0.499847412109375;-0.00838317871093749;2.49999999368811;251;1 A
11.47438797103;-0.499725341796875;-0.00837097167968751;2.50999999366286;252;1 A
11.4843879710047;-0.499847412109375;-0.00836791992187499;2.51999999363761;253;1 A
11.4943879709795;-0.49981689453125;-0.00839843749999999;2.52999999361236;254;1 A
11.5043879709542;-0.49981689453125;-0.0083892822265625;2.53999999358712;255;1 A
11.514387970929;-0.499786376953125;-0.0083953857421875;2.54999999356187;256;1 A
11.5243879709037;-0.499725341796875;-0.00836181640625;2.55999999353662;257;1 A
11.5343879708785;-0.499786376953125;-0.008319091796875;2.56999999351137;258;1 A
11.5443879708532;-0.499847412109375;-0.00831298828125;2.57999999348613;259;1 A
11.554387970828;-0.499755859375;-0.00830993652343751;2.58999999346088;260;1 A
11.5643879708027;-0.499847412109375;-0.00831298828125;2.59999999343563;261;1 A
11.5743879707775;-0.499786376953125;-0.00831298828125;2.60999999341038;262;1 A
11.5843879707522;-0.49981689453125;-0.00832214355468749;2.61999999338514;263;1 A
11.594387970727;-0.49981689453125;-0.00833740234374999;2.62999999335989;264;1 A
11.6043879707017;-0.499786376953125;-0.008380126953125;2.63999999333464;265;1 A
11.6143879706765;-0.499786376953125;-0.00841369628906249;2.64999999330939;266;1 A
11.6243879706512;-0.499755859375;-0.00841064453125;2.65999999328415;267;1 A
11.634387970626;-0.499755859375;-0.00844421386718749;2.6699999932589;268;1 A
11.6443879706007;-0.499847412109375;-0.00845947265624999;2.67999999323365;269;1 A
11.6543879705755;-0.499786376953125;-0.0084564208984375;2.6899999932084;270;1 A
11.6643879705503;-0.4998779296875;-0.00844421386718749;2.69999999318316;271;1 A
11.674387970525;-0.499847412109375;-0.0084075927734375;2.70999999315791;272;1 A
11.6843879704998;-0.499786376953125;-0.0083740234375;2.71999999313266;273;1 A
11.6943879704745;-0.49981689453125;-0.00836181640625;2.72999999310741;274;1 A
11.7043879704493;-0.499786376953125;-0.008343505859375;2.73999999308217;275;1 A
11.714387970424;-0.499786376953125;-0.0083038330078125;2.74999999305692;276;1 A
11.7243879703988;-0.49981689453125;-0.00830688476562499;2.75999999303167;277;1 A
11.7343879703735;-0.499786376953125;-0.00831298828125;2.76999999300642;278;1 A
11.7443879703483;-0.499786376953125;-0.00832214355468749;2.77999999298117;279;1 A
11.754387970323;-0.499755859375;-0.0083587646484375;2.78999999295593;280;1 A
11.7643879702978;-0.499755859375;-0.0083465576171875;2.79999999293068;281;1 A
11.7743879702725;-0.499755859375;-0.008349609375;2.80999999290543;282;1 A
11.7843879702473;-0.4998779296875;-0.008349609375;2.81999999288018;283;1 A
11.794387970222;-0.499725341796875;-0.0083465576171875;2.82999999285494;284;1 A
11.8043879701968;-0.499908447265625;-0.00833740234374999;2.83999999282969;285;1 A
11.8143879701715;-0.499755859375;-0.00830993652343751;2.84999999280444;286;1 A
11.8243879701463;-0.49981689453125;-0.0083038330078125;2.85999999277919;287;1 A
11.834387970121;-0.499786376953125;-0.00828857421875;2.86999999275395;288;1 A
11.8443879700958;-0.499847412109375;-0.00830993652343751;2.8799999927287;289;1 A
11.8543879700705;-0.499725341796875;-0.00828857421875;2.88999999270345;290;1 A
11.8643879700453;-0.499786376953125;-0.00824890136718751;2.8999999926782;291;1 A
11.8743879700201;-0.499755859375;-0.008282470703125;2.90999999265296;292;1 A
11.8843879699948;-0.499847412109375;-0.00827941894531251;2.91999999262771;293;1 A
11.8943879699696;-0.49981689453125;-0.0082977294921875;2.92999999260246;294;1 A
11.9043879699443;-0.4998779296875;-0.00830078125;2.93999999257721;295;1 A
11.9143879699191;-0.499786376953125;-0.00826110839843749;2.94999999255197;296;1 A
11.9243879698938;-0.499786376953125;-0.0083038330078125;2.95999999252672;297;1 A
11.9343879698686;-0.49981689453125;-0.0083160400390625;2.96999999250147;298;1 A
11.9443879698433;-0.49981689453125;-0.008349609375;2.97999999247622;299;1 A
11.9543879698181;-0.499755859375;-0.008349609375;2.98999999245098;300;1 A
11.9643879697928;-0.4998779296875;-0.00835571289062501;2.99999999242573;301;1 A
11.9743879697676;-0.499755859375;-0.00838317871093749;3.00999999240048;302;1 A
11.9843879697423;-0.49981689453125;-0.008380126953125;3.01999999237523;303;1 A
11.9943879697171;-0.499847412109375;-0.00841369628906249;3.02999999234999;304;1 A
12.0043879696918;-0.499725341796875;-0.00841064453125;3.03999999232474;305;1 A
12.0143879696666;-0.49981689453125;-0.00842895507812499;3.04999999229949;306;1 A
12.0243879696413;-0.49981689453125;-0.0084716796875;3.05999999227424;307;1 A
12.0343879696161;-0.499847412109375;-0.00847778320312501;3.069999992249;308;1 A
12.0443879695908;-0.4998779296875;-0.00849304199218751;3.07999999222375;309;1 A
12.0543879695656;-0.499786376953125;-0.00848999023437499;3.0899999921985;310;1 A
12.0643879695403;-0.499786376953125;-0.0084808349609375;3.09999999217325;311;1 A
12.0743879695151;-0.499786376953125;-0.0084716796875;3.109999992148;312;1 A
12.0843879694899;-0.499786376953125;-0.0084686279296875;3.11999999212276;313;1 A
12.0943879694646;-0.499725341796875;-0.0084564208984375;3.12999999209751;314;1 A
12.1043879694394;-0.499755859375;-0.0084381103515625;3.13999999207226;315;1 A
12.1143879694141;-0.499847412109375;-0.008465576171875;3.14999999204701;316;1 A
12.1243879693889;-0.499847412109375;-0.0084716796875;3.15999999202177;317;1 A
12.1343879693636;-0.49981689453125;-0.00848388671875;3.16999999199652;318;1 A
12.1443879693384;-0.499847412109375;-0.00850524902343749;3.17999999197127;319;1 A
12.1543879693131;-0.499847412109375;-0.0084869384765625;3.18999999194602;320;1 A
12.1643879692879;-0.49981689453125;-0.008502197265625;3.19999999192078;321;1 A
12.1743879692626;-0.49981689453125;-0.00852050781249999;3.20999999189553;322;1 A
12.1843879692374;-0.499755859375;-0.00853271484375;3.21999999187028;323;1 A
12.1943879692121;-0.499786376953125;-0.0085418701171875;3.22999999184503;324;1 A
12.2043879691869;-0.49981689453125;-0.00853881835937501;3.23999999181979;325;1 A
12.2143879691616;-0.499755859375;-0.00853881835937501;3.24999999179454;326;1 A
12.2243879691364;-0.49981689453125;-0.00853881835937501;3.25999999176929;327;1 A
12.2343879691111;-0.499786376953125;-0.00855102539062499;3.26999999174404;328;1 A
12.2443879690859;-0.49969482421875;-0.0085296630859375;3.2799999917188;329;1 A
12.2543879690606;-0.499847412109375;-0.0085296630859375;3.28999999169355;330;1 A
12.2643879690354;-0.49981689453125;-0.00855712890625;3.2999999916683;331;1 A
12.2743879690101;-0.49981689453125;-0.008563232421875;3.30999999164305;332;1 A
12.2843879689849;-0.499908447265625;-0.0085601806640625;3.31999999161781;333;1 A
12.2943879689597;-0.499786376953125;-0.00855407714843751;3.32999999159256;334;1 A
12.3043879689344;-0.499786376953125;-0.008526611328125;3.33999999156731;335;1 A
12.3143879689092;-0.499755859375;-0.00852050781249999;3.34999999154206;336;1 A
12.3243879688839;-0.499786376953125;-0.00852355957031251;3.35999999151682;337;1 A
12.3343879688587;-0.49981689453125;-0.0084991455078125;3.36999999149157;338;1 A
12.3443879688334;-0.499786376953125;-0.00848999023437499;3.37999999146632;339;1 A
12.3543879688082;-0.499847412109375;-0.008502197265625;3.38999999144107;340;1 A
12.3643879687829;-0.499755859375;-0.00849609375;3.39999999141583;341;1 A
12.3743879687577;-0.49981689453125;-0.00850524902343749;3.40999999139058;342;1 A
12.3843879687324;-0.4998779296875;-0.00848388671875;3.41999999136533;343;1 A
12.3943879687072;-0.499786376953125;-0.0084503173828125;3.42999999134008;344;1 A
12.4043879686819;-0.499786376953125;-0.00843505859375;3.43999999131483;345;1 A
12.4143879686567;-0.499755859375;-0.00841674804687501;3.44999999128959;346;1 A
12.4243879686314;-0.49981689453125;-0.00841064453125;3.45999999126434;347;1 A
12.4343879686062;-0.499786376953125;-0.00838317871093749;3.46999999123909;348;1 A
12.4443879685809;-0.499847412109375;-0.00837097167968751;3.47999999121384;349;1 A
12.4543879685557;-0.499786376953125;-0.0083648681640625;3.4899999911886;350;1 A
12.4643879685304;-0.499786376953125;-0.00836791992187499;3.49999999116335;351;1 A
12.4743879685052;-0.49981689453125;-0.0083892822265625;3.5099999911381;352;1 A
12.48438796848;-0.499725341796875;-0.0083648681640625;3.51999999111285;353;1 A
12.4943879684547;-0.499847412109375;-0.00838623046875001;3.52999999108761;354;1 A
12.5043879684295;-0.49981689453125;-0.0083953857421875;3.53999999106236;355;1 A
12.5143879684042;-0.499847412109375;-0.00838623046875001;3.54999999103711;356;1 A
12.524387968379;-0.499908447265625;-0.0084075927734375;3.55999999101186;357;1 A
12.5343879683537;-0.49981689453125;-0.00838317871093749;3.56999999098662;358;1 A
12.5443879683285;-0.49981689453125;-0.008380126953125;3.57999999096137;359;1 A
12.5543879683032;-0.499755859375;-0.00837097167968751;3.58999999093612;360;1 A
12.564387968278;-0.499755859375;-0.00837097167968751;3.59999999091087;361;1 A
12.5743879682527;-0.49981689453125;-0.00836791992187499;3.60999999088563;362;1 A
12.5843879682275;-0.499786376953125;-0.00835266113281249;3.61999999086038;363;1 A
12.5943879682022;-0.499847412109375;-0.00838623046875001;3.62999999083513;364;1 A
12.604387968177;-0.499847412109375;-0.0083892822265625;3.63999999080988;365;1 A
12.6143879681517;-0.49981689453125;-0.0084075927734375;3.64999999078464;366;1 A
12.6243879681265;-0.499908447265625;-0.00843200683593751;3.65999999075939;367;1 A
12.6343879681012;-0.499786376953125;-0.00842895507812499;3.66999999073414;368;1 A
12.644387968076;-0.49981689453125;-0.008465576171875;3.67999999070889;369;1 A
12.6543879680507;-0.49981689453125;-0.00845947265624999;3.68999999068365;370;1 A
12.6643879680255;-0.49981689453125;-0.00846252441406251;3.6999999906584;371;1 A
12.6743879680002;-0.499786376953125;-0.0084564208984375;3.70999999063315;372;1 A
12.684387967975;-0.4998779296875;-0.0084381103515625;3.7199999906079;373;1 A
12.6943879679498;-0.499725341796875;-0.008453369140625;3.72999999058266;374;1 A
12.7043879679245;-0.499755859375;-0.00845947265624999;3.73999999055741;375;1 A
12.7143879678993;-0.49981689453125;-0.00845947265624999;3.74999999053216;376;1 A
12.724387967874;-0.49969482421875;-0.0084259033203125;3.75999999050691;377;1 A
12.7343879678488;-0.49981689453125;-0.00841674804687501;3.76999999048167;378;1 A
12.7443879678235;-0.499847412109375;-0.0084259033203125;3.77999999045642;379;1 A
12.7543879677983;-0.499786376953125;-0.0084259033203125;3.78999999043117;380;1 A
12.764387967773;-0.499847412109375;-0.00844421386718749;3.79999999040592;381;1 A
12.7743879677478;-0.49981689453125;-0.0084259033203125;3.80999999038067;382;1 A
12.7843879677225;-0.49981689453125;-0.00841369628906249;3.81999999035543;383;1 A
12.7943879676973;-0.49969482421875;-0.008441162109375;3.82999999033018;384;1 A
12.804387967672;-0.499755859375;-0.00844726562500001;3.83999999030493;385;1 A
12.8143879676468;-0.499847412109375;-0.0084564208984375;3.84999999027968;386;1 A
12.8243879676215;-0.499786376953125;-0.00845947265624999;3.85999999025444;387;1 A
12.8343879675963;-0.49981689453125;-0.0084686279296875;3.86999999022919;388;1 A
12.844387967571;-0.49981689453125;-0.0084808349609375;3.87999999020394;389;1 A
12.8543879675458;-0.49981689453125;-0.00848388671875;3.88999999017869;390;1 A
12.8643879675205;-0.49981689453125;-0.0084716796875;3.89999999015345;391;1 A
12.8743879674953;-0.49981689453125;-0.00844421386718749;3.9099999901282;392;1 A
12.88438796747;-0.49981689453125;-0.0084564208984375;3.91999999010295;393;1 A
12.8943879674448;-0.499786376953125;-0.008465576171875;3.9299999900777;394;1 A
12.9043879674196;-0.499786376953125;-0.0084716796875;3.93999999005246;395;1 A
12.9143879673943;-0.49981689453125;-0.0084686279296875;3.94999999002721;396;1 A
12.9243879673691;-0.49981689453125;-0.0084564208984375;3.95999999000196;397;1 A
12.9343879673438;-0.49981689453125;-0.00845947265624999;3.96999998997671;398;1 A
12.9443879673186;-0.49981689453125;-0.008465576171875;3.97999998995147;399;1 A
12.9543879672933;-0.499847412109375;-0.00847473144531249;3.98999998992622;400;1 A
12.9643879672681;-0.499755859375;-0.008453369140625;3.99999998990097;401;1 A
12.9743879672428;-0.49981689453125;-0.0084716796875;4.00999998987572;402;1 A
12.9843879672176;-0.49981689453125;-0.0084808349609375;4.01999998985048;403;1 A
12.9943879671923;-0.499725341796875;-0.008502197265625;4.02999998982523;404;1 A
13.0043879671671;-0.49981689453125;-0.008526611328125;4.03999998979998;405;1 A
13.0143879671418;-0.49981689453125;-0.008514404296875;4.04999998977473;406;1 A
13.0243879671166;-0.499786376953125;-0.00853576660156249;4.05999998974949;407;1 A
13.0343879670913;-0.49981689453125;-0.0085601806640625;4.06999998972424;408;1 A
13.0443879670661;-0.499755859375;-0.0085906982421875;4.07999998969899;409;1 A
13.0543879670408;-0.499786376953125;-0.00859680175781249;4.08999998967374;410;1 A
13.0643879670156;-0.49981689453125;-0.00859680175781249;4.0999999896485;411;1 A
13.0743879669903;-0.49981689453125;-0.00861511230468751;4.10999998962325;412;1 A
13.0843879669651;-0.499786376953125;-0.0086212158203125;4.119999989598;413;1 A
13.0943879669398;-0.49981689453125;-0.00864257812499999;4.12999998957275;414;1 A
13.1043879669146;-0.499755859375;-0.00863037109375001;4.1399999895475;415;1 A
13.1143879668894;-0.49981689453125;-0.00861206054687499;4.14999998952226;416;1 A
13.1243879668641;-0.499725341796875;-0.008636474609375;4.15999998949701;417;1 A
13.1343879668389;-0.499786376953125;-0.008624267578125;4.16999998947176;418;1 A
13.1443879668136;-0.499786376953125;-0.008636474609375;4.17999998944651;419;1 A
13.1543879667884;-0.499786376953125;-0.0086090087890625;4.18999998942127;420;1 A
13.1643879667631;-0.499725341796875;-0.00858154296874999;4.19999998939602;421;1 A
13.1743879667379;-0.49981689453125;-0.0085906982421875;4.20999998937077;422;1 A
13.1843879667126;-0.499847412109375;-0.008587646484375;4.21999998934552;423;1 A
13.1943879666874;-0.4998779296875;-0.0085906982421875;4.22999998932028;424;1 A
13.2043879666621;-0.499786376953125;-0.00856933593750001;4.23999998929503;425;1 A
13.2143879666369;-0.49981689453125;-0.0085723876953125;4.24999998926978;426;1 A
13.2243879666116;-0.499786376953125;-0.008563232421875;4.25999998924453;427;1 A
13.2343879665864;-0.499755859375;-0.0085418701171875;4.26999998921929;428;1 A
13.2443879665611;-0.499847412109375;-0.00853576660156249;4.27999998919404;429;1 A
13.2543879665359;-0.499786376953125;-0.0084869384765625;4.28999998916879;430;1 A
13.2643879665106;-0.499725341796875;-0.00847778320312501;4.29999998914354;431;1 A
13.2743879664854;-0.499786376953125;-0.00847778320312501;4.3099999891183;432;1 A
13.2843879664601;-0.499725341796875;-0.0084686279296875;4.31999998909305;433;1 A
13.2943879664349;-0.4998779296875;-0.00847778320312501;4.3299999890678;434;1 A
13.3043879664096;-0.49981689453125;-0.008465576171875;4.33999998904255;435;1 A
13.3143879663844;-0.499847412109375;-0.0084716796875;4.34999998901731;436;1 A
13.3243879663592;-0.499725341796875;-0.00849304199218751;4.35999998899206;437;1 A
13.3343879663339;-0.499847412109375;-0.00850524902343749;4.36999998896681;438;1 A
13.3443879663087;-0.499755859375;-0.00849304199218751;4.37999998894156;439;1 A
13.3543879662834;-0.49981689453125;-0.0084808349609375;4.38999998891632;440;1 A
13.3643879662582;-0.499725341796875;-0.00850830078125001;4.39999998889107;441;1 A
13.3743879662329;-0.499786376953125;-0.00852355957031251;4.40999998886582;442;1 A
13.3843879662077;-0.499755859375;-0.0085601806640625;4.41999998884057;443;1 A
13.3943879661824;-0.49981689453125;-0.008587646484375;4.42999998881533;444;1 A
13.4043879661572;-0.49981689453125;-0.00859375;4.43999998879008;445;1 A
13.4143879661319;-0.499847412109375;-0.00863037109375001;4.44999998876483;446;1 A
13.4243879661067;-0.499755859375;-0.0086639404296875;4.45999998873958;447;1 A
13.4343879660814;-0.499847412109375;-0.00867919921875;4.46999998871433;448;1 A
13.4443879660562;-0.499755859375;-0.00867309570312499;4.47999998868909;449;1 A
13.4543879660309;-0.4998779296875;-0.0086517333984375;4.48999998866384;450;1 A
13.4643879660057;-0.499786376953125;-0.008636474609375;4.49999998863859;451;1 A
13.4743879659804;-0.4998779296875;-0.0086334228515625;4.50999998861334;452;1 A
13.4843879659552;-0.499847412109375;-0.00863037109375001;4.5199999885881;453;1 A
13.4943879659299;-0.499786376953125;-0.0086181640625;4.52999998856285;454;1 A
13.5043879659047;-0.49981689453125;-0.00862731933593749;4.5399999885376;455;1 A
13.5143879658795;-0.49981689453125;-0.008648681640625;4.54999998851235;456;1 A
13.5243879658542;-0.499725341796875;-0.00865783691406249;4.55999998848711;457;1 A
13.534387965829;-0.4998779296875;-0.0086517333984375;4.56999998846186;458;1 A
13.5443879658037;-0.499786376953125;-0.00863037109375001;4.57999998843661;459;1 A
13.5543879657785;-0.4998779296875;-0.0086212158203125;4.58999998841136;460;1 A
13.5643879657532;-0.499664306640625;-0.00863037109375001;4.59999998838612;461;1 A
13.574387965728;-0.499847412109375;-0.00864562988281251;4.60999998836087;462;1 A
13.5843879657027;-0.499786376953125;-0.0086212158203125;4.61999998833562;463;1 A
13.5943879656775;-0.499786376953125;-0.00861511230468751;4.62999998831037;464;1 A
13.6043879656522;-0.49981689453125;-0.0086212158203125;4.63999998828513;465;1 A
13.614387965627;-0.499786376953125;-0.0086212158203125;4.64999998825988;466;1 A
13.6243879656017;-0.499786376953125;-0.00864257812499999;4.65999998823463;467;1 A
13.6343879655765;-0.4998779296875;-0.008624267578125;4.66999998820938;468;1 A
13.6443879655512;-0.499847412109375;-0.00860595703125;4.67999998818414;469;1 A
13.654387965526;-0.499847412109375;-0.0086090087890625;4.68999998815889;470;1 A
13.6643879655007;-0.499786376953125;-0.0086212158203125;4.69999998813364;471;1 A
13.6743879654755;-0.499847412109375;-0.00864257812499999;4.70999998810839;472;1 A
13.6843879654502;-0.49981689453125;-0.0086334228515625;4.71999998808315;473;1 A
13.694387965425;-0.499847412109375;-0.00864257812499999;4.7299999880579;474;1 A
13.7043879653997;-0.499755859375;-0.00862731933593749;4.73999998803265;475;1 A
13.7143879653745;-0.49981689453125;-0.0086212158203125;4.7499999880074;476;1 A
13.7243879653493;-0.499755859375;-0.008624267578125;4.75999998798216;477;1 A
13.734387965324;-0.49981689453125;-0.008587646484375;4.76999998795691;478;1 A
13.7443879652988;-0.499786376953125;-0.0085906982421875;4.77999998793166;479;1 A
13.7543879652735;-0.4998779296875;-0.00856933593750001;4.78999998790641;480;1 A
13.7643879652483;-0.499755859375;-0.00855102539062499;4.79999998788116;481;1 A
13.774387965223;-0.499847412109375;-0.0085418701171875;4.80999998785592;482;1 A
13.7843879651978;-0.49981689453125;-0.008502197265625;4.81999998783067;483;1 A
13.7943879651725;-0.499786376953125;-0.00849304199218751;4.82999998780542;484;1 A
13.8043879651473;-0.49969482421875;-0.00849609375;4.83999998778017;485;1 A
13.814387965122;-0.499755859375;-0.00850830078125001;4.84999998775493;486;1 A
13.8243879650968;-0.499755859375;-0.00850830078125001;4.85999998772968;487;1 A
13.8343879650715;-0.49981689453125;-0.00849609375;4.86999998770443;488;1 A
13.8443879650463;-0.499755859375;-0.00850524902343749;4.87999998767918;489;1 A
13.854387965021;-0.499908447265625;-0.0084869384765625;4.88999998765394;490;1 A
13.8643879649958;-0.499786376953125;-0.0085113525390625;4.89999998762869;491;1 A
13.8743879649705;-0.499908447265625;-0.0085113525390625;4.90999998760344;492;1 A
13.8843879649453;-0.49981689453125;-0.00849609375;4.91999998757819;493;1 A
13.89438796492;-0.499755859375;-0.0085296630859375;4.92999998755295;494;1 A
13.9043879648948;-0.499847412109375;-0.0085296630859375;4.9399999875277;495;1 A
13.9143879648695;-0.499847412109375;-0.00855407714843751;4.94999998750245;496;1 A
13.9243879648443;-0.499786376953125;-0.00855712890625;4.9599999874772;497;1 A
13.9343879648191;-0.49981689453125;-0.0085601806640625;4.96999998745196;498;1 A
13.9443879647938;-0.499786376953125;-0.00856933593750001;4.97999998742671;499;1 A
13.9543879647686;-0.499755859375;-0.008575439453125;4.98999998740146;500;1 A
13.9643879647433;-0.49981689453125;-0.008575439453125;4.99999998737621;501;1 A
13.9743879647181;-0.49981689453125;-0.00855102539062499;5.00999998735097;502;1 A
13.9843879646928;-0.49981689453125;-0.008575439453125;5.01999998732572;503;1 A
13.9943879646676;-0.499847412109375;-0.0086029052734375;5.02999998730047;504;1 A
14.0043879646423;-0.499755859375;-0.0086181640625;5.03999998727522;505;1 A
14.0143879646171;-0.499786376953125;-0.008636474609375;5.04999998724998;506;1 A
14.0243879645918;-0.499786376953125;-0.0086029052734375;5.05999998722473;507;1 A
14.0343879645666;-0.499786376953125;-0.0085906982421875;5.06999998719948;508;1 A
14.0443879645413;-0.49969482421875;-0.0085906982421875;5.07999998717423;509;1 A
14.0543879645161;-0.499786376953125;-0.00855712890625;5.08999998714899;510;1 A
14.0643879644908;-0.499847412109375;-0.008526611328125;5.09999998712374;511;1 A
14.0743879644656;-0.499786376953125;-0.0084991455078125;5.10999998709849;512;1 A
14.0843879644403;-0.499755859375;-0.00848388671875;5.11999998707324;513;1 A
14.0943879644151;-0.49981689453125;-0.0084808349609375;5.129999987048;514;1 A
14.1043879643898;-0.49981689453125;-0.00849304199218751;5.13999998702275;515;1 A
14.1143879643646;-0.499786376953125;-0.00848388671875;5.1499999869975;516;1 A
14.1243879643393;-0.49981689453125;-0.00847473144531249;5.15999998697225;517;1 A
14.1343879643141;-0.49981689453125;-0.00848388671875;5.169999986947;518;1 A
14.1443879642889;-0.49981689453125;-0.0084808349609375;5.17999998692176;519;1 A
14.1543879642636;-0.499755859375;-0.00847473144531249;5.18999998689651;520;1 A
14.1643879642384;-0.49981689453125;-0.00844421386718749;5.19999998687126;521;1 A
14.1743879642131;-0.499847412109375;-0.0084197998046875;5.20999998684601;522;1 A
14.1843879641879;-0.499725341796875;-0.008404541015625;5.21999998682077;523;1 A
14.1943879641626;-0.49981689453125;-0.00841369628906249;5.22999998679552;524;1 A
14.2043879641374;-0.4998779296875;-0.008404541015625;5.23999998677027;525;1 A
14.2143879641121;-0.499725341796875;-0.00838623046875001;5.24999998674502;526;1 A
14.2243879640869;-0.499847412109375;-0.00841369628906249;5.25999998671978;527;1 A
14.2343879640616;-0.499786376953125;-0.008404541015625;5.26999998669453;528;1 A
14.2443879640364;-0.49981689453125;-0.0084228515625;5.27999998666928;529;1 A
14.2543879640111;-0.4998779296875;-0.00842895507812499;5.28999998664403;530;1 A
14.2643879639859;-0.499786376953125;-0.00841674804687501;5.29999998661879;531;1 A
14.2743879639606;-0.499725341796875;-0.008441162109375;5.30999998659354;532;1 A
14.2843879639354;-0.499725341796875;-0.0084564208984375;5.31999998656829;533;1 A
14.2943879639101;-0.499786376953125;-0.008453369140625;5.32999998654304;534;1 A
14.3043879638849;-0.499786376953125;-0.008441162109375;5.3399999865178;535;1 A
14.3143879638596;-0.499786376953125;-0.00843505859375;5.34999998649255;536;1 A
14.3243879638344;-0.49981689453125;-0.00842895507812499;5.3599999864673;537;1 A
14.3343879638091;-0.499755859375;-0.0084228515625;5.36999998644205;538;1 A
14.3443879637839;-0.49981689453125;-0.0084503173828125;5.37999998641681;539;1 A
14.3543879637587;-0.49981689453125;-0.00841369628906249;5.38999998639156;540;1 A
14.3643879637334;-0.49981689453125;-0.008404541015625;5.39999998636631;541;1 A
14.3743879637082;-0.49981689453125;-0.0084228515625;5.40999998634106;542;1 A
14.3843879636829;-0.49981689453125;-0.008404541015625;5.41999998631582;543;1 A
14.3943879636577;-0.499755859375;-0.0084197998046875;5.42999998629057;544;1 A
14.4043879636324;-0.499847412109375;-0.00839843749999999;5.43999998626532;545;1 A
14.4143879636072;-0.499786376953125;-0.0083892822265625;5.44999998624007;546;1 A
14.4243879635819;-0.499755859375;-0.00840148925781251;5.45999998621483;547;1 A
14.4343879635567;-0.49981689453125;-0.0084075927734375;5.46999998618958;548;1 A
14.4443879635314;-0.499847412109375;-0.00841369628906249;5.47999998616433;549;1 A
14.4543879635062;-0.499755859375;-0.008392333984375;5.48999998613908;550;1 A
14.4643879634809;-0.499847412109375;-0.008404541015625;5.49999998611383;551;1 A
14.4743879634557;-0.49981689453125;-0.00841369628906249;5.50999998608859;552;1 A
14.4843879634304;-0.499786376953125;-0.00843200683593751;5.51999998606334;553;1 A
14.4943879634052;-0.499786376953125;-0.008453369140625;5.52999998603809;554;1 A
14.5043879633799;-0.499786376953125;-0.00843200683593751;5.53999998601284;555;1 A
14.5143879633547;-0.499755859375;-0.008453369140625;5.5499999859876;556;1 A
14.5243879633294;-0.499725341796875;-0.0084808349609375;5.55999998596235;557;1 A
14.5343879633042;-0.49981689453125;-0.00848999023437499;5.5699999859371;558;1 A
14.544387963279;-0.499847412109375;-0.00850830078125001;5.57999998591185;559;1 A
14.5543879632537;-0.499755859375;-0.0084991455078125;5.58999998588661;560;1 A
14.5643879632285;-0.499847412109375;-0.00849304199218751;5.59999998586136;561;1 A
14.5743879632032;-0.499847412109375;-0.0084991455078125;5.60999998583611;562;1 A
14.584387963178;-0.49981689453125;-0.00850830078125001;5.61999998581086;563;1 A
14.5943879631527;-0.499847412109375;-0.00848999023437499;5.62999998578562;564;1 A
14.6043879631275;-0.4998779296875;-0.0084808349609375;5.63999998576037;565;1 A
14.6143879631022;-0.499755859375;-0.0085113525390625;5.64999998573512;566;1 A
14.624387963077;-0.499755859375;-0.00852050781249999;5.65999998570987;567;1 A
14.6343879630517;-0.499725341796875;-0.00855407714843751;5.66999998568463;568;1 A
14.6443879630265;-0.499786376953125;-0.00855712890625;5.67999998565938;569;1 A
14.6543879630012;-0.499847412109375;-0.00855712890625;5.68999998563413;570;1 A
14.664387962976;-0.49981689453125;-0.008575439453125;5.69999998560888;571;1 A
14.6743879629507;-0.499786376953125;-0.0085906982421875;5.70999998558364;572;1 A
14.6843879629255;-0.499847412109375;-0.0085906982421875;5.71999998555839;573;1 A
14.6943879629002;-0.499786376953125;-0.00856933593750001;5.72999998553314;574;1 A
14.704387962875;-0.49981689453125;-0.00856933593750001;5.73999998550789;575;1 A
14.7143879628497;-0.49981689453125;-0.0085723876953125;5.74999998548265;576;1 A
14.7243879628245;-0.499755859375;-0.00858459472656251;5.7599999854574;577;1 A
14.7343879627992;-0.499786376953125;-0.008587646484375;5.76999998543215;578;1 A
14.744387962774;-0.499786376953125;-0.00855102539062499;5.7799999854069;579;1 A
14.7543879627488;-0.499847412109375;-0.00855407714843751;5.78999998538166;580;1 A
14.7643879627235;-0.499725341796875;-0.008563232421875;5.79999998535641;581;1 A
14.7743879626983;-0.499786376953125;-0.00855712890625;5.80999998533116;582;1 A
14.784387962673;-0.499786376953125;-0.008544921875;5.81999998530591;583;1 A
14.7943879626478;-0.49981689453125;-0.00853881835937501;5.82999998528066;584;1 A
14.8043879626225;-0.499847412109375;-0.00852355957031251;5.83999998525542;585;1 A
14.8143879625973;-0.499847412109375;-0.00853881835937501;5.84999998523017;586;1 A
14.824387962572;-0.49981689453125;-0.00856628417968749;5.85999998520492;587;1 A
14.8343879625468;-0.499786376953125;-0.0085418701171875;5.86999998517967;588;1 A
14.8443879625215;-0.499847412109375;-0.00855102539062499;5.87999998515443;589;1 A
14.8543879624963;-0.499755859375;-0.00855407714843751;5.88999998512918;590;1 A
14.864387962471;-0.499847412109375;-0.008544921875;5.89999998510393;591;1 A
14.8743879624458;-0.499755859375;-0.008544921875;5.90999998507868;592;1 A
14.8843879624205;-0.49981689453125;-0.00849304199218751;5.91999998505344;593;1 A
14.8943879623953;-0.499755859375;-0.00846252441406251;5.92999998502819;594;1 A
14.90438796237;-0.499847412109375;-0.0084503173828125;5.93999998500294;595;1 A
14.9143879623448;-0.499847412109375;-0.0084381103515625;5.94999998497769;596;1 A
14.9243879623195;-0.499847412109375;-0.0084259033203125;5.95999998495245;597;1 A
14.9343879622943;-0.499847412109375;-0.00840148925781251;5.9699999849272;598;1 A
14.944387962269;-0.499786376953125;-0.00839843749999999;5.97999998490195;599;1 A
14.9543879622438;-0.499786376953125;-0.0083770751953125;5.9899999848767;600;1 A
14.9643879622186;-0.499755859375;-0.0083770751953125;5.99999998485146;601;1 A
14.9743879621933;-0.499786376953125;-0.00836181640625;6.00999998482621;602;1 A
14.9843879621681;-0.499755859375;-0.0083282470703125;6.01999998480096;603;1 A
14.9943879621428;-0.49981689453125;-0.008349609375;6.02999998477571;604;1 A
15.0043879621176;-0.499725341796875;-0.00836181640625;6.03999998475047;605;1 A
15.0143879620923;-0.499755859375;-0.00836791992187499;6.04999998472522;606;1 A
15.0243879620671;-0.49981689453125;-0.008380126953125;6.05999998469997;607;1 A
15.0343879620418;-0.499786376953125;-0.0083740234375;6.06999998467472;608;1 A
15.0443879620166;-0.499786376953125;-0.00841064453125;6.07999998464948;609;1 A
15.0543879619913;-0.49981689453125;-0.00843200683593751;6.08999998462423;610;1 A
15.0643879619661;-0.49981689453125;-0.008453369140625;6.09999998459898;611;1 A
15.0743879619408;-0.499755859375;-0.0084381103515625;6.10999998457373;612;1 A
15.0843879619156;-0.49981689453125;-0.00842895507812499;6.11999998454849;613;1 A
15.0943879618903;-0.499847412109375;-0.0084381103515625;6.12999998452324;614;1 A
15.1043879618651;-0.49981689453125;-0.00843200683593751;6.13999998449799;615;1 A
15.1143879618398;-0.49981689453125;-0.0084686279296875;6.14999998447274;616;1 A
15.1243879618146;-0.499847412109375;-0.00846252441406251;6.1599999844475;617;1 A
15.1343879617893;-0.499725341796875;-0.00847473144531249;6.16999998442225;618;1 A
15.1443879617641;-0.49981689453125;-0.0085113525390625;6.179999984397;619;1 A
15.1543879617388;-0.499755859375;-0.0085174560546875;6.18999998437175;620;1 A
15.1643879617136;-0.499847412109375;-0.0085296630859375;6.1999999843465;621;1 A
15.1743879616884;-0.499786376953125;-0.0085174560546875;6.20999998432126;622;1 A
15.1843879616631;-0.4998779296875;-0.0085174560546875;6.21999998429601;623;1 A
15.1943879616379;-0.49981689453125;-0.0085296630859375;6.22999998427076;624;1 A
15.2043879616126;-0.499725341796875;-0.0085418701171875;6.23999998424551;625;1 A
15.2143879615874;-0.499786376953125;-0.00853881835937501;6.24999998422027;626;1 A
15.2243879615621;-0.49981689453125;-0.008514404296875;6.25999998419502;627;1 A
15.2343879615369;-0.49981689453125;-0.0085418701171875;6.26999998416977;628;1 A
15.2443879615116;-0.499725341796875;-0.00855102539062499;6.27999998414452;629;1 A
15.2543879614864;-0.499786376953125;-0.008544921875;6.28999998411928;630;1 A
15.2643879614611;-0.49981689453125;-0.0085601806640625;6.29999998409403;631;1 A
15.2743879614359;-0.49981689453125;-0.00855102539062499;6.30999998406878;632;1 A
15.2843879614106;-0.499847412109375;-0.00856933593750001;6.31999998404353;633;1 A
15.2943879613854;-0.499786376953125;-0.00859375;6.32999998401829;634;1 A
15.3043879613601;-0.499786376953125;-0.00859985351562501;6.33999998399304;635;1 A
15.3143879613349;-0.4998779296875;-0.00858459472656251;6.34999998396779;636;1 A
15.3243879613096;-0.499786376953125;-0.00859375;6.35999998394254;637;1 A
15.3343879612844;-0.49981689453125;-0.00860595703125;6.3699999839173;638;1 A
15.3443879612591;-0.49981689453125;-0.00861206054687499;6.37999998389205;639;1 A
15.3543879612339;-0.49981689453125;-0.00862731933593749;6.3899999838668;640;1 A
15.3643879612086;-0.49981689453125;-0.0086029052734375;6.39999998384155;641;1 A
15.3743879611834;-0.499755859375;-0.0085906982421875;6.40999998381631;642;1 A
15.3843879611582;-0.49981689453125;-0.00858154296874999;6.41999998379106;643;1 A
15.3943879611329;-0.499786376953125;-0.0085601806640625;6.42999998376581;644;1 A
15.4043879611077;-0.499847412109375;-0.0085479736328125;6.43999998374056;645;1 A
15.4143879610824;-0.49981689453125;-0.00852355957031251;6.44999998371532;646;1 A
15.4243879610572;-0.499847412109375;-0.00852355957031251;6.45999998369007;647;1 A
15.4343879610319;-0.4998779296875;-0.00852355957031251;6.46999998366482;648;1 A
15.4443879610067;-0.499786376953125;-0.0085418701171875;6.47999998363957;649;1 A
15.4543879609814;-0.499755859375;-0.0085174560546875;6.48999998361433;650;1 A
15.4643879609562;-0.499755859375;-0.0084869384765625;6.49999998358908;651;1 A
15.4743879609309;-0.499786376953125;-0.00849304199218751;6.50999998356383;652;1 A
15.4843879609057;-0.499664306640625;-0.0084686279296875;6.51999998353858;653;1 A
15.4943879608804;-0.499725341796875;-0.00847778320312501;6.52999998351333;654;1 A
15.5043879608552;-0.499786376953125;-0.00847473144531249;6.53999998348809;655;1 A
15.5143879608299;-0.499786376953125;-0.0084564208984375;6.54999998346284;656;1 A
15.5243879608047;-0.499786376953125;-0.0084716796875;6.55999998343759;657;1 A
15.5343879607794;-0.499786376953125;-0.00847778320312501;6.56999998341234;658;1 A
15.5443879607542;-0.49981689453125;-0.00849609375;6.5799999833871;659;1 A
15.5543879607289;-0.49981689453125;-0.0084716796875;6.58999998336185;660;1 A
15.5643879607037;-0.499786376953125;-0.0084686279296875;6.5999999833366;661;1 A
15.5743879606785;-0.49981689453125;-0.008453369140625;6.60999998331135;662;1 A
15.5843879606532;-0.49981689453125;-0.00843505859375;6.61999998328611;663;1 A
15.594387960628;-0.499847412109375;-0.00844726562500001;6.62999998326086;664;1 A
15.6043879606027;-0.499847412109375;-0.0084075927734375;6.63999998323561;665;1 A
15.6143879605775;-0.499786376953125;-0.008404541015625;6.64999998321036;666;1 A
15.6243879605522;-0.499786376953125;-0.00841064453125;6.65999998318512;667;1 A
15.634387960527;-0.49981689453125;-0.00838623046875001;6.66999998315987;668;1 A
15.6443879605017;-0.49981689453125;-0.0083953857421875;6.67999998313462;669;1 A
15.6543879604765;-0.49981689453125;-0.00835571289062501;6.68999998310937;670;1 A
15.6643879604512;-0.49981689453125;-0.0083465576171875;6.69999998308413;671;1 A
15.674387960426;-0.4998779296875;-0.008331298828125;6.70999998305888;672;1 A
15.6843879604007;-0.49981689453125;-0.008319091796875;6.71999998303363;673;1 A
15.6943879603755;-0.499847412109375;-0.0082977294921875;6.72999998300838;674;1 A
15.7043879603502;-0.49981689453125;-0.00826416015625001;6.73999998298314;675;1 A
15.714387960325;-0.499847412109375;-0.0082855224609375;6.74999998295789;676;1 A
15.7243879602997;-0.49969482421875;-0.0082855224609375;6.75999998293264;677;1 A
15.7343879602745;-0.499755859375;-0.00829162597656249;6.76999998290739;678;1 A
15.7443879602492;-0.499755859375;-0.00830078125;6.77999998288215;679;1 A
15.754387960224;-0.499786376953125;-0.00827636718749999;6.7899999828569;680;1 A
15.7643879601987;-0.499755859375;-0.00828857421875;6.79999998283165;681;1 A
15.7743879601735;-0.499786376953125;-0.00827636718749999;6.8099999828064;682;1 A
15.7843879601483;-0.499786376953125;-0.00826110839843749;6.81999998278116;683;1 A
15.794387960123;-0.499786376953125;-0.0082366943359375;6.82999998275591;684;1 A
15.8043879600978;-0.49981689453125;-0.008221435546875;6.83999998273066;685;1 A
15.8143879600725;-0.499847412109375;-0.00821838378906251;6.84999998270541;686;1 A
15.8243879600473;-0.49981689453125;-0.00820007324218749;6.85999998268016;687;1 A
15.834387960022;-0.499847412109375;-0.00818786621093751;6.86999998265492;688;1 A
15.8443879599968;-0.499847412109375;-0.008135986328125;6.87999998262967;689;1 A
15.8543879599715;-0.49981689453125;-0.0081207275390625;6.88999998260442;690;1 A
15.8643879599463;-0.499755859375;-0.0081329345703125;6.89999998257917;691;1 A
15.874387959921;-0.49981689453125;-0.008135986328125;6.90999998255393;692;1 A
15.8843879598958;-0.499786376953125;-0.00817260742187501;6.91999998252868;693;1 A
15.8943879598705;-0.49981689453125;-0.00819091796875;6.92999998250343;694;1 A
15.9043879598453;-0.499725341796875;-0.00819091796875;6.93999998247818;695;1 A
15.91438795982;-0.499847412109375;-0.0082061767578125;6.94999998245294;696;1 A
15.9243879597948;-0.499725341796875;-0.00821533203124999;6.95999998242769;697;1 A
15.9343879597695;-0.499847412109375;-0.00820312500000001;6.96999998240244;698;1 A
15.9443879597443;-0.499786376953125;-0.00819091796875;6.97999998237719;699;1 A
15.954387959719;-0.49981689453125;-0.00820007324218749;6.98999998235195;700;1 A
