Time (s);WE(1).Potential (V);WE(1).Current (A);Corrected time (s);Index;Current range
18.1226489542447;-0.59979248046875;-0.0109039306640625;0;1;1 A
18.1326489542195;-0.5997314453125;-0.010137939453125;0.00999999997475243;2;1 A
18.1426489541942;-0.599822998046875;-0.0097503662109375;0.0199999999495049;3;1 A
18.152648954169;-0.599822998046875;-0.00951232910156249;0.0299999999242573;4;1 A
18.1626489541437;-0.59979248046875;-0.00934448242187499;0.0399999998990097;5;1 A
18.1726489541185;-0.599761962890625;-0.00925292968749999;0.0499999998737621;6;1 A
18.1826489540932;-0.599700927734375;-0.00911560058593749;0.0599999998485146;7;1 A
18.192648954068;-0.599761962890625;-0.0089874267578125;0.069999999823267;8;1 A
18.2026489540427;-0.5997314453125;-0.008941650390625;0.0799999997980194;9;1 A
18.2126489540175;-0.59979248046875;-0.00888671874999999;0.0899999997727718;10;1 A
18.2226489539922;-0.599700927734375;-0.00888977050781251;0.0999999997475243;11;1 A
18.232648953967;-0.5997314453125;-0.0088470458984375;0.109999999722277;12;1 A
18.2426489539417;-0.59979248046875;-0.00878295898437501;0.119999999697029;13;1 A
18.2526489539165;-0.59979248046875;-0.0087860107421875;0.129999999671782;14;1 A
18.2626489538912;-0.599761962890625;-0.0087738037109375;0.139999999646534;15;1 A
18.272648953866;-0.59979248046875;-0.00877685546875;0.149999999621286;16;1 A
18.2826489538407;-0.59979248046875;-0.008709716796875;0.159999999596039;17;1 A
18.2926489538155;-0.599822998046875;-0.00865478515625;0.169999999570791;18;1 A
18.3026489537903;-0.59979248046875;-0.008624267578125;0.179999999545544;19;1 A
18.312648953765;-0.599761962890625;-0.00860595703125;0.189999999520296;20;1 A
18.3226489537398;-0.59967041015625;-0.008624267578125;0.199999999495049;21;1 A
18.3326489537145;-0.59979248046875;-0.0085601806640625;0.209999999469801;22;1 A
18.3426489536893;-0.599761962890625;-0.008526611328125;0.219999999444553;23;1 A
18.352648953664;-0.599761962890625;-0.00852355957031251;0.229999999419306;24;1 A
18.3626489536388;-0.5997314453125;-0.008514404296875;0.239999999394058;25;1 A
18.3726489536135;-0.5997314453125;-0.00853576660156249;0.249999999368811;26;1 A
18.3826489535883;-0.599700927734375;-0.00849609375;0.259999999343563;27;1 A
18.392648953563;-0.599761962890625;-0.0084808349609375;0.269999999318316;28;1 A
18.4026489535378;-0.599761962890625;-0.00849304199218751;0.279999999293068;29;1 A
18.4126489535125;-0.599761962890625;-0.008502197265625;0.28999999926782;30;1 A
18.4226489534873;-0.599761962890625;-0.00849304199218751;0.299999999242573;31;1 A
18.432648953462;-0.599761962890625;-0.0084564208984375;0.309999999217325;32;1 A
18.4426489534368;-0.599700927734375;-0.008465576171875;0.319999999192078;33;1 A
18.4526489534115;-0.599761962890625;-0.00847778320312501;0.32999999916683;34;1 A
18.4626489533863;-0.5997314453125;-0.00850524902343749;0.339999999141583;35;1 A
18.472648953361;-0.5997314453125;-0.00852355957031251;0.349999999116335;36;1 A
18.4826489533358;-0.599761962890625;-0.0084869384765625;0.359999999091087;37;1 A
18.4926489533105;-0.59979248046875;-0.00850524902343749;0.36999999906584;38;1 A
18.5026489532853;-0.59979248046875;-0.008526611328125;0.379999999040592;39;1 A
18.5126489532601;-0.599761962890625;-0.00853271484375;0.389999999015345;40;1 A
18.5226489532348;-0.5997314453125;-0.008526611328125;0.399999998990097;41;1 A
18.5326489532096;-0.5997314453125;-0.0084991455078125;0.40999999896485;42;1 A
18.5426489531843;-0.5997314453125;-0.00848999023437499;0.419999998939602;43;1 A
18.5526489531591;-0.599761962890625;-0.0085174560546875;0.429999998914354;44;1 A
18.5626489531338;-0.599700927734375;-0.00853271484375;0.439999998889107;45;1 A
18.5726489531086;-0.5997314453125;-0.00852050781249999;0.449999998863859;46;1 A
18.5826489530833;-0.599761962890625;-0.0085418701171875;0.459999998838612;47;1 A
18.5926489530581;-0.5997314453125;-0.00853881835937501;0.469999998813364;48;1 A
18.6026489530328;-0.599761962890625;-0.0085479736328125;0.479999998788116;49;1 A
18.6126489530076;-0.5997314453125;-0.00853576660156249;0.489999998762869;50;1 A
18.6226489529823;-0.59979248046875;-0.0084991455078125;0.499999998737621;51;1 A
18.6326489529571;-0.59979248046875;-0.00846252441406251;0.509999998712374;52;1 A
18.6426489529318;-0.59979248046875;-0.008453369140625;0.519999998687126;53;1 A
18.6526489529066;-0.59979248046875;-0.00850524902343749;0.529999998661879;54;1 A
18.6626489528813;-0.5997314453125;-0.00845947265624999;0.539999998636631;55;1 A
18.6726489528561;-0.5997314453125;-0.0084564208984375;0.549999998611383;56;1 A
18.6826489528308;-0.5997314453125;-0.0084503173828125;0.559999998586136;57;1 A
18.6926489528056;-0.599761962890625;-0.00845947265624999;0.569999998560888;58;1 A
18.7026489527804;-0.59979248046875;-0.00850830078125001;0.579999998535641;59;1 A
18.7126489527551;-0.599761962890625;-0.00850830078125001;0.589999998510393;60;1 A
18.7226489527299;-0.599884033203125;-0.0085174560546875;0.599999998485146;61;1 A
18.7326489527046;-0.599761962890625;-0.008544921875;0.609999998459898;62;1 A
18.7426489526794;-0.599761962890625;-0.0085723876953125;0.61999999843465;63;1 A
18.7526489526541;-0.599761962890625;-0.00862731933593749;0.629999998409403;64;1 A
18.7626489526289;-0.599822998046875;-0.008636474609375;0.639999998384155;65;1 A
18.7726489526036;-0.59979248046875;-0.008648681640625;0.649999998358908;66;1 A
18.7826489525784;-0.5997314453125;-0.00864562988281251;0.65999999833366;67;1 A
18.7926489525531;-0.599700927734375;-0.0086700439453125;0.669999998308413;68;1 A
18.8026489525279;-0.5997314453125;-0.008709716796875;0.679999998283165;69;1 A
18.8126489525026;-0.59979248046875;-0.0086822509765625;0.689999998257917;70;1 A
18.8226489524774;-0.5997314453125;-0.008709716796875;0.69999999823267;71;1 A
18.8326489524521;-0.599761962890625;-0.0087158203125;0.709999998207422;72;1 A
18.8426489524269;-0.5997314453125;-0.00873413085937499;0.719999998182175;73;1 A
18.8526489524016;-0.5997314453125;-0.008758544921875;0.729999998156927;74;1 A
18.8626489523764;-0.599761962890625;-0.0087127685546875;0.73999999813168;75;1 A
18.8726489523511;-0.59979248046875;-0.008709716796875;0.749999998106432;76;1 A
18.8826489523259;-0.599761962890625;-0.0087158203125;0.759999998081184;77;1 A
18.8926489523006;-0.599822998046875;-0.0087158203125;0.769999998055937;78;1 A
18.9026489522754;-0.59979248046875;-0.008709716796875;0.779999998030689;79;1 A
18.9126489522502;-0.599700927734375;-0.0086700439453125;0.789999998005442;80;1 A
18.9226489522249;-0.599761962890625;-0.00866088867187501;0.799999997980194;81;1 A
18.9326489521997;-0.5997314453125;-0.008636474609375;0.809999997954947;82;1 A
18.9426489521744;-0.599700927734375;-0.00865478515625;0.819999997929699;83;1 A
18.9526489521492;-0.599700927734375;-0.00864562988281251;0.829999997904451;84;1 A
18.9626489521239;-0.59991455078125;-0.00861511230468751;0.839999997879204;85;1 A
18.9726489520987;-0.599700927734375;-0.00865478515625;0.849999997853956;86;1 A
18.9826489520734;-0.59979248046875;-0.008648681640625;0.859999997828709;87;1 A
18.9926489520482;-0.59967041015625;-0.00866088867187501;0.869999997803461;88;1 A
19.0026489520229;-0.59979248046875;-0.00864257812499999;0.879999997778214;89;1 A
19.0126489519977;-0.5997314453125;-0.00859985351562501;0.889999997752966;90;1 A
19.0226489519724;-0.59979248046875;-0.0086090087890625;0.899999997727718;91;1 A
19.0326489519472;-0.5997314453125;-0.0086212158203125;0.909999997702471;92;1 A
19.0426489519219;-0.59979248046875;-0.0086334228515625;0.919999997677223;93;1 A
19.0526489518967;-0.599761962890625;-0.00861206054687499;0.929999997651976;94;1 A
19.0626489518714;-0.5997314453125;-0.00860595703125;0.939999997626728;95;1 A
19.0726489518462;-0.599700927734375;-0.00862731933593749;0.949999997601481;96;1 A
19.0826489518209;-0.599700927734375;-0.0086639404296875;0.959999997576233;97;1 A
19.0926489517957;-0.5997314453125;-0.00870361328124999;0.969999997550985;98;1 A
19.1026489517704;-0.599761962890625;-0.0087005615234375;0.979999997525738;99;1 A
19.1126489517452;-0.5997314453125;-0.0087158203125;0.98999999750049;100;1 A
19.12264895172;-0.599884033203125;-0.008758544921875;0.999999997475243;101;1 A
19.1326489516947;-0.599822998046875;-0.0087615966796875;1.00999999745;102;1 A
19.1426489516695;-0.59979248046875;-0.00875244140625001;1.01999999742475;103;1 A
19.1526489516442;-0.599761962890625;-0.00872192382812501;1.0299999973995;104;1 A
19.162648951619;-0.599761962890625;-0.0087005615234375;1.03999999737425;105;1 A
19.1726489515937;-0.5997314453125;-0.0087005615234375;1.049999997349;106;1 A
19.1826489515685;-0.5997314453125;-0.0087005615234375;1.05999999732376;107;1 A
19.1926489515432;-0.5997314453125;-0.0086517333984375;1.06999999729851;108;1 A
19.202648951518;-0.59979248046875;-0.00861206054687499;1.07999999727326;109;1 A
19.2126489514927;-0.59967041015625;-0.0086212158203125;1.08999999724801;110;1 A
19.2226489514675;-0.599761962890625;-0.00862731933593749;1.09999999722277;111;1 A
19.2326489514422;-0.599700927734375;-0.0086395263671875;1.10999999719752;112;1 A
19.242648951417;-0.599761962890625;-0.00861206054687499;1.11999999717227;113;1 A
19.2526489513917;-0.599761962890625;-0.0085723876953125;1.12999999714702;114;1 A
19.2626489513665;-0.59979248046875;-0.00855407714843751;1.13999999712178;115;1 A
19.2726489513412;-0.5997314453125;-0.008563232421875;1.14999999709653;116;1 A
19.282648951316;-0.59979248046875;-0.0085479736328125;1.15999999707128;117;1 A
19.2926489512907;-0.599761962890625;-0.008502197265625;1.16999999704603;118;1 A
19.3026489512655;-0.5997314453125;-0.00849304199218751;1.17999999702079;119;1 A
19.3126489512402;-0.59967041015625;-0.00848388671875;1.18999999699554;120;1 A
19.322648951215;-0.599822998046875;-0.008514404296875;1.19999999697029;121;1 A
19.3326489511898;-0.599700927734375;-0.00852355957031251;1.20999999694504;122;1 A
19.3426489511645;-0.5997314453125;-0.00850524902343749;1.2199999969198;123;1 A
19.3526489511393;-0.5997314453125;-0.00852355957031251;1.22999999689455;124;1 A
19.362648951114;-0.599761962890625;-0.00853271484375;1.2399999968693;125;1 A
19.3726489510888;-0.599822998046875;-0.0085601806640625;1.24999999684405;126;1 A
19.3826489510635;-0.599700927734375;-0.008544921875;1.25999999681881;127;1 A
19.3926489510383;-0.599761962890625;-0.008502197265625;1.26999999679356;128;1 A
19.402648951013;-0.59979248046875;-0.00847473144531249;1.27999999676831;129;1 A
19.4126489509878;-0.59979248046875;-0.008453369140625;1.28999999674306;130;1 A
19.4226489509625;-0.5997314453125;-0.0084686279296875;1.29999999671782;131;1 A
19.4326489509373;-0.599700927734375;-0.00842895507812499;1.30999999669257;132;1 A
19.442648950912;-0.59979248046875;-0.00841064453125;1.31999999666732;133;1 A
19.4526489508868;-0.5997314453125;-0.00843505859375;1.32999999664207;134;1 A
19.4626489508615;-0.599761962890625;-0.0084259033203125;1.33999999661683;135;1 A
19.4726489508363;-0.599700927734375;-0.00847473144531249;1.34999999659158;136;1 A
19.482648950811;-0.599822998046875;-0.00846252441406251;1.35999999656633;137;1 A
19.4926489507858;-0.59967041015625;-0.0084381103515625;1.36999999654108;138;1 A
19.5026489507605;-0.59979248046875;-0.0084564208984375;1.37999999651583;139;1 A
19.5126489507353;-0.599761962890625;-0.0084564208984375;1.38999999649059;140;1 A
19.52264895071;-0.599822998046875;-0.00848999023437499;1.39999999646534;141;1 A
19.5326489506848;-0.5997314453125;-0.00847473144531249;1.40999999644009;142;1 A
19.5426489506596;-0.599761962890625;-0.0084869384765625;1.41999999641484;143;1 A
19.5526489506343;-0.599761962890625;-0.0084991455078125;1.4299999963896;144;1 A
19.5626489506091;-0.5997314453125;-0.00852050781249999;1.43999999636435;145;1 A
19.5726489505838;-0.5997314453125;-0.00853881835937501;1.4499999963391;146;1 A
19.5826489505586;-0.59979248046875;-0.0084869384765625;1.45999999631385;147;1 A
19.5926489505333;-0.599761962890625;-0.00848388671875;1.46999999628861;148;1 A
19.6026489505081;-0.599822998046875;-0.0084808349609375;1.47999999626336;149;1 A
19.6126489504828;-0.599761962890625;-0.008465576171875;1.48999999623811;150;1 A
19.6226489504576;-0.59979248046875;-0.0084686279296875;1.49999999621286;151;1 A
19.6326489504323;-0.599822998046875;-0.00841674804687501;1.50999999618762;152;1 A
19.6426489504071;-0.599761962890625;-0.0083892822265625;1.51999999616237;153;1 A
19.6526489503818;-0.599761962890625;-0.0083953857421875;1.52999999613712;154;1 A
19.6626489503566;-0.599822998046875;-0.0083953857421875;1.53999999611187;155;1 A
19.6726489503313;-0.599761962890625;-0.0083740234375;1.54999999608663;156;1 A
19.6826489503061;-0.599945068359375;-0.0083465576171875;1.55999999606138;157;1 A
19.6926489502808;-0.599700927734375;-0.0083465576171875;1.56999999603613;158;1 A
19.7026489502556;-0.599761962890625;-0.008343505859375;1.57999999601088;159;1 A
19.7126489502303;-0.5997314453125;-0.0083648681640625;1.58999999598564;160;1 A
19.7226489502051;-0.599761962890625;-0.00836181640625;1.59999999596039;161;1 A
19.7326489501799;-0.599700927734375;-0.008331298828125;1.60999999593514;162;1 A
19.7426489501546;-0.599761962890625;-0.00833740234374999;1.61999999590989;163;1 A
19.7526489501294;-0.5997314453125;-0.00834045410156251;1.62999999588465;164;1 A
19.7626489501041;-0.59979248046875;-0.00833740234374999;1.6399999958594;165;1 A
19.7726489500789;-0.59979248046875;-0.0083160400390625;1.64999999583415;166;1 A
19.7826489500536;-0.599822998046875;-0.0083038330078125;1.6599999958089;167;1 A
19.7926489500284;-0.5997314453125;-0.00830078125;1.66999999578366;168;1 A
19.8026489500031;-0.599761962890625;-0.008331298828125;1.67999999575841;169;1 A
19.8126489499779;-0.599700927734375;-0.00831298828125;1.68999999573316;170;1 A
19.8226489499526;-0.5997314453125;-0.008282470703125;1.69999999570791;171;1 A
19.8326489499274;-0.599700927734375;-0.0082855224609375;1.70999999568267;172;1 A
19.8426489499021;-0.599822998046875;-0.0082855224609375;1.71999999565742;173;1 A
19.8526489498769;-0.5997314453125;-0.00831298828125;1.72999999563217;174;1 A
19.8626489498516;-0.599761962890625;-0.00831298828125;1.73999999560692;175;1 A
19.8726489498264;-0.5997314453125;-0.0082977294921875;1.74999999558167;176;1 A
19.8826489498011;-0.599761962890625;-0.00827636718749999;1.75999999555643;177;1 A
19.8926489497759;-0.5997314453125;-0.0082855224609375;1.76999999553118;178;1 A
19.9026489497506;-0.59979248046875;-0.00830688476562499;1.77999999550593;179;1 A
19.9126489497254;-0.599700927734375;-0.0082733154296875;1.78999999548068;180;1 A
19.9226489497001;-0.599945068359375;-0.00826416015625001;1.79999999545544;181;1 A
19.9326489496749;-0.59967041015625;-0.0082550048828125;1.80999999543019;182;1 A
19.9426489496497;-0.599761962890625;-0.008258056640625;1.81999999540494;183;1 A
19.9526489496244;-0.5997314453125;-0.00827941894531251;1.82999999537969;184;1 A
19.9626489495992;-0.599761962890625;-0.0082427978515625;1.83999999535445;185;1 A
19.9726489495739;-0.599700927734375;-0.00823059082031249;1.8499999953292;186;1 A
19.9826489495487;-0.599822998046875;-0.00823974609375;1.85999999530395;187;1 A
19.9926489495234;-0.5997314453125;-0.00826416015625001;1.8699999952787;188;1 A
20.0026489494982;-0.599822998046875;-0.008282470703125;1.87999999525346;189;1 A
20.0126489494729;-0.599761962890625;-0.008251953125;1.88999999522821;190;1 A
20.0226489494477;-0.59979248046875;-0.008251953125;1.89999999520296;191;1 A
20.0326489494224;-0.59979248046875;-0.0082366943359375;1.90999999517771;192;1 A
20.0426489493972;-0.5997314453125;-0.00824890136718751;1.91999999515247;193;1 A
20.0526489493719;-0.59967041015625;-0.0082427978515625;1.92999999512722;194;1 A
20.0626489493467;-0.5997314453125;-0.00820007324218749;1.93999999510197;195;1 A
20.0726489493214;-0.599761962890625;-0.00823974609375;1.94999999507672;196;1 A
20.0826489492962;-0.5997314453125;-0.0082550048828125;1.95999999505148;197;1 A
20.0926489492709;-0.5997314453125;-0.00828857421875;1.96999999502623;198;1 A
20.1026489492457;-0.599761962890625;-0.00831298828125;1.97999999500098;199;1 A
20.1126489492204;-0.599761962890625;-0.00826416015625001;1.98999999497573;200;1 A
20.1226489491952;-0.5997314453125;-0.00826110839843749;1.99999999495049;201;1 A
20.1326489491699;-0.5997314453125;-0.00824890136718751;2.00999999492524;202;1 A
20.1426489491447;-0.5997314453125;-0.00823059082031249;2.01999999489999;203;1 A
20.1526489491195;-0.59967041015625;-0.00818786621093751;2.02999999487474;204;1 A
20.1626489490942;-0.59991455078125;-0.0081329345703125;2.0399999948495;205;1 A
20.172648949069;-0.599700927734375;-0.00813903808593749;2.04999999482425;206;1 A
20.1826489490437;-0.599761962890625;-0.00811767578125;2.059999994799;207;1 A
20.1926489490185;-0.599700927734375;-0.00813903808593749;2.06999999477375;208;1 A
20.2026489489932;-0.599700927734375;-0.0081298828125;2.0799999947485;209;1 A
20.212648948968;-0.5997314453125;-0.0081207275390625;2.08999999472326;210;1 A
20.2226489489427;-0.599761962890625;-0.0081512451171875;2.09999999469801;211;1 A
20.2326489489175;-0.59979248046875;-0.0081451416015625;2.10999999467276;212;1 A
20.2426489488922;-0.599761962890625;-0.00816955566406249;2.11999999464751;213;1 A
20.252648948867;-0.599761962890625;-0.00817260742187501;2.12999999462227;214;1 A
20.2626489488417;-0.59979248046875;-0.00817260742187501;2.13999999459702;215;1 A
20.2726489488165;-0.599761962890625;-0.0082061767578125;2.14999999457177;216;1 A
20.2826489487912;-0.599700927734375;-0.0082427978515625;2.15999999454652;217;1 A
20.292648948766;-0.5997314453125;-0.008251953125;2.16999999452128;218;1 A
20.3026489487407;-0.599761962890625;-0.0082366943359375;2.17999999449603;219;1 A
20.3126489487155;-0.599761962890625;-0.00824584960937499;2.18999999447078;220;1 A
20.3226489486902;-0.599700927734375;-0.0082550048828125;2.19999999444553;221;1 A
20.332648948665;-0.599700927734375;-0.008258056640625;2.20999999442029;222;1 A
20.3426489486397;-0.599822998046875;-0.00826110839843749;2.21999999439504;223;1 A
20.3526489486145;-0.599761962890625;-0.00821533203124999;2.22999999436979;224;1 A
20.3626489485893;-0.599761962890625;-0.00819091796875;2.23999999434454;225;1 A
20.372648948564;-0.59979248046875;-0.0082061767578125;2.2499999943193;226;1 A
20.3826489485388;-0.59979248046875;-0.0081939697265625;2.25999999429405;227;1 A
20.3926489485135;-0.599761962890625;-0.00818481445312499;2.2699999942688;228;1 A
20.4026489484883;-0.599884033203125;-0.0081756591796875;2.27999999424355;229;1 A
20.412648948463;-0.5997314453125;-0.00816955566406249;2.28999999421831;230;1 A
20.4226489484378;-0.59979248046875;-0.0081756591796875;2.29999999419306;231;1 A
20.4326489484125;-0.599761962890625;-0.0081756591796875;2.30999999416781;232;1 A
20.4426489483873;-0.599700927734375;-0.0081298828125;2.31999999414256;233;1 A
20.452648948362;-0.5997314453125;-0.0081146240234375;2.32999999411732;234;1 A
20.4626489483368;-0.599761962890625;-0.00811157226562501;2.33999999409207;235;1 A
20.4726489483115;-0.599761962890625;-0.00811157226562501;2.34999999406682;236;1 A
20.4826489482863;-0.5997314453125;-0.0081298828125;2.35999999404157;237;1 A
20.492648948261;-0.59979248046875;-0.00810852050781249;2.36999999401633;238;1 A
20.5026489482358;-0.59979248046875;-0.00809631347656251;2.37999999399108;239;1 A
20.5126489482105;-0.599761962890625;-0.0080841064453125;2.38999999396583;240;1 A
20.5226489481853;-0.599761962890625;-0.0081207275390625;2.39999999394058;241;1 A
20.53264894816;-0.599700927734375;-0.00811157226562501;2.40999999391533;242;1 A
20.5426489481348;-0.599700927734375;-0.00810852050781249;2.41999999389009;243;1 A
20.5526489481095;-0.5997314453125;-0.0081329345703125;2.42999999386484;244;1 A
20.5626489480843;-0.5997314453125;-0.008135986328125;2.43999999383959;245;1 A
20.5726489480591;-0.599761962890625;-0.00819091796875;2.44999999381434;246;1 A
20.5826489480338;-0.59979248046875;-0.00821533203124999;2.4599999937891;247;1 A
20.5926489480086;-0.599822998046875;-0.00820007324218749;2.46999999376385;248;1 A
20.6026489479833;-0.599761962890625;-0.00823059082031249;2.4799999937386;249;1 A
20.6126489479581;-0.59979248046875;-0.00826110839843749;2.48999999371335;250;1 A
20.6226489479328;-0.599822998046875;-0.00829467773437501;2.49999999368811;251;1 A
20.6326489479076;-0.599761962890625;-0.008282470703125;2.50999999366286;252;1 A
20.6426489478823;-0.599853515625;-0.008282470703125;2.51999999363761;253;1 A
20.6526489478571;-0.599761962890625;-0.00827941894531251;2.52999999361236;254;1 A
20.6626489478318;-0.599761962890625;-0.00827636718749999;2.53999999358712;255;1 A
20.6726489478066;-0.5997314453125;-0.008282470703125;2.54999999356187;256;1 A
20.6826489477813;-0.5997314453125;-0.0082733154296875;2.55999999353662;257;1 A
20.6926489477561;-0.59979248046875;-0.008282470703125;2.56999999351137;258;1 A
20.7026489477308;-0.599700927734375;-0.008319091796875;2.57999999348613;259;1 A
20.7126489477056;-0.599761962890625;-0.0083343505859375;2.58999999346088;260;1 A
20.7226489476803;-0.599761962890625;-0.0083892822265625;2.59999999343563;261;1 A
20.7326489476551;-0.599700927734375;-0.0083648681640625;2.60999999341038;262;1 A
20.7426489476298;-0.59979248046875;-0.0083587646484375;2.61999999338514;263;1 A
20.7526489476046;-0.59979248046875;-0.0083892822265625;2.62999999335989;264;1 A
20.7626489475794;-0.5997314453125;-0.00841674804687501;2.63999999333464;265;1 A
20.7726489475541;-0.599700927734375;-0.008441162109375;2.64999999330939;266;1 A
20.7826489475289;-0.59979248046875;-0.0084197998046875;2.65999999328415;267;1 A
20.7926489475036;-0.599761962890625;-0.00844421386718749;2.6699999932589;268;1 A
20.8026489474784;-0.5997314453125;-0.008453369140625;2.67999999323365;269;1 A
20.8126489474531;-0.5997314453125;-0.00847778320312501;2.6899999932084;270;1 A
20.8226489474279;-0.5997314453125;-0.00848999023437499;2.69999999318316;271;1 A
20.8326489474026;-0.599700927734375;-0.00844726562500001;2.70999999315791;272;1 A
20.8426489473774;-0.59979248046875;-0.0084503173828125;2.71999999313266;273;1 A
20.8526489473521;-0.599761962890625;-0.008465576171875;2.72999999310741;274;1 A
20.8626489473269;-0.59979248046875;-0.00847473144531249;2.73999999308217;275;1 A
20.8726489473016;-0.599761962890625;-0.0084808349609375;2.74999999305692;276;1 A
20.8826489472764;-0.599853515625;-0.00845947265624999;2.75999999303167;277;1 A
20.8926489472511;-0.59979248046875;-0.0084686279296875;2.76999999300642;278;1 A
20.9026489472259;-0.599700927734375;-0.0084869384765625;2.77999999298117;279;1 A
20.9126489472006;-0.59979248046875;-0.00849304199218751;2.78999999295593;280;1 A
20.9226489471754;-0.5997314453125;-0.008465576171875;2.79999999293068;281;1 A
20.9326489471501;-0.599700927734375;-0.008441162109375;2.80999999290543;282;1 A
20.9426489471249;-0.599700927734375;-0.008441162109375;2.81999999288018;283;1 A
20.9526489470996;-0.599700927734375;-0.00843505859375;2.82999999285494;284;1 A
20.9626489470744;-0.599761962890625;-0.0084503173828125;2.83999999282969;285;1 A
20.9726489470492;-0.59979248046875;-0.0084197998046875;2.84999999280444;286;1 A
20.9826489470239;-0.599822998046875;-0.008392333984375;2.85999999277919;287;1 A
20.9926489469987;-0.59979248046875;-0.00840148925781251;2.86999999275395;288;1 A
21.0026489469734;-0.5997314453125;-0.00841674804687501;2.8799999927287;289;1 A
21.0126489469482;-0.59979248046875;-0.008404541015625;2.88999999270345;290;1 A
21.0226489469229;-0.5997314453125;-0.00840148925781251;2.8999999926782;291;1 A
21.0326489468977;-0.599700927734375;-0.008380126953125;2.90999999265296;292;1 A
21.0426489468724;-0.599700927734375;-0.0083648681640625;2.91999999262771;293;1 A
21.0526489468472;-0.5997314453125;-0.00836791992187499;2.92999999260246;294;1 A
21.0626489468219;-0.599761962890625;-0.0083465576171875;2.93999999257721;295;1 A
21.0726489467967;-0.5997314453125;-0.008319091796875;2.94999999255197;296;1 A
21.0826489467714;-0.599761962890625;-0.00829467773437501;2.95999999252672;297;1 A
21.0926489467462;-0.59979248046875;-0.0083038330078125;2.96999999250147;298;1 A
21.1026489467209;-0.5997314453125;-0.00833740234374999;2.97999999247622;299;1 A
21.1126489466957;-0.599761962890625;-0.008343505859375;2.98999999245098;300;1 A
21.1226489466704;-0.599853515625;-0.00834045410156251;2.99999999242573;301;1 A
21.1326489466452;-0.59979248046875;-0.0083282470703125;3.00999999240048;302;1 A
21.1426489466199;-0.599761962890625;-0.0083465576171875;3.01999999237523;303;1 A
21.1526489465947;-0.599761962890625;-0.00836181640625;3.02999999234999;304;1 A
21.1626489465694;-0.5997314453125;-0.00832519531250001;3.03999999232474;305;1 A
21.1726489465442;-0.599761962890625;-0.00831298828125;3.04999999229949;306;1 A
21.182648946519;-0.5997314453125;-0.00828857421875;3.05999999227424;307;1 A
21.1926489464937;-0.59979248046875;-0.00829467773437501;3.069999992249;308;1 A
21.2026489464685;-0.599761962890625;-0.00833740234374999;3.07999999222375;309;1 A
21.2126489464432;-0.599761962890625;-0.0083160400390625;3.0899999921985;310;1 A
21.222648946418;-0.59979248046875;-0.00834045410156251;3.09999999217325;311;1 A
21.2326489463927;-0.599761962890625;-0.00836181640625;3.109999992148;312;1 A
21.2426489463675;-0.599761962890625;-0.008392333984375;3.11999999212276;313;1 A
21.2526489463422;-0.5997314453125;-0.0084075927734375;3.12999999209751;314;1 A
21.262648946317;-0.599761962890625;-0.0083953857421875;3.13999999207226;315;1 A
21.2726489462917;-0.5997314453125;-0.008404541015625;3.14999999204701;316;1 A
21.2826489462665;-0.599700927734375;-0.00839843749999999;3.15999999202177;317;1 A
21.2926489462412;-0.5997314453125;-0.008441162109375;3.16999999199652;318;1 A
21.302648946216;-0.599700927734375;-0.008441162109375;3.17999999197127;319;1 A
21.3126489461907;-0.599761962890625;-0.0084075927734375;3.18999999194602;320;1 A
21.3226489461655;-0.59979248046875;-0.00842895507812499;3.19999999192078;321;1 A
21.3326489461402;-0.599761962890625;-0.00842895507812499;3.20999999189553;322;1 A
21.342648946115;-0.599761962890625;-0.00846252441406251;3.21999999187028;323;1 A
21.3526489460897;-0.59979248046875;-0.0084808349609375;3.22999999184503;324;1 A
21.3626489460645;-0.599853515625;-0.00846252441406251;3.23999999181979;325;1 A
21.3726489460392;-0.599761962890625;-0.0084869384765625;3.24999999179454;326;1 A
21.382648946014;-0.599761962890625;-0.0084869384765625;3.25999999176929;327;1 A
21.3926489459888;-0.59979248046875;-0.0085113525390625;3.26999999174404;328;1 A
21.4026489459635;-0.599700927734375;-0.008502197265625;3.2799999917188;329;1 A
21.4126489459383;-0.59967041015625;-0.00849609375;3.28999999169355;330;1 A
21.422648945913;-0.5997314453125;-0.0085174560546875;3.2999999916683;331;1 A
21.4326489458878;-0.599761962890625;-0.0085174560546875;3.30999999164305;332;1 A
21.4426489458625;-0.5997314453125;-0.00856628417968749;3.31999999161781;333;1 A
21.4526489458373;-0.599761962890625;-0.00855712890625;3.32999999159256;334;1 A
21.462648945812;-0.599761962890625;-0.00856628417968749;3.33999999156731;335;1 A
21.4726489457868;-0.59979248046875;-0.0086090087890625;3.34999999154206;336;1 A
21.4826489457615;-0.599822998046875;-0.0086334228515625;3.35999999151682;337;1 A
21.4926489457363;-0.599853515625;-0.0086639404296875;3.36999999149157;338;1 A
21.502648945711;-0.599761962890625;-0.00866088867187501;3.37999999146632;339;1 A
21.5126489456858;-0.59979248046875;-0.00865783691406249;3.38999999144107;340;1 A
21.5226489456605;-0.5997314453125;-0.0086669921875;3.39999999141583;341;1 A
21.5326489456353;-0.59979248046875;-0.0086669921875;3.40999999139058;342;1 A
21.54264894561;-0.599700927734375;-0.00864562988281251;3.41999999136533;343;1 A
21.5526489455848;-0.5997314453125;-0.00859985351562501;3.42999999134008;344;1 A
21.5626489455595;-0.599700927734375;-0.0085784912109375;3.43999999131483;345;1 A
21.5726489455343;-0.599761962890625;-0.00858154296874999;3.44999999128959;346;1 A
21.582648945509;-0.59979248046875;-0.00858459472656251;3.45999999126434;347;1 A
21.5926489454838;-0.599822998046875;-0.00858154296874999;3.46999999123909;348;1 A
21.6026489454586;-0.599853515625;-0.0085601806640625;3.47999999121384;349;1 A
21.6126489454333;-0.599761962890625;-0.0085601806640625;3.4899999911886;350;1 A
21.6226489454081;-0.5997314453125;-0.0085784912109375;3.49999999116335;351;1 A
21.6326489453828;-0.5997314453125;-0.0085784912109375;3.5099999911381;352;1 A
21.6426489453576;-0.599700927734375;-0.0085601806640625;3.51999999111285;353;1 A
21.6526489453323;-0.5997314453125;-0.00853271484375;3.52999999108761;354;1 A
21.6626489453071;-0.5997314453125;-0.00850830078125001;3.53999999106236;355;1 A
21.6726489452818;-0.599761962890625;-0.00850524902343749;3.54999999103711;356;1 A
21.6826489452566;-0.599761962890625;-0.00849609375;3.55999999101186;357;1 A
21.6926489452313;-0.5997314453125;-0.0084381103515625;3.56999999098662;358;1 A
21.7026489452061;-0.5997314453125;-0.00841369628906249;3.57999999096137;359;1 A
21.7126489451808;-0.59979248046875;-0.0083953857421875;3.58999999093612;360;1 A
21.7226489451556;-0.599761962890625;-0.00839843749999999;3.59999999091087;361;1 A
21.7326489451303;-0.599761962890625;-0.00838317871093749;3.60999999088563;362;1 A
21.7426489451051;-0.5997314453125;-0.00835571289062501;3.61999999086038;363;1 A
21.7526489450798;-0.599822998046875;-0.0083465576171875;3.62999999083513;364;1 A
21.7626489450546;-0.599700927734375;-0.00834045410156251;3.63999999080988;365;1 A
21.7726489450293;-0.5997314453125;-0.00836791992187499;3.64999999078464;366;1 A
21.7826489450041;-0.599700927734375;-0.0083343505859375;3.65999999075939;367;1 A
21.7926489449789;-0.59979248046875;-0.008319091796875;3.66999999073414;368;1 A
21.8026489449536;-0.5997314453125;-0.0083343505859375;3.67999999070889;369;1 A
21.8126489449284;-0.599761962890625;-0.00836181640625;3.68999999068365;370;1 A
21.8226489449031;-0.599761962890625;-0.00842895507812499;3.6999999906584;371;1 A
21.8326489448779;-0.599761962890625;-0.0084381103515625;3.70999999063315;372;1 A
21.8426489448526;-0.599822998046875;-0.00843200683593751;3.7199999906079;373;1 A
21.8526489448274;-0.599761962890625;-0.00844421386718749;3.72999999058266;374;1 A
21.8626489448021;-0.599761962890625;-0.008453369140625;3.73999999055741;375;1 A
21.8726489447769;-0.599853515625;-0.00848388671875;3.74999999053216;376;1 A
21.8826489447516;-0.599761962890625;-0.008465576171875;3.75999999050691;377;1 A
21.8926489447264;-0.59979248046875;-0.008465576171875;3.76999999048167;378;1 A
21.9026489447011;-0.599700927734375;-0.00846252441406251;3.77999999045642;379;1 A
21.9126489446759;-0.5997314453125;-0.00846252441406251;3.78999999043117;380;1 A
21.9226489446506;-0.599700927734375;-0.00847473144531249;3.79999999040592;381;1 A
21.9326489446254;-0.599761962890625;-0.008404541015625;3.80999999038067;382;1 A
21.9426489446001;-0.5997314453125;-0.00839843749999999;3.81999999035543;383;1 A
21.9526489445749;-0.59979248046875;-0.008404541015625;3.82999999033018;384;1 A
21.9626489445496;-0.59979248046875;-0.00840148925781251;3.83999999030493;385;1 A
21.9726489445244;-0.599822998046875;-0.0084259033203125;3.84999999027968;386;1 A
21.9826489444991;-0.599700927734375;-0.0083770751953125;3.85999999025444;387;1 A
21.9926489444739;-0.5997314453125;-0.00836791992187499;3.86999999022919;388;1 A
22.0026489444487;-0.5997314453125;-0.0083740234375;3.87999999020394;389;1 A
22.0126489444234;-0.59979248046875;-0.008380126953125;3.88999999017869;390;1 A
22.0226489443982;-0.5997314453125;-0.0083740234375;3.89999999015345;391;1 A
22.0326489443729;-0.5997314453125;-0.00834045410156251;3.9099999901282;392;1 A
22.0426489443477;-0.599761962890625;-0.0083465576171875;3.91999999010295;393;1 A
22.0526489443224;-0.59979248046875;-0.0083587646484375;3.9299999900777;394;1 A
22.0626489442972;-0.5997314453125;-0.00838623046875001;3.93999999005246;395;1 A
22.0726489442719;-0.59979248046875;-0.0083892822265625;3.94999999002721;396;1 A
22.0826489442467;-0.59979248046875;-0.0083465576171875;3.95999999000196;397;1 A
22.0926489442214;-0.5997314453125;-0.00835266113281249;3.96999998997671;398;1 A
22.1026489441962;-0.5997314453125;-0.00836181640625;3.97999998995147;399;1 A
22.1126489441709;-0.599700927734375;-0.0083648681640625;3.98999998992622;400;1 A
22.1226489441457;-0.599761962890625;-0.008349609375;3.99999998990097;401;1 A
22.1326489441204;-0.59979248046875;-0.00832519531250001;4.00999998987572;402;1 A
22.1426489440952;-0.5997314453125;-0.008319091796875;4.01999998985048;403;1 A
22.1526489440699;-0.599761962890625;-0.0083465576171875;4.02999998982523;404;1 A
22.1626489440447;-0.599700927734375;-0.00837097167968751;4.03999998979998;405;1 A
22.1726489440194;-0.5997314453125;-0.0083648681640625;4.04999998977473;406;1 A
22.1826489439942;-0.599700927734375;-0.0083953857421875;4.05999998974949;407;1 A
22.1926489439689;-0.599761962890625;-0.00844726562500001;4.06999998972424;408;1 A
22.2026489439437;-0.599761962890625;-0.0084991455078125;4.07999998969899;409;1 A
22.2126489439185;-0.59979248046875;-0.00853881835937501;4.08999998967374;410;1 A
22.2226489438932;-0.599761962890625;-0.00852355957031251;4.0999999896485;411;1 A
22.232648943868;-0.59979248046875;-0.0085113525390625;4.10999998962325;412;1 A
22.2426489438427;-0.5997314453125;-0.0085174560546875;4.119999989598;413;1 A
22.2526489438175;-0.599761962890625;-0.008514404296875;4.12999998957275;414;1 A
22.2626489437922;-0.59967041015625;-0.0084808349609375;4.1399999895475;415;1 A
22.272648943767;-0.599761962890625;-0.00843505859375;4.14999998952226;416;1 A
22.2826489437417;-0.599700927734375;-0.0083953857421875;4.15999998949701;417;1 A
22.2926489437165;-0.599761962890625;-0.00838623046875001;4.16999998947176;418;1 A
22.3026489436912;-0.59979248046875;-0.0083953857421875;4.17999998944651;419;1 A
22.312648943666;-0.599822998046875;-0.008349609375;4.18999998942127;420;1 A
22.3226489436407;-0.59979248046875;-0.0083160400390625;4.19999998939602;421;1 A
22.3326489436155;-0.59979248046875;-0.00830688476562499;4.20999998937077;422;1 A
22.3426489435902;-0.5997314453125;-0.0083282470703125;4.21999998934552;423;1 A
22.352648943565;-0.59979248046875;-0.00836791992187499;4.22999998932028;424;1 A
22.3626489435397;-0.5997314453125;-0.008380126953125;4.23999998929503;425;1 A
22.3726489435145;-0.5997314453125;-0.0083953857421875;4.24999998926978;426;1 A
22.3826489434892;-0.59967041015625;-0.0083892822265625;4.25999998924453;427;1 A
22.392648943464;-0.59979248046875;-0.0084197998046875;4.26999998921929;428;1 A
22.4026489434387;-0.599700927734375;-0.00844726562500001;4.27999998919404;429;1 A
22.4126489434135;-0.599700927734375;-0.00841369628906249;4.28999998916879;430;1 A
22.4226489433883;-0.599700927734375;-0.00842895507812499;4.29999998914354;431;1 A
22.432648943363;-0.599822998046875;-0.00843505859375;4.3099999891183;432;1 A
22.4426489433378;-0.59979248046875;-0.00845947265624999;4.31999998909305;433;1 A
22.4526489433125;-0.599761962890625;-0.00848388671875;4.3299999890678;434;1 A
22.4626489432873;-0.599761962890625;-0.008453369140625;4.33999998904255;435;1 A
22.472648943262;-0.599822998046875;-0.008465576171875;4.34999998901731;436;1 A
22.4826489432368;-0.5997314453125;-0.00847778320312501;4.35999998899206;437;1 A
22.4926489432115;-0.599761962890625;-0.00849609375;4.36999998896681;438;1 A
22.5026489431863;-0.5997314453125;-0.00848388671875;4.37999998894156;439;1 A
22.512648943161;-0.599700927734375;-0.0084503173828125;4.38999998891632;440;1 A
22.5226489431358;-0.59967041015625;-0.0084259033203125;4.39999998889107;441;1 A
22.5326489431105;-0.599853515625;-0.0084197998046875;4.40999998886582;442;1 A
22.5426489430853;-0.5997314453125;-0.0084564208984375;4.41999998884057;443;1 A
22.55264894306;-0.599761962890625;-0.00844726562500001;4.42999998881533;444;1 A
22.5626489430348;-0.5997314453125;-0.008441162109375;4.43999998879008;445;1 A
22.5726489430095;-0.59979248046875;-0.0084716796875;4.44999998876483;446;1 A
22.5826489429843;-0.599761962890625;-0.00849304199218751;4.45999998873958;447;1 A
22.592648942959;-0.599822998046875;-0.00853576660156249;4.46999998871433;448;1 A
22.6026489429338;-0.599761962890625;-0.00852355957031251;4.47999998868909;449;1 A
22.6126489429085;-0.599853515625;-0.0084808349609375;4.48999998866384;450;1 A
22.6226489428833;-0.599700927734375;-0.0084686279296875;4.49999998863859;451;1 A
22.6326489428581;-0.599761962890625;-0.00844421386718749;4.50999998861334;452;1 A
22.6426489428328;-0.5997314453125;-0.00844726562500001;4.5199999885881;453;1 A
22.6526489428076;-0.599700927734375;-0.00841064453125;4.52999998856285;454;1 A
22.6626489427823;-0.599700927734375;-0.00839843749999999;4.5399999885376;455;1 A
22.6726489427571;-0.599822998046875;-0.00841064453125;4.54999998851235;456;1 A
22.6826489427318;-0.59979248046875;-0.0083892822265625;4.55999998848711;457;1 A
22.6926489427066;-0.599822998046875;-0.00836181640625;4.56999998846186;458;1 A
22.7026489426813;-0.599761962890625;-0.00829162597656249;4.57999998843661;459;1 A
22.7126489426561;-0.59979248046875;-0.008251953125;4.58999998841136;460;1 A
22.7226489426308;-0.5997314453125;-0.008258056640625;4.59999998838612;461;1 A
22.7326489426056;-0.599761962890625;-0.00826110839843749;4.60999998836087;462;1 A
22.7426489425803;-0.599761962890625;-0.0082672119140625;4.61999998833562;463;1 A
22.7526489425551;-0.5997314453125;-0.008270263671875;4.62999998831037;464;1 A
22.7626489425298;-0.59967041015625;-0.008258056640625;4.63999998828513;465;1 A
22.7726489425046;-0.599761962890625;-0.0082855224609375;4.64999998825988;466;1 A
22.7826489424793;-0.599700927734375;-0.0083038330078125;4.65999998823463;467;1 A
22.7926489424541;-0.599853515625;-0.00828857421875;4.66999998820938;468;1 A
22.8026489424288;-0.599761962890625;-0.008282470703125;4.67999998818414;469;1 A
22.8126489424036;-0.599761962890625;-0.008282470703125;4.68999998815889;470;1 A
22.8226489423784;-0.599761962890625;-0.00827636718749999;4.69999998813364;471;1 A
22.8326489423531;-0.59979248046875;-0.00827941894531251;4.70999998810839;472;1 A
22.8426489423279;-0.5997314453125;-0.0082550048828125;4.71999998808315;473;1 A
22.8526489423026;-0.599761962890625;-0.0082275390625;4.7299999880579;474;1 A
22.8626489422774;-0.5997314453125;-0.00821838378906251;4.73999998803265;475;1 A
22.8726489422521;-0.59979248046875;-0.00824890136718751;4.7499999880074;476;1 A
22.8826489422269;-0.5997314453125;-0.0082672119140625;4.75999998798216;477;1 A
22.8926489422016;-0.5997314453125;-0.0082550048828125;4.76999998795691;478;1 A
22.9026489421764;-0.599700927734375;-0.0082672119140625;4.77999998793166;479;1 A
22.9126489421511;-0.599853515625;-0.0082733154296875;4.78999998790641;480;1 A
22.9226489421259;-0.599761962890625;-0.00830688476562499;4.79999998788116;481;1 A
22.9326489421006;-0.599761962890625;-0.00830078125;4.80999998785592;482;1 A
22.9426489420754;-0.59979248046875;-0.008258056640625;4.81999998783067;483;1 A
22.9526489420501;-0.59979248046875;-0.0082366943359375;4.82999998780542;484;1 A
22.9626489420249;-0.599761962890625;-0.0082275390625;4.83999998778017;485;1 A
22.9726489419996;-0.599822998046875;-0.00823364257812501;4.84999998775493;486;1 A
22.9826489419744;-0.5997314453125;-0.0082244873046875;4.85999998772968;487;1 A
22.9926489419491;-0.599761962890625;-0.00820312500000001;4.86999998770443;488;1 A
23.0026489419239;-0.599700927734375;-0.0081939697265625;4.87999998767918;489;1 A
23.0126489418986;-0.59979248046875;-0.008221435546875;4.88999998765394;490;1 A
23.0226489418734;-0.59979248046875;-0.0082672119140625;4.89999998762869;491;1 A
23.0326489418482;-0.59979248046875;-0.0082427978515625;4.90999998760344;492;1 A
23.0426489418229;-0.599761962890625;-0.008258056640625;4.91999998757819;493;1 A
23.0526489417977;-0.59979248046875;-0.00827636718749999;4.92999998755295;494;1 A
23.0626489417724;-0.5997314453125;-0.0082855224609375;4.9399999875277;495;1 A
23.0726489417472;-0.599761962890625;-0.00834045410156251;4.94999998750245;496;1 A
23.0826489417219;-0.5997314453125;-0.00831298828125;4.9599999874772;497;1 A
23.0926489416967;-0.59979248046875;-0.0083160400390625;4.96999998745196;498;1 A
23.1026489416714;-0.5997314453125;-0.00832519531250001;4.97999998742671;499;1 A
23.1126489416462;-0.5997314453125;-0.00833740234374999;4.98999998740146;500;1 A
23.1226489416209;-0.5997314453125;-0.0083648681640625;4.99999998737621;501;1 A
23.1326489415957;-0.59979248046875;-0.0083282470703125;5.00999998735097;502;1 A
23.1426489415704;-0.599700927734375;-0.00833740234374999;5.01999998732572;503;1 A
23.1526489415452;-0.59979248046875;-0.008331298828125;5.02999998730047;504;1 A
23.1626489415199;-0.599761962890625;-0.00833740234374999;5.03999998727522;505;1 A
23.1726489414947;-0.599761962890625;-0.00833740234374999;5.04999998724998;506;1 A
23.1826489414694;-0.599761962890625;-0.008270263671875;5.05999998722473;507;1 A
23.1926489414442;-0.59979248046875;-0.00824890136718751;5.06999998719948;508;1 A
23.2026489414189;-0.5997314453125;-0.00821533203124999;5.07999998717423;509;1 A
23.2126489413937;-0.599761962890625;-0.00819091796875;5.08999998714899;510;1 A
23.2226489413684;-0.5997314453125;-0.0081817626953125;5.09999998712374;511;1 A
23.2326489413432;-0.59979248046875;-0.0081298828125;5.10999998709849;512;1 A
23.242648941318;-0.599639892578125;-0.0081146240234375;5.11999998707324;513;1 A
23.2526489412927;-0.599761962890625;-0.0081146240234375;5.129999987048;514;1 A
23.2626489412675;-0.599700927734375;-0.00810852050781249;5.13999998702275;515;1 A
23.2726489412422;-0.599822998046875;-0.00808105468750001;5.1499999869975;516;1 A
23.282648941217;-0.5997314453125;-0.00806579589843751;5.15999998697225;517;1 A
23.2926489411917;-0.599761962890625;-0.00807800292968749;5.169999986947;518;1 A
23.3026489411665;-0.599639892578125;-0.0080841064453125;5.17999998692176;519;1 A
23.3126489411412;-0.599761962890625;-0.00810852050781249;5.18999998689651;520;1 A
23.322648941116;-0.5997314453125;-0.00809631347656251;5.19999998687126;521;1 A
23.3326489410907;-0.5997314453125;-0.008074951171875;5.20999998684601;522;1 A
23.3426489410655;-0.599761962890625;-0.008087158203125;5.21999998682077;523;1 A
23.3526489410402;-0.5997314453125;-0.008099365234375;5.22999998679552;524;1 A
23.362648941015;-0.5997314453125;-0.00811157226562501;5.23999998677027;525;1 A
23.3726489409897;-0.599761962890625;-0.008087158203125;5.24999998674502;526;1 A
23.3826489409645;-0.599700927734375;-0.008074951171875;5.25999998671978;527;1 A
23.3926489409392;-0.5997314453125;-0.008074951171875;5.26999998669453;528;1 A
23.402648940914;-0.599609375;-0.00810546875;5.27999998666928;529;1 A
23.4126489408887;-0.59979248046875;-0.0081024169921875;5.28999998664403;530;1 A
23.4226489408635;-0.59979248046875;-0.00807800292968749;5.29999998661879;531;1 A
23.4326489408382;-0.599761962890625;-0.0080902099609375;5.30999998659354;532;1 A
23.442648940813;-0.599761962890625;-0.0081024169921875;5.31999998656829;533;1 A
23.4526489407878;-0.599761962890625;-0.0081207275390625;5.32999998654304;534;1 A
23.4626489407625;-0.599700927734375;-0.00812683105468751;5.3399999865178;535;1 A
23.4726489407373;-0.59979248046875;-0.008099365234375;5.34999998649255;536;1 A
23.482648940712;-0.599639892578125;-0.00806274414062499;5.3599999864673;537;1 A
23.4926489406868;-0.59979248046875;-0.00806579589843751;5.36999998644205;538;1 A
23.5026489406615;-0.5997314453125;-0.00807800292968749;5.37999998641681;539;1 A
23.5126489406363;-0.599822998046875;-0.0080596923828125;5.38999998639156;540;1 A
23.522648940611;-0.599700927734375;-0.00807800292968749;5.39999998636631;541;1 A
23.5326489405858;-0.59979248046875;-0.00810852050781249;5.40999998634106;542;1 A
23.5426489405605;-0.599761962890625;-0.008148193359375;5.41999998631582;543;1 A
23.5526489405353;-0.59979248046875;-0.00820312500000001;5.42999998629057;544;1 A
23.56264894051;-0.599700927734375;-0.0081939697265625;5.43999998626532;545;1 A
23.5726489404848;-0.5997314453125;-0.00820007324218749;5.44999998624007;546;1 A
23.5826489404595;-0.5997314453125;-0.0082061767578125;5.45999998621483;547;1 A
23.5926489404343;-0.599761962890625;-0.0082122802734375;5.46999998618958;548;1 A
23.602648940409;-0.5997314453125;-0.00820312500000001;5.47999998616433;549;1 A
23.6126489403838;-0.599700927734375;-0.0081634521484375;5.48999998613908;550;1 A
23.6226489403585;-0.599700927734375;-0.008148193359375;5.49999998611383;551;1 A
23.6326489403333;-0.599822998046875;-0.008135986328125;5.50999998608859;552;1 A
23.642648940308;-0.599639892578125;-0.00817260742187501;5.51999998606334;553;1 A
23.6526489402828;-0.5997314453125;-0.0081787109375;5.52999998603809;554;1 A
23.6626489402576;-0.59979248046875;-0.00815429687499999;5.53999998601284;555;1 A
23.6726489402323;-0.5997314453125;-0.00820007324218749;5.5499999859876;556;1 A
23.6826489402071;-0.599700927734375;-0.0082061767578125;5.55999998596235;557;1 A
23.6926489401818;-0.599761962890625;-0.0082366943359375;5.5699999859371;558;1 A
23.7026489401566;-0.5997314453125;-0.00823364257812501;5.57999998591185;559;1 A
23.7126489401313;-0.599761962890625;-0.00818481445312499;5.58999998588661;560;1 A
23.7226489401061;-0.599700927734375;-0.0081787109375;5.59999998586136;561;1 A
23.7326489400808;-0.599761962890625;-0.0081817626953125;5.60999998583611;562;1 A
23.7426489400556;-0.5997314453125;-0.0081787109375;5.61999998581086;563;1 A
23.7526489400303;-0.59979248046875;-0.0081329345703125;5.62999998578562;564;1 A
23.7626489400051;-0.599700927734375;-0.00809631347656251;5.63999998576037;565;1 A
23.7726489399798;-0.59979248046875;-0.00809631347656251;5.64999998573512;566;1 A
23.7826489399546;-0.5997314453125;-0.0080841064453125;5.65999998570987;567;1 A
23.7926489399293;-0.599822998046875;-0.0081024169921875;5.66999998568463;568;1 A
23.8026489399041;-0.5997314453125;-0.008056640625;5.67999998565938;569;1 A
23.8126489398788;-0.59979248046875;-0.008038330078125;5.68999998563413;570;1 A
23.8226489398536;-0.59967041015625;-0.00806884765625;5.69999998560888;571;1 A
23.8326489398283;-0.59979248046875;-0.0080718994140625;5.70999998558364;572;1 A
23.8426489398031;-0.599761962890625;-0.00811157226562501;5.71999998555839;573;1 A
23.8526489397779;-0.599761962890625;-0.0081024169921875;5.72999998553314;574;1 A
23.8626489397526;-0.59967041015625;-0.0081024169921875;5.73999998550789;575;1 A
23.8726489397274;-0.59979248046875;-0.00812683105468751;5.74999998548265;576;1 A
23.8826489397021;-0.599578857421875;-0.00813903808593749;5.7599999854574;577;1 A
23.8926489396769;-0.599700927734375;-0.008160400390625;5.76999998543215;578;1 A
23.9026489396516;-0.599822998046875;-0.00815734863281251;5.7799999854069;579;1 A
23.9126489396264;-0.59979248046875;-0.0081939697265625;5.78999998538166;580;1 A
23.9226489396011;-0.599700927734375;-0.0082061767578125;5.79999998535641;581;1 A
23.9326489395759;-0.599822998046875;-0.00823364257812501;5.80999998533116;582;1 A
23.9426489395506;-0.599700927734375;-0.00826416015625001;5.81999998530591;583;1 A
23.9526489395254;-0.5997314453125;-0.0082275390625;5.82999998528066;584;1 A
23.9626489395001;-0.599639892578125;-0.0082122802734375;5.83999998525542;585;1 A
23.9726489394749;-0.59979248046875;-0.0082244873046875;5.84999998523017;586;1 A
23.9826489394496;-0.59979248046875;-0.0082244873046875;5.85999998520492;587;1 A
23.9926489394244;-0.5997314453125;-0.0082122802734375;5.86999998517967;588;1 A
24.0026489393991;-0.599700927734375;-0.00818481445312499;5.87999998515443;589;1 A
24.0126489393739;-0.599761962890625;-0.00815429687499999;5.88999998512918;590;1 A
24.0226489393486;-0.59979248046875;-0.00815429687499999;5.89999998510393;591;1 A
24.0326489393234;-0.59979248046875;-0.00816650390625;5.90999998507868;592;1 A
24.0426489392981;-0.599761962890625;-0.008135986328125;5.91999998505344;593;1 A
24.0526489392729;-0.599822998046875;-0.00812683105468751;5.92999998502819;594;1 A
24.0626489392477;-0.59967041015625;-0.00812683105468751;5.93999998500294;595;1 A
24.0726489392224;-0.5997314453125;-0.0081298828125;5.94999998497769;596;1 A
24.0826489391972;-0.599700927734375;-0.0081512451171875;5.95999998495245;597;1 A
24.0926489391719;-0.5997314453125;-0.0081329345703125;5.9699999849272;598;1 A
24.1026489391467;-0.5997314453125;-0.0081298828125;5.97999998490195;599;1 A
24.1126489391214;-0.599761962890625;-0.008148193359375;5.9899999848767;600;1 A
24.1226489390962;-0.59954833984375;-0.0081817626953125;5.99999998485146;601;1 A
24.1326489390709;-0.59979248046875;-0.008197021484375;6.00999998482621;602;1 A
24.1426489390457;-0.59979248046875;-0.00820312500000001;6.01999998480096;603;1 A
24.1526489390204;-0.599761962890625;-0.0082244873046875;6.02999998477571;604;1 A
24.1626489389952;-0.59967041015625;-0.00823364257812501;6.03999998475047;605;1 A
24.1726489389699;-0.599761962890625;-0.00826416015625001;6.04999998472522;606;1 A
24.1826489389447;-0.599700927734375;-0.0082550048828125;6.05999998469997;607;1 A
24.1926489389194;-0.5997314453125;-0.0082275390625;6.06999998467472;608;1 A
24.2026489388942;-0.5997314453125;-0.0082366943359375;6.07999998464948;609;1 A
24.2126489388689;-0.599822998046875;-0.0082550048828125;6.08999998462423;610;1 A
24.2226489388437;-0.599700927734375;-0.00827636718749999;6.09999998459898;611;1 A
24.2326489388184;-0.599761962890625;-0.00826416015625001;6.10999998457373;612;1 A
24.2426489387932;-0.59967041015625;-0.00826416015625001;6.11999998454849;613;1 A
24.2526489387679;-0.59979248046875;-0.0082427978515625;6.12999998452324;614;1 A
24.2626489387427;-0.5997314453125;-0.0082366943359375;6.13999998449799;615;1 A
24.2726489387175;-0.599761962890625;-0.00824584960937499;6.14999998447274;616;1 A
24.2826489386922;-0.599700927734375;-0.0081817626953125;6.1599999844475;617;1 A
24.292648938667;-0.59979248046875;-0.0081787109375;6.16999998442225;618;1 A
24.3026489386417;-0.59979248046875;-0.00817260742187501;6.179999984397;619;1 A
24.3126489386165;-0.599700927734375;-0.0081756591796875;6.18999998437175;620;1 A
24.3226489385912;-0.599761962890625;-0.0082244873046875;6.1999999843465;621;1 A
24.332648938566;-0.599822998046875;-0.00818786621093751;6.20999998432126;622;1 A
24.3426489385407;-0.5997314453125;-0.0081939697265625;6.21999998429601;623;1 A
24.3526489385155;-0.59979248046875;-0.0082061767578125;6.22999998427076;624;1 A
24.3626489384902;-0.599578857421875;-0.00820007324218749;6.23999998424551;625;1 A
24.372648938465;-0.59979248046875;-0.00817260742187501;6.24999998422027;626;1 A
24.3826489384397;-0.5997314453125;-0.00810546875;6.25999998419502;627;1 A
24.3926489384145;-0.599822998046875;-0.00809326171874999;6.26999998416977;628;1 A
24.4026489383892;-0.599761962890625;-0.00807800292968749;6.27999998414452;629;1 A
24.412648938364;-0.599761962890625;-0.0080902099609375;6.28999998411928;630;1 A
24.4226489383387;-0.5997314453125;-0.00809326171874999;6.29999998409403;631;1 A
24.4326489383135;-0.59979248046875;-0.0080535888671875;6.30999998406878;632;1 A
24.4426489382882;-0.599700927734375;-0.0080841064453125;6.31999998404353;633;1 A
24.452648938263;-0.599853515625;-0.00810852050781249;6.32999998401829;634;1 A
24.4626489382377;-0.599700927734375;-0.008135986328125;6.33999998399304;635;1 A
24.4726489382125;-0.59979248046875;-0.008160400390625;6.34999998396779;636;1 A
24.4826489381873;-0.59967041015625;-0.00815734863281251;6.35999998394254;637;1 A
24.492648938162;-0.599822998046875;-0.00817260742187501;6.3699999839173;638;1 A
24.5026489381368;-0.5997314453125;-0.00818481445312499;6.37999998389205;639;1 A
24.5126489381115;-0.59979248046875;-0.00818786621093751;6.3899999838668;640;1 A
24.5226489380863;-0.599700927734375;-0.0081512451171875;6.39999998384155;641;1 A
24.532648938061;-0.599761962890625;-0.0081146240234375;6.40999998381631;642;1 A
24.5426489380358;-0.599761962890625;-0.0081146240234375;6.41999998379106;643;1 A
24.5526489380105;-0.5997314453125;-0.00810852050781249;6.42999998376581;644;1 A
24.5626489379853;-0.599761962890625;-0.00814208984375001;6.43999998374056;645;1 A
24.57264893796;-0.599761962890625;-0.0081146240234375;6.44999998371532;646;1 A
24.5826489379348;-0.5997314453125;-0.00811767578125;6.45999998369007;647;1 A
24.5926489379095;-0.599822998046875;-0.0081512451171875;6.46999998366482;648;1 A
24.6026489378843;-0.59967041015625;-0.0081634521484375;6.47999998363957;649;1 A
24.612648937859;-0.59979248046875;-0.00816650390625;6.48999998361433;650;1 A
24.6226489378338;-0.599761962890625;-0.008148193359375;6.49999998358908;651;1 A
24.6326489378085;-0.599761962890625;-0.00812377929687499;6.50999998356383;652;1 A
24.6426489377833;-0.599761962890625;-0.00810852050781249;6.51999998353858;653;1 A
24.652648937758;-0.5997314453125;-0.0081146240234375;6.52999998351333;654;1 A
24.6626489377328;-0.599761962890625;-0.008074951171875;6.53999998348809;655;1 A
24.6726489377075;-0.5997314453125;-0.00804748535156249;6.54999998346284;656;1 A
24.6826489376823;-0.5997314453125;-0.008038330078125;6.55999998343759;657;1 A
24.6926489376571;-0.59979248046875;-0.0080535888671875;6.56999998341234;658;1 A
24.7026489376318;-0.5997314453125;-0.00808105468750001;6.5799999833871;659;1 A
24.7126489376066;-0.599761962890625;-0.0080902099609375;6.58999998336185;660;1 A
24.7226489375813;-0.59967041015625;-0.0081024169921875;6.5999999833366;661;1 A
24.7326489375561;-0.599853515625;-0.00810852050781249;6.60999998331135;662;1 A
24.7426489375308;-0.599761962890625;-0.0081451416015625;6.61999998328611;663;1 A
24.7526489375056;-0.599822998046875;-0.00816650390625;6.62999998326086;664;1 A
24.7626489374803;-0.5997314453125;-0.0081451416015625;6.63999998323561;665;1 A
24.7726489374551;-0.59979248046875;-0.00815429687499999;6.64999998321036;666;1 A
24.7826489374298;-0.5997314453125;-0.00815734863281251;6.65999998318512;667;1 A
24.7926489374046;-0.5997314453125;-0.00818786621093751;6.66999998315987;668;1 A
24.8026489373793;-0.599700927734375;-0.00823364257812501;6.67999998313462;669;1 A
24.8126489373541;-0.599761962890625;-0.0082061767578125;6.68999998310937;670;1 A
24.8226489373288;-0.5997314453125;-0.0082244873046875;6.69999998308413;671;1 A
24.8326489373036;-0.599822998046875;-0.008258056640625;6.70999998305888;672;1 A
24.8426489372783;-0.599609375;-0.00830078125;6.71999998303363;673;1 A
24.8526489372531;-0.59979248046875;-0.008319091796875;6.72999998300838;674;1 A
24.8626489372278;-0.599822998046875;-0.00829467773437501;6.73999998298314;675;1 A
24.8726489372026;-0.599822998046875;-0.0082977294921875;6.74999998295789;676;1 A
24.8826489371774;-0.5997314453125;-0.008282470703125;6.75999998293264;677;1 A
24.8926489371521;-0.599761962890625;-0.0083160400390625;6.76999998290739;678;1 A
24.9026489371269;-0.5997314453125;-0.00830688476562499;6.77999998288215;679;1 A
24.9126489371016;-0.599761962890625;-0.0082855224609375;6.7899999828569;680;1 A
24.9226489370764;-0.59979248046875;-0.00830993652343751;6.79999998283165;681;1 A
24.9326489370511;-0.5997314453125;-0.0083282470703125;6.8099999828064;682;1 A
24.9426489370259;-0.59979248046875;-0.00838623046875001;6.81999998278116;683;1 A
24.9526489370006;-0.59979248046875;-0.0083892822265625;6.82999998275591;684;1 A
24.9626489369754;-0.599700927734375;-0.00836181640625;6.83999998273066;685;1 A
24.9726489369501;-0.599761962890625;-0.0083740234375;6.84999998270541;686;1 A
24.9826489369249;-0.5997314453125;-0.00838317871093749;6.85999998268016;687;1 A
24.9926489368996;-0.5997314453125;-0.0084228515625;6.86999998265492;688;1 A
25.0026489368744;-0.599700927734375;-0.0084075927734375;6.87999998262967;689;1 A
25.0126489368491;-0.599761962890625;-0.0083953857421875;6.88999998260442;690;1 A
25.0226489368239;-0.599761962890625;-0.008380126953125;6.89999998257917;691;1 A
25.0326489367986;-0.5997314453125;-0.00834045410156251;6.90999998255393;692;1 A
25.0426489367734;-0.599700927734375;-0.00835571289062501;6.91999998252868;693;1 A
25.0526489367481;-0.5997314453125;-0.0082855224609375;6.92999998250343;694;1 A
25.0626489367229;-0.599639892578125;-0.008258056640625;6.93999998247818;695;1 A
25.0726489366976;-0.599822998046875;-0.0082733154296875;6.94999998245294;696;1 A
25.0826489366724;-0.599609375;-0.0082733154296875;6.95999998242769;697;1 A
25.0926489366472;-0.599822998046875;-0.00832214355468749;6.96999998240244;698;1 A
25.1026489366219;-0.599761962890625;-0.0083160400390625;6.97999998237719;699;1 A
25.1126489365967;-0.599700927734375;-0.00830078125;6.98999998235195;700;1 A
