Time (s);WE(1).Potential (V);WE(1).Current (A);Corrected time (s);Index;Current range;Overload
30.0339649241715;-0.91278076171875;-2.31781005859375;0;1;1 A;Current overload
30.0439649241463;-0.9515380859375;-1.64794921875;0.00999999997475243;2;1 A;
30.053964924121;-0.9503173828125;-1.3140869140625;0.0199999999495049;3;1 A;
30.0639649240958;-0.950927734375;-1.13372802734375;0.0299999999242573;4;1 A;
30.0739649240705;-0.95001220703125;-1.00799560546875;0.0399999998990097;5;1 A;
30.0839649240453;-0.95001220703125;-0.91644287109375;0.0499999998737621;6;1 A;
30.09396492402;-0.94970703125;-0.85052490234375;0.0599999998485146;7;1 A;
30.1039649239948;-0.95001220703125;-0.80108642578125;0.069999999823267;8;1 A;
30.1139649239695;-0.94970703125;-0.75897216796875;0.0799999997980194;9;1 A;
30.1239649239443;-0.9490966796875;-0.72235107421875;0.0899999997727718;10;1 A;
30.1339649239191;-0.94970703125;-0.6903076171875;0.0999999997475243;11;1 A;
30.1439649238938;-0.94970703125;-0.66558837890625;0.109999999722277;12;1 A;
30.1539649238686;-0.94970703125;-0.645751953125;0.119999999697029;13;1 A;
30.1639649238433;-0.9490966796875;-0.6268310546875;0.129999999671782;14;1 A;
30.1739649238181;-0.94940185546875;-0.61126708984375;0.139999999646534;15;1 A;
30.1839649237928;-0.9490966796875;-0.595703125;0.149999999621286;16;1 A;
30.1939649237676;-0.94940185546875;-0.5828857421875;0.159999999596039;17;1 A;
30.2039649237423;-0.95001220703125;-0.572509765625;0.169999999570791;18;1 A;
30.2139649237171;-0.94970703125;-0.562744140625;0.179999999545544;19;1 A;
30.2239649236918;-0.94970703125;-0.5517578125;0.189999999520296;20;1 A;
30.2339649236666;-0.94970703125;-0.54473876953125;0.199999999495049;21;1 A;
30.2439649236413;-0.94879150390625;-0.53802490234375;0.209999999469801;22;1 A;
30.2539649236161;-0.94940185546875;-0.53314208984375;0.219999999444553;23;1 A;
30.2639649235908;-0.94970703125;-0.5291748046875;0.229999999419306;24;1 A;
30.2739649235656;-0.94940185546875;-0.5218505859375;0.239999999394058;25;1 A;
30.2839649235403;-0.94940185546875;-0.51727294921875;0.249999999368811;26;1 A;
30.2939649235151;-0.9503173828125;-0.51361083984375;0.259999999343563;27;1 A;
30.3039649234898;-0.94970703125;-0.51361083984375;0.269999999318316;28;1 A;
30.3139649234646;-0.94970703125;-0.51300048828125;0.279999999293068;29;1 A;
30.3239649234393;-0.94970703125;-0.5096435546875;0.28999999926782;30;1 A;
30.3339649234141;-0.95001220703125;-0.50689697265625;0.299999999242573;31;1 A;
30.3439649233889;-0.94970703125;-0.5029296875;0.309999999217325;32;1 A;
30.3539649233636;-0.94970703125;-0.50140380859375;0.319999999192078;33;1 A;
30.3639649233384;-0.94940185546875;-0.49896240234375;0.32999999916683;34;1 A;
30.3739649233131;-0.94970703125;-0.49371337890625;0.339999999141583;35;1 A;
30.3839649232879;-0.95001220703125;-0.492340087890625;0.349999999116335;36;1 A;
30.3939649232626;-0.94940185546875;-0.4913330078125;0.359999999091087;37;1 A;
30.4039649232374;-0.94940185546875;-0.49163818359375;0.36999999906584;38;1 A;
30.4139649232121;-0.94970703125;-0.492034912109375;0.379999999040592;39;1 A;
30.4239649231869;-0.95001220703125;-0.488525390625;0.389999999015345;40;1 A;
30.4339649231616;-0.9490966796875;-0.48583984375;0.399999998990097;41;1 A;
30.4439649231364;-0.94970703125;-0.484283447265625;0.40999999896485;42;1 A;
30.4539649231111;-0.94970703125;-0.484649658203125;0.419999998939602;43;1 A;
30.4639649230859;-0.9490966796875;-0.482269287109375;0.429999998914354;44;1 A;
30.4739649230606;-0.94970703125;-0.48077392578125;0.439999998889107;45;1 A;
30.4839649230354;-0.95001220703125;-0.478515625;0.449999998863859;46;1 A;
30.4939649230101;-0.94970703125;-0.477508544921875;0.459999998838612;47;1 A;
30.5039649229849;-0.94970703125;-0.47991943359375;0.469999998813364;48;1 A;
30.5139649229596;-0.94940185546875;-0.477294921875;0.479999998788116;49;1 A;
30.5239649229344;-0.9490966796875;-0.477508544921875;0.489999998762869;50;1 A;
30.5339649229091;-0.95001220703125;-0.4776611328125;0.499999998737621;51;1 A;
30.5439649228839;-0.95001220703125;-0.478912353515625;0.509999998712374;52;1 A;
30.5539649228587;-0.94970703125;-0.4808349609375;0.519999998687126;53;1 A;
30.5639649228334;-0.94940185546875;-0.47991943359375;0.529999998661879;54;1 A;
30.5739649228082;-0.94940185546875;-0.4796142578125;0.539999998636631;55;1 A;
30.5839649227829;-0.94970703125;-0.478790283203125;0.549999998611383;56;1 A;
30.5939649227577;-0.9503173828125;-0.480712890625;0.559999998586136;57;1 A;
30.6039649227324;-0.948486328125;-0.481597900390625;0.569999998560888;58;1 A;
30.6139649227072;-0.94940185546875;-0.479888916015625;0.579999998535641;59;1 A;
30.6239649226819;-0.94970703125;-0.480560302734375;0.589999998510393;60;1 A;
30.6339649226567;-0.94970703125;-0.47943115234375;0.599999998485146;61;1 A;
30.6439649226314;-0.94940185546875;-0.48089599609375;0.609999998459898;62;1 A;
30.6539649226062;-0.9490966796875;-0.482635498046875;0.61999999843465;63;1 A;
30.6639649225809;-0.94940185546875;-0.4803466796875;0.629999998409403;64;1 A;
30.6739649225557;-0.94970703125;-0.478973388671875;0.639999998384155;65;1 A;
30.6839649225304;-0.94970703125;-0.47857666015625;0.649999998358908;66;1 A;
30.6939649225052;-0.95001220703125;-0.4803466796875;0.65999999833366;67;1 A;
30.7039649224799;-0.94879150390625;-0.479888916015625;0.669999998308413;68;1 A;
30.7139649224547;-0.94940185546875;-0.47943115234375;0.679999998283165;69;1 A;
30.7239649224294;-0.94940185546875;-0.478485107421875;0.689999998257917;70;1 A;
30.7339649224042;-0.94970703125;-0.47869873046875;0.69999999823267;71;1 A;
30.743964922379;-0.95001220703125;-0.4815673828125;0.709999998207422;72;1 A;
30.7539649223537;-0.9490966796875;-0.479644775390625;0.719999998182175;73;1 A;
30.7639649223285;-0.94970703125;-0.4796142578125;0.729999998156927;74;1 A;
30.7739649223032;-0.95001220703125;-0.478759765625;0.73999999813168;75;1 A;
30.783964922278;-0.94970703125;-0.4796142578125;0.749999998106432;76;1 A;
30.7939649222527;-0.9503173828125;-0.481964111328125;0.759999998081184;77;1 A;
30.8039649222275;-0.94940185546875;-0.48095703125;0.769999998055937;78;1 A;
30.8139649222022;-0.94940185546875;-0.47998046875;0.779999998030689;79;1 A;
30.823964922177;-0.94940185546875;-0.4794921875;0.789999998005442;80;1 A;
30.8339649221517;-0.94940185546875;-0.48175048828125;0.799999997980194;81;1 A;
30.8439649221265;-0.9503173828125;-0.48175048828125;0.809999997954947;82;1 A;
30.8539649221012;-0.95001220703125;-0.478851318359375;0.819999997929699;83;1 A;
30.863964922076;-0.95001220703125;-0.47650146484375;0.829999997904451;84;1 A;
30.8739649220507;-0.9503173828125;-0.4732666015625;0.839999997879204;85;1 A;
30.8839649220255;-0.94970703125;-0.4742431640625;0.849999997853956;86;1 A;
30.8939649220002;-0.94970703125;-0.475372314453125;0.859999997828709;87;1 A;
30.903964921975;-0.94970703125;-0.473785400390625;0.869999997803461;88;1 A;
30.9139649219497;-0.94940185546875;-0.47369384765625;0.879999997778214;89;1 A;
30.9239649219245;-0.94940185546875;-0.474853515625;0.889999997752966;90;1 A;
30.9339649218992;-0.94970703125;-0.477813720703125;0.899999997727718;91;1 A;
30.943964921874;-0.94970703125;-0.478179931640625;0.909999997702471;92;1 A;
30.9539649218488;-0.94940185546875;-0.478363037109375;0.919999997677223;93;1 A;
30.9639649218235;-0.9490966796875;-0.476715087890625;0.929999997651976;94;1 A;
30.9739649217983;-0.94940185546875;-0.476654052734375;0.939999997626728;95;1 A;
30.983964921773;-0.9490966796875;-0.479827880859375;0.949999997601481;96;1 A;
30.9939649217478;-0.94970703125;-0.47705078125;0.959999997576233;97;1 A;
31.0039649217225;-0.94940185546875;-0.477142333984375;0.969999997550985;98;1 A;
31.0139649216973;-0.94970703125;-0.475830078125;0.979999997525738;99;1 A;
31.023964921672;-0.95001220703125;-0.47711181640625;0.98999999750049;100;1 A;
31.0339649216468;-0.94940185546875;-0.481353759765625;0.999999997475243;101;1 A;
31.0439649216215;-0.94970703125;-0.480987548828125;1.00999999745;102;1 A;
31.0539649215963;-0.94940185546875;-0.481353759765625;1.01999999742475;103;1 A;
31.063964921571;-0.95001220703125;-0.4815673828125;1.0299999973995;104;1 A;
31.0739649215458;-0.94970703125;-0.48468017578125;1.03999999737425;105;1 A;
31.0839649215205;-0.94970703125;-0.48651123046875;1.049999997349;106;1 A;
31.0939649214953;-0.94940185546875;-0.4844970703125;1.05999999732376;107;1 A;
31.10396492147;-0.9490966796875;-0.482452392578125;1.06999999729851;108;1 A;
31.1139649214448;-0.9490966796875;-0.480560302734375;1.07999999727326;109;1 A;
31.1239649214195;-0.94970703125;-0.481475830078125;1.08999999724801;110;1 A;
31.1339649213943;-0.94970703125;-0.482269287109375;1.09999999722277;111;1 A;
31.143964921369;-0.95001220703125;-0.479522705078125;1.10999999719752;112;1 A;
31.1539649213438;-0.94940185546875;-0.478302001953125;1.11999999717227;113;1 A;
31.1639649213186;-0.94940185546875;-0.478912353515625;1.12999999714702;114;1 A;
31.1739649212933;-0.94970703125;-0.480438232421875;1.13999999712178;115;1 A;
31.1839649212681;-0.94970703125;-0.4813232421875;1.14999999709653;116;1 A;
31.1939649212428;-0.95001220703125;-0.481689453125;1.15999999707128;117;1 A;
31.2039649212176;-0.94940185546875;-0.48162841796875;1.16999999704603;118;1 A;
31.2139649211923;-0.94970703125;-0.48358154296875;1.17999999702079;119;1 A;
31.2239649211671;-0.94940185546875;-0.486541748046875;1.18999999699554;120;1 A;
31.2339649211418;-0.9490966796875;-0.484283447265625;1.19999999697029;121;1 A;
31.2439649211166;-0.94940185546875;-0.4849853515625;1.20999999694504;122;1 A;
31.2539649210913;-0.94940185546875;-0.48468017578125;1.2199999969198;123;1 A;
31.2639649210661;-0.9490966796875;-0.48529052734375;1.22999999689455;124;1 A;
31.2739649210408;-0.94940185546875;-0.4876708984375;1.2399999968693;125;1 A;
31.2839649210156;-0.9490966796875;-0.484588623046875;1.24999999684405;126;1 A;
31.2939649209903;-0.94940185546875;-0.48333740234375;1.25999999681881;127;1 A;
31.3039649209651;-0.94970703125;-0.483367919921875;1.26999999679356;128;1 A;
31.3139649209398;-0.94970703125;-0.485504150390625;1.27999999676831;129;1 A;
31.3239649209146;-0.95001220703125;-0.48687744140625;1.28999999674306;130;1 A;
31.3339649208893;-0.94970703125;-0.4853515625;1.29999999671782;131;1 A;
31.3439649208641;-0.94970703125;-0.4852294921875;1.30999999669257;132;1 A;
31.3539649208388;-0.94940185546875;-0.486358642578125;1.31999999666732;133;1 A;
31.3639649208136;-0.9503173828125;-0.489410400390625;1.32999999664207;134;1 A;
31.3739649207884;-0.94970703125;-0.489715576171875;1.33999999661683;135;1 A;
31.3839649207631;-0.94940185546875;-0.4862060546875;1.34999999659158;136;1 A;
31.3939649207379;-0.9490966796875;-0.48486328125;1.35999999656633;137;1 A;
31.4039649207126;-0.9490966796875;-0.485687255859375;1.36999999654108;138;1 A;
31.4139649206874;-0.9503173828125;-0.487396240234375;1.37999999651583;139;1 A;
31.4239649206621;-0.94970703125;-0.487945556640625;1.38999999649059;140;1 A;
31.4339649206369;-0.94970703125;-0.48651123046875;1.39999999646534;141;1 A;
31.4439649206116;-0.9490966796875;-0.48480224609375;1.40999999644009;142;1 A;
31.4539649205864;-0.95001220703125;-0.486480712890625;1.41999999641484;143;1 A;
31.4639649205611;-0.94940185546875;-0.488372802734375;1.4299999963896;144;1 A;
31.4739649205359;-0.95001220703125;-0.484527587890625;1.43999999636435;145;1 A;
31.4839649205106;-0.9490966796875;-0.483367919921875;1.4499999963391;146;1 A;
31.4939649204854;-0.95001220703125;-0.4810791015625;1.45999999631385;147;1 A;
31.5039649204601;-0.95001220703125;-0.482574462890625;1.46999999628861;148;1 A;
31.5139649204349;-0.94970703125;-0.486572265625;1.47999999626336;149;1 A;
31.5239649204096;-0.95001220703125;-0.484954833984375;1.48999999623811;150;1 A;
31.5339649203844;-0.95001220703125;-0.485443115234375;1.49999999621286;151;1 A;
31.5439649203591;-0.94970703125;-0.486175537109375;1.50999999618762;152;1 A;
31.5539649203339;-0.9490966796875;-0.489349365234375;1.51999999616237;153;1 A;
31.5639649203086;-0.94970703125;-0.490570068359375;1.52999999613712;154;1 A;
31.5739649202834;-0.9490966796875;-0.48822021484375;1.53999999611187;155;1 A;
31.5839649202582;-0.95001220703125;-0.485870361328125;1.54999999608663;156;1 A;
31.5939649202329;-0.94940185546875;-0.484405517578125;1.55999999606138;157;1 A;
31.6039649202077;-0.9490966796875;-0.486785888671875;1.56999999603613;158;1 A;
31.6139649201824;-0.94970703125;-0.4866943359375;1.57999999601088;159;1 A;
31.6239649201572;-0.94970703125;-0.485443115234375;1.58999999598564;160;1 A;
31.6339649201319;-0.94940185546875;-0.48553466796875;1.59999999596039;161;1 A;
31.6439649201067;-0.94940185546875;-0.487030029296875;1.60999999593514;162;1 A;
31.6539649200814;-0.94940185546875;-0.490814208984375;1.61999999590989;163;1 A;
31.6639649200562;-0.94970703125;-0.492767333984375;1.62999999588465;164;1 A;
31.6739649200309;-0.94970703125;-0.4915771484375;1.6399999958594;165;1 A;
31.6839649200057;-0.94940185546875;-0.489776611328125;1.64999999583415;166;1 A;
31.6939649199804;-0.9490966796875;-0.490570068359375;1.6599999958089;167;1 A;
31.7039649199552;-0.95001220703125;-0.492828369140625;1.66999999578366;168;1 A;
31.7139649199299;-0.94970703125;-0.49102783203125;1.67999999575841;169;1 A;
31.7239649199047;-0.94940185546875;-0.4912109375;1.68999999573316;170;1 A;
31.7339649198794;-0.94940185546875;-0.491119384765625;1.69999999570791;171;1 A;
31.7439649198542;-0.94970703125;-0.492767333984375;1.70999999568267;172;1 A;
31.7539649198289;-0.94940185546875;-0.496124267578125;1.71999999565742;173;1 A;
31.7639649198037;-0.95001220703125;-0.493377685546875;1.72999999563217;174;1 A;
31.7739649197785;-0.94970703125;-0.49334716796875;1.73999999560692;175;1 A;
31.7839649197532;-0.94970703125;-0.494354248046875;1.74999999558167;176;1 A;
31.793964919728;-0.95001220703125;-0.495819091796875;1.75999999555643;177;1 A;
31.8039649197027;-0.94940185546875;-0.4959716796875;1.76999999553118;178;1 A;
31.8139649196775;-0.94970703125;-0.492919921875;1.77999999550593;179;1 A;
31.8239649196522;-0.94879150390625;-0.49090576171875;1.78999999548068;180;1 A;
31.833964919627;-0.95001220703125;-0.49114990234375;1.79999999545544;181;1 A;
31.8439649196017;-0.94940185546875;-0.495513916015625;1.80999999543019;182;1 A;
31.8539649195765;-0.94970703125;-0.496368408203125;1.81999999540494;183;1 A;
31.8639649195512;-0.94940185546875;-0.495086669921875;1.82999999537969;184;1 A;
31.873964919526;-0.94970703125;-0.49383544921875;1.83999999535445;185;1 A;
31.8839649195007;-0.94970703125;-0.49285888671875;1.8499999953292;186;1 A;
31.8939649194755;-0.94970703125;-0.4940185546875;1.85999999530395;187;1 A;
31.9039649194502;-0.94940185546875;-0.491912841796875;1.8699999952787;188;1 A;
31.913964919425;-0.94970703125;-0.487579345703125;1.87999999525346;189;1 A;
31.9239649193997;-0.94970703125;-0.484649658203125;1.88999999522821;190;1 A;
31.9339649193745;-0.9490966796875;-0.484954833984375;1.89999999520296;191;1 A;
31.9439649193492;-0.94970703125;-0.486083984375;1.90999999517771;192;1 A;
31.953964919324;-0.94970703125;-0.483978271484375;1.91999999515247;193;1 A;
31.9639649192987;-0.95001220703125;-0.482421875;1.92999999512722;194;1 A;
31.9739649192735;-0.94940185546875;-0.4796142578125;1.93999999510197;195;1 A;
31.9839649192483;-0.94940185546875;-0.480316162109375;1.94999999507672;196;1 A;
31.993964919223;-0.9490966796875;-0.483123779296875;1.95999999505148;197;1 A;
32.0039649191978;-0.94940185546875;-0.47998046875;1.96999999502623;198;1 A;
32.0139649191725;-0.9490966796875;-0.47967529296875;1.97999999500098;199;1 A;
32.0239649191473;-0.95001220703125;-0.479736328125;1.98999999497573;200;1 A;
32.033964919122;-0.94970703125;-0.482330322265625;1.99999999495049;201;1 A;
32.0439649190968;-0.94970703125;-0.485382080078125;2.00999999492524;202;1 A;
32.0539649190715;-0.94940185546875;-0.484832763671875;2.01999999489999;203;1 A;
32.0639649190463;-0.94970703125;-0.483917236328125;2.02999999487474;204;1 A;
32.073964919021;-0.94940185546875;-0.485015869140625;2.0399999948495;205;1 A;
32.0839649189958;-0.94970703125;-0.4896240234375;2.04999999482425;206;1 A;
32.0939649189705;-0.94970703125;-0.490509033203125;2.059999994799;207;1 A;
32.1039649189453;-0.94970703125;-0.49053955078125;2.06999999477375;208;1 A;
32.11396491892;-0.94940185546875;-0.49072265625;2.0799999947485;209;1 A;
32.1239649188948;-0.9490966796875;-0.492706298828125;2.08999999472326;210;1 A;
32.1339649188695;-0.94940185546875;-0.49652099609375;2.09999999469801;211;1 A;
32.1439649188443;-0.94970703125;-0.49603271484375;2.10999999467276;212;1 A;
32.153964918819;-0.94940185546875;-0.493743896484375;2.11999999464751;213;1 A;
32.1639649187938;-0.9490966796875;-0.491485595703125;2.12999999462227;214;1 A;
32.1739649187685;-0.94970703125;-0.491912841796875;2.13999999459702;215;1 A;
32.1839649187433;-0.95001220703125;-0.492095947265625;2.14999999457177;216;1 A;
32.1939649187181;-0.95001220703125;-0.488800048828125;2.15999999454652;217;1 A;
32.2039649186928;-0.9503173828125;-0.486602783203125;2.16999999452128;218;1 A;
32.2139649186676;-0.94970703125;-0.48431396484375;2.17999999449603;219;1 A;
32.2239649186423;-0.94970703125;-0.484954833984375;2.18999999447078;220;1 A;
32.2339649186171;-0.94940185546875;-0.486297607421875;2.19999999444553;221;1 A;
32.2439649185918;-0.94940185546875;-0.48211669921875;2.20999999442029;222;1 A;
32.2539649185666;-0.9490966796875;-0.481781005859375;2.21999999439504;223;1 A;
32.2639649185413;-0.94940185546875;-0.48046875;2.22999999436979;224;1 A;
32.2739649185161;-0.94970703125;-0.480804443359375;2.23999999434454;225;1 A;
32.2839649184908;-0.94970703125;-0.48114013671875;2.2499999943193;226;1 A;
32.2939649184656;-0.94940185546875;-0.477569580078125;2.25999999429405;227;1 A;
32.3039649184403;-0.95001220703125;-0.475738525390625;2.2699999942688;228;1 A;
32.3139649184151;-0.94940185546875;-0.477081298828125;2.27999999424355;229;1 A;
32.3239649183898;-0.94970703125;-0.481231689453125;2.28999999421831;230;1 A;
32.3339649183646;-0.94970703125;-0.481109619140625;2.29999999419306;231;1 A;
32.3439649183393;-0.94970703125;-0.479156494140625;2.30999999416781;232;1 A;
32.3539649183141;-0.94940185546875;-0.476043701171875;2.31999999414256;233;1 A;
32.3639649182888;-0.94940185546875;-0.47412109375;2.32999999411732;234;1 A;
32.3739649182636;-0.9490966796875;-0.47503662109375;2.33999999409207;235;1 A;
32.3839649182383;-0.94940185546875;-0.47381591796875;2.34999999406682;236;1 A;
32.3939649182131;-0.94940185546875;-0.472900390625;2.35999999404157;237;1 A;
32.4039649181879;-0.94970703125;-0.472869873046875;2.36999999401633;238;1 A;
32.4139649181626;-0.94940185546875;-0.47552490234375;2.37999999399108;239;1 A;
32.4239649181374;-0.94940185546875;-0.477752685546875;2.38999999396583;240;1 A;
32.4339649181121;-0.94940185546875;-0.47552490234375;2.39999999394058;241;1 A;
32.4439649180869;-0.94940185546875;-0.4735107421875;2.40999999391533;242;1 A;
32.4539649180616;-0.9490966796875;-0.471649169921875;2.41999999389009;243;1 A;
32.4639649180364;-0.94970703125;-0.474029541015625;2.42999999386484;244;1 A;
32.4739649180111;-0.94940185546875;-0.47698974609375;2.43999999383959;245;1 A;
32.4839649179859;-0.94970703125;-0.475067138671875;2.44999999381434;246;1 A;
32.4939649179606;-0.94970703125;-0.47601318359375;2.4599999937891;247;1 A;
32.5039649179354;-0.95001220703125;-0.47515869140625;2.46999999376385;248;1 A;
32.5139649179101;-0.94940185546875;-0.4769287109375;2.4799999937386;249;1 A;
32.5239649178849;-0.94940185546875;-0.479949951171875;2.48999999371335;250;1 A;
32.5339649178596;-0.94970703125;-0.47796630859375;2.49999999368811;251;1 A;
32.5439649178344;-0.95001220703125;-0.477020263671875;2.50999999366286;252;1 A;
32.5539649178091;-0.94970703125;-0.4776611328125;2.51999999363761;253;1 A;
32.5639649177839;-0.94970703125;-0.480499267578125;2.52999999361236;254;1 A;
32.5739649177586;-0.94970703125;-0.48028564453125;2.53999999358712;255;1 A;
32.5839649177334;-0.94970703125;-0.478607177734375;2.54999999356187;256;1 A;
32.5939649177081;-0.94970703125;-0.476104736328125;2.55999999353662;257;1 A;
32.6039649176829;-0.95001220703125;-0.47515869140625;2.56999999351137;258;1 A;
32.6139649176577;-0.94940185546875;-0.47686767578125;2.57999999348613;259;1 A;
32.6239649176324;-0.95001220703125;-0.47381591796875;2.58999999346088;260;1 A;
32.6339649176072;-0.9490966796875;-0.470458984375;2.59999999343563;261;1 A;
32.6439649175819;-0.94970703125;-0.467681884765625;2.60999999341038;262;1 A;
32.6539649175567;-0.94940185546875;-0.46868896484375;2.61999999338514;263;1 A;
32.6639649175314;-0.94970703125;-0.4708251953125;2.62999999335989;264;1 A;
32.6739649175062;-0.95001220703125;-0.469818115234375;2.63999999333464;265;1 A;
32.6839649174809;-0.94970703125;-0.468109130859375;2.64999999330939;266;1 A;
32.6939649174557;-0.94970703125;-0.465423583984375;2.65999999328415;267;1 A;
32.7039649174304;-0.94940185546875;-0.46685791015625;2.6699999932589;268;1 A;
32.7139649174052;-0.94940185546875;-0.468353271484375;2.67999999323365;269;1 A;
32.7239649173799;-0.94970703125;-0.466033935546875;2.6899999932084;270;1 A;
32.7339649173547;-0.94970703125;-0.46600341796875;2.69999999318316;271;1 A;
32.7439649173294;-0.94940185546875;-0.464019775390625;2.70999999315791;272;1 A;
32.7539649173042;-0.94940185546875;-0.466064453125;2.71999999313266;273;1 A;
32.7639649172789;-0.94970703125;-0.46875;2.72999999310741;274;1 A;
32.7739649172537;-0.94940185546875;-0.466156005859375;2.73999999308217;275;1 A;
32.7839649172284;-0.9490966796875;-0.465362548828125;2.74999999305692;276;1 A;
32.7939649172032;-0.94970703125;-0.46514892578125;2.75999999303167;277;1 A;
32.803964917178;-0.94970703125;-0.467071533203125;2.76999999300642;278;1 A;
32.8139649171527;-0.94970703125;-0.4664306640625;2.77999999298117;279;1 A;
32.8239649171275;-0.9490966796875;-0.4649658203125;2.78999999295593;280;1 A;
32.8339649171022;-0.94940185546875;-0.4625244140625;2.79999999293068;281;1 A;
32.843964917077;-0.94970703125;-0.4619140625;2.80999999290543;282;1 A;
32.8539649170517;-0.9490966796875;-0.46484375;2.81999999288018;283;1 A;
32.8639649170265;-0.94940185546875;-0.4635009765625;2.82999999285494;284;1 A;
32.8739649170012;-0.94940185546875;-0.463165283203125;2.83999999282969;285;1 A;
32.883964916976;-0.95001220703125;-0.463104248046875;2.84999999280444;286;1 A;
32.8939649169507;-0.94940185546875;-0.463958740234375;2.85999999277919;287;1 A;
32.9039649169255;-0.94970703125;-0.465118408203125;2.86999999275395;288;1 A;
32.9139649169002;-0.94970703125;-0.462249755859375;2.8799999927287;289;1 A;
32.923964916875;-0.94970703125;-0.459991455078125;2.88999999270345;290;1 A;
32.9339649168497;-0.94940185546875;-0.4588623046875;2.8999999926782;291;1 A;
32.9439649168245;-0.94970703125;-0.4609375;2.90999999265296;292;1 A;
32.9539649167992;-0.94970703125;-0.462615966796875;2.91999999262771;293;1 A;
32.963964916774;-0.94970703125;-0.46075439453125;2.92999999260246;294;1 A;
32.9739649167487;-0.95001220703125;-0.4605712890625;2.93999999257721;295;1 A;
32.9839649167235;-0.94940185546875;-0.459716796875;2.94999999255197;296;1 A;
32.9939649166982;-0.95001220703125;-0.461944580078125;2.95999999252672;297;1 A;
33.003964916673;-0.94940185546875;-0.46484375;2.96999999250147;298;1 A;
33.0139649166478;-0.94940185546875;-0.46295166015625;2.97999999247622;299;1 A;
33.0239649166225;-0.94970703125;-0.4635009765625;2.98999999245098;300;1 A;
33.0339649165973;-0.94970703125;-0.4666748046875;2.99999999242573;301;1 A;
33.043964916572;-0.94970703125;-0.47076416015625;3.00999999240048;302;1 A;
33.0539649165468;-0.94970703125;-0.47235107421875;3.01999999237523;303;1 A;
33.0639649165215;-0.94970703125;-0.4716796875;3.02999999234999;304;1 A;
33.0739649164963;-0.94940185546875;-0.46929931640625;3.03999999232474;305;1 A;
33.083964916471;-0.94940185546875;-0.469757080078125;3.04999999229949;306;1 A;
33.0939649164458;-0.94970703125;-0.472747802734375;3.05999999227424;307;1 A;
33.1039649164205;-0.94940185546875;-0.4703369140625;3.069999992249;308;1 A;
33.1139649163953;-0.94970703125;-0.46942138671875;3.07999999222375;309;1 A;
33.12396491637;-0.94940185546875;-0.467041015625;3.0899999921985;310;1 A;
33.1339649163448;-0.94970703125;-0.468017578125;3.09999999217325;311;1 A;
33.1439649163195;-0.94970703125;-0.470489501953125;3.109999992148;312;1 A;
33.1539649162943;-0.9490966796875;-0.46826171875;3.11999999212276;313;1 A;
33.163964916269;-0.94940185546875;-0.4659423828125;3.12999999209751;314;1 A;
33.1739649162438;-0.95001220703125;-0.464385986328125;3.13999999207226;315;1 A;
33.1839649162185;-0.94970703125;-0.4676513671875;3.14999999204701;316;1 A;
33.1939649161933;-0.9503173828125;-0.47113037109375;3.15999999202177;317;1 A;
33.203964916168;-0.94940185546875;-0.471588134765625;3.16999999199652;318;1 A;
33.2139649161428;-0.94940185546875;-0.472198486328125;3.17999999197127;319;1 A;
33.2239649161176;-0.94970703125;-0.47186279296875;3.18999999194602;320;1 A;
33.2339649160923;-0.94940185546875;-0.475250244140625;3.19999999192078;321;1 A;
33.2439649160671;-0.94940185546875;-0.4771728515625;3.20999999189553;322;1 A;
33.2539649160418;-0.94940185546875;-0.473785400390625;3.21999999187028;323;1 A;
33.2639649160166;-0.94940185546875;-0.472747802734375;3.22999999184503;324;1 A;
33.2739649159913;-0.95001220703125;-0.473907470703125;3.23999999181979;325;1 A;
33.2839649159661;-0.95001220703125;-0.477447509765625;3.24999999179454;326;1 A;
33.2939649159408;-0.94970703125;-0.477752685546875;3.25999999176929;327;1 A;
33.3039649159156;-0.9490966796875;-0.4759521484375;3.26999999174404;328;1 A;
33.3139649158903;-0.95001220703125;-0.472900390625;3.2799999917188;329;1 A;
33.3239649158651;-0.94940185546875;-0.472747802734375;3.28999999169355;330;1 A;
33.3339649158398;-0.94940185546875;-0.47528076171875;3.2999999916683;331;1 A;
33.3439649158146;-0.94940185546875;-0.4730224609375;3.30999999164305;332;1 A;
33.3539649157893;-0.94940185546875;-0.473175048828125;3.31999999161781;333;1 A;
33.3639649157641;-0.94940185546875;-0.4710693359375;3.32999999159256;334;1 A;
33.3739649157388;-0.94940185546875;-0.472412109375;3.33999999156731;335;1 A;
33.3839649157136;-0.94879150390625;-0.47589111328125;3.34999999154206;336;1 A;
33.3939649156883;-0.94940185546875;-0.473907470703125;3.35999999151682;337;1 A;
33.4039649156631;-0.94940185546875;-0.472259521484375;3.36999999149157;338;1 A;
33.4139649156378;-0.94940185546875;-0.469635009765625;3.37999999146632;339;1 A;
33.4239649156126;-0.94940185546875;-0.470855712890625;3.38999999144107;340;1 A;
33.4339649155874;-0.9490966796875;-0.471771240234375;3.39999999141583;341;1 A;
33.4439649155621;-0.94970703125;-0.468994140625;3.40999999139058;342;1 A;
33.4539649155369;-0.94940185546875;-0.467376708984375;3.41999999136533;343;1 A;
33.4639649155116;-0.94970703125;-0.465606689453125;3.42999999134008;344;1 A;
33.4739649154864;-0.94970703125;-0.468719482421875;3.43999999131483;345;1 A;
33.4839649154611;-0.94940185546875;-0.47100830078125;3.44999999128959;346;1 A;
33.4939649154359;-0.94970703125;-0.468170166015625;3.45999999126434;347;1 A;
33.5039649154106;-0.95001220703125;-0.467681884765625;3.46999999123909;348;1 A;
33.5139649153854;-0.9490966796875;-0.46636962890625;3.47999999121384;349;1 A;
33.5239649153601;-0.94970703125;-0.468292236328125;3.4899999911886;350;1 A;
33.5339649153349;-0.95001220703125;-0.46893310546875;3.49999999116335;351;1 A;
33.5439649153096;-0.95001220703125;-0.466461181640625;3.5099999911381;352;1 A;
33.5539649152844;-0.95001220703125;-0.463897705078125;3.51999999111285;353;1 A;
33.5639649152591;-0.94940185546875;-0.464508056640625;3.52999999108761;354;1 A;
33.5739649152339;-0.94940185546875;-0.468841552734375;3.53999999106236;355;1 A;
33.5839649152086;-0.94940185546875;-0.468658447265625;3.54999999103711;356;1 A;
33.5939649151834;-0.94940185546875;-0.46990966796875;3.55999999101186;357;1 A;
33.6039649151581;-0.94970703125;-0.467926025390625;3.56999999098662;358;1 A;
33.6139649151329;-0.94970703125;-0.468994140625;3.57999999096137;359;1 A;
33.6239649151076;-0.94940185546875;-0.473419189453125;3.58999999093612;360;1 A;
33.6339649150824;-0.95001220703125;-0.47198486328125;3.59999999091087;361;1 A;
33.6439649150572;-0.94940185546875;-0.471160888671875;3.60999999088563;362;1 A;
33.6539649150319;-0.9503173828125;-0.469085693359375;3.61999999086038;363;1 A;
33.6639649150067;-0.94970703125;-0.4713134765625;3.62999999083513;364;1 A;
33.6739649149814;-0.94940185546875;-0.476043701171875;3.63999999080988;365;1 A;
33.6839649149562;-0.94940185546875;-0.4776611328125;3.64999999078464;366;1 A;
33.6939649149309;-0.95001220703125;-0.478240966796875;3.65999999075939;367;1 A;
33.7039649149057;-0.94940185546875;-0.478118896484375;3.66999999073414;368;1 A;
33.7139649148804;-0.9490966796875;-0.481475830078125;3.67999999070889;369;1 A;
33.7239649148552;-0.94970703125;-0.482940673828125;3.68999999068365;370;1 A;
33.7339649148299;-0.94970703125;-0.480712890625;3.6999999906584;371;1 A;
33.7439649148047;-0.9490966796875;-0.480438232421875;3.70999999063315;372;1 A;
33.7539649147794;-0.94970703125;-0.480804443359375;3.7199999906079;373;1 A;
33.7639649147542;-0.95001220703125;-0.484527587890625;3.72999999058266;374;1 A;
33.7739649147289;-0.9503173828125;-0.48687744140625;3.73999999055741;375;1 A;
33.7839649147037;-0.94940185546875;-0.48486328125;3.74999999053216;376;1 A;
33.7939649146784;-0.94940185546875;-0.4827880859375;3.75999999050691;377;1 A;
33.8039649146532;-0.94970703125;-0.482940673828125;3.76999999048167;378;1 A;
33.8139649146279;-0.94970703125;-0.484832763671875;3.77999999045642;379;1 A;
33.8239649146027;-0.9490966796875;-0.483123779296875;3.78999999043117;380;1 A;
33.8339649145775;-0.94940185546875;-0.48272705078125;3.79999999040592;381;1 A;
33.8439649145522;-0.94970703125;-0.480194091796875;3.80999999038067;382;1 A;
33.853964914527;-0.95001220703125;-0.4810791015625;3.81999999035543;383;1 A;
33.8639649145017;-0.94940185546875;-0.483428955078125;3.82999999033018;384;1 A;
33.8739649144765;-0.94940185546875;-0.479248046875;3.83999999030493;385;1 A;
33.8839649144512;-0.94970703125;-0.476898193359375;3.84999999027968;386;1 A;
33.893964914426;-0.94970703125;-0.474822998046875;3.85999999025444;387;1 A;
33.9039649144007;-0.9490966796875;-0.47662353515625;3.86999999022919;388;1 A;
33.9139649143755;-0.94970703125;-0.478424072265625;3.87999999020394;389;1 A;
33.9239649143502;-0.94940185546875;-0.476776123046875;3.88999999017869;390;1 A;
33.933964914325;-0.94940185546875;-0.474273681640625;3.89999999015345;391;1 A;
33.9439649142997;-0.94940185546875;-0.47247314453125;3.9099999901282;392;1 A;
33.9539649142745;-0.95001220703125;-0.475830078125;3.91999999010295;393;1 A;
33.9639649142492;-0.94970703125;-0.476715087890625;3.9299999900777;394;1 A;
33.973964914224;-0.94970703125;-0.4752197265625;3.93999999005246;395;1 A;
33.9839649141987;-0.94940185546875;-0.4755859375;3.94999999002721;396;1 A;
33.9939649141735;-0.9490966796875;-0.47515869140625;3.95999999000196;397;1 A;
34.0039649141482;-0.94940185546875;-0.479736328125;3.96999998997671;398;1 A;
34.013964914123;-0.9503173828125;-0.482574462890625;3.97999998995147;399;1 A;
34.0239649140977;-0.94970703125;-0.482421875;3.98999998992622;400;1 A;
34.0339649140725;-0.94970703125;-0.48193359375;3.99999998990097;401;1 A;
34.0439649140473;-0.94970703125;-0.481964111328125;4.00999998987572;402;1 A;
34.053964914022;-0.94940185546875;-0.483489990234375;4.01999998985048;403;1 A;
34.0639649139968;-0.94970703125;-0.48004150390625;4.02999998982523;404;1 A;
34.0739649139715;-0.9503173828125;-0.47821044921875;4.03999998979998;405;1 A;
34.0839649139463;-0.94970703125;-0.473876953125;4.04999998977473;406;1 A;
34.093964913921;-0.95001220703125;-0.47332763671875;4.05999998974949;407;1 A;
34.1039649138958;-0.94970703125;-0.475830078125;4.06999998972424;408;1 A;
34.1139649138705;-0.94940185546875;-0.47247314453125;4.07999998969899;409;1 A;
34.1239649138453;-0.94940185546875;-0.472808837890625;4.08999998967374;410;1 A;
34.13396491382;-0.94940185546875;-0.47186279296875;4.0999999896485;411;1 A;
34.1439649137948;-0.94970703125;-0.474609375;4.10999998962325;412;1 A;
34.1539649137695;-0.94970703125;-0.4794921875;4.119999989598;413;1 A;
34.1639649137443;-0.95001220703125;-0.478607177734375;4.12999998957275;414;1 A;
34.173964913719;-0.94970703125;-0.477294921875;4.1399999895475;415;1 A;
34.1839649136938;-0.94940185546875;-0.47760009765625;4.14999998952226;416;1 A;
34.1939649136685;-0.94970703125;-0.481781005859375;4.15999998949701;417;1 A;
34.2039649136433;-0.94940185546875;-0.483245849609375;4.16999998947176;418;1 A;
34.213964913618;-0.9490966796875;-0.481536865234375;4.17999998944651;419;1 A;
34.2239649135928;-0.94940185546875;-0.48028564453125;4.18999998942127;420;1 A;
34.2339649135675;-0.94940185546875;-0.479095458984375;4.19999998939602;421;1 A;
34.2439649135423;-0.94940185546875;-0.483642578125;4.20999998937077;422;1 A;
34.2539649135171;-0.94970703125;-0.48486328125;4.21999998934552;423;1 A;
34.2639649134918;-0.94970703125;-0.482269287109375;4.22999998932028;424;1 A;
34.2739649134666;-0.95001220703125;-0.479705810546875;4.23999998929503;425;1 A;
34.2839649134413;-0.94940185546875;-0.4798583984375;4.24999998926978;426;1 A;
34.2939649134161;-0.94970703125;-0.483856201171875;4.25999998924453;427;1 A;
34.3039649133908;-0.94940185546875;-0.484832763671875;4.26999998921929;428;1 A;
34.3139649133656;-0.94940185546875;-0.486083984375;4.27999998919404;429;1 A;
34.3239649133403;-0.94970703125;-0.48516845703125;4.28999998916879;430;1 A;
34.3339649133151;-0.95001220703125;-0.488677978515625;4.29999998914354;431;1 A;
34.3439649132898;-0.94970703125;-0.49407958984375;4.3099999891183;432;1 A;
34.3539649132646;-0.94940185546875;-0.491241455078125;4.31999998909305;433;1 A;
34.3639649132393;-0.94940185546875;-0.492431640625;4.3299999890678;434;1 A;
34.3739649132141;-0.95001220703125;-0.490509033203125;4.33999998904255;435;1 A;
34.3839649131888;-0.9490966796875;-0.49298095703125;4.34999998901731;436;1 A;
34.3939649131636;-0.95001220703125;-0.497039794921875;4.35999998899206;437;1 A;
34.4039649131383;-0.95001220703125;-0.4945068359375;4.36999998896681;438;1 A;
34.4139649131131;-0.94940185546875;-0.4927978515625;4.37999998894156;439;1 A;
34.4239649130878;-0.94940185546875;-0.49224853515625;4.38999998891632;440;1 A;
34.4339649130626;-0.94940185546875;-0.49566650390625;4.39999998889107;441;1 A;
34.4439649130373;-0.94940185546875;-0.49664306640625;4.40999998886582;442;1 A;
34.4539649130121;-0.94970703125;-0.49481201171875;4.41999998884057;443;1 A;
34.4639649129869;-0.94970703125;-0.4915771484375;4.42999998881533;444;1 A;
34.4739649129616;-0.95001220703125;-0.489898681640625;4.43999998879008;445;1 A;
34.4839649129364;-0.94940185546875;-0.49334716796875;4.44999998876483;446;1 A;
34.4939649129111;-0.94940185546875;-0.49273681640625;4.45999998873958;447;1 A;
34.5039649128859;-0.94970703125;-0.49053955078125;4.46999998871433;448;1 A;
34.5139649128606;-0.94970703125;-0.48956298828125;4.47999998868909;449;1 A;
34.5239649128354;-0.94970703125;-0.49072265625;4.48999998866384;450;1 A;
34.5339649128101;-0.94940185546875;-0.49444580078125;4.49999998863859;451;1 A;
34.5439649127849;-0.94940185546875;-0.4954833984375;4.50999998861334;452;1 A;
34.5539649127596;-0.95001220703125;-0.4971923828125;4.5199999885881;453;1 A;
34.5639649127344;-0.94970703125;-0.496856689453125;4.52999998856285;454;1 A;
34.5739649127091;-0.94970703125;-0.50018310546875;4.5399999885376;455;1 A;
34.5839649126839;-0.95001220703125;-0.50323486328125;4.54999998851235;456;1 A;
34.5939649126586;-0.94940185546875;-0.499267578125;4.55999998848711;457;1 A;
34.6039649126334;-0.94940185546875;-0.50048828125;4.56999998846186;458;1 A;
34.6139649126081;-0.94970703125;-0.49761962890625;4.57999998843661;459;1 A;
34.6239649125829;-0.94970703125;-0.50018310546875;4.58999998841136;460;1 A;
34.6339649125576;-0.9503173828125;-0.5047607421875;4.59999998838612;461;1 A;
34.6439649125324;-0.95001220703125;-0.501708984375;4.60999998836087;462;1 A;
34.6539649125071;-0.94879150390625;-0.50140380859375;4.61999998833562;463;1 A;
34.6639649124819;-0.95001220703125;-0.50018310546875;4.62999998831037;464;1 A;
34.6739649124567;-0.94970703125;-0.50262451171875;4.63999998828513;465;1 A;
34.6839649124314;-0.94940185546875;-0.50323486328125;4.64999998825988;466;1 A;
34.6939649124062;-0.95001220703125;-0.50201416015625;4.65999998823463;467;1 A;
34.7039649123809;-0.95001220703125;-0.50018310546875;4.66999998820938;468;1 A;
34.7139649123557;-0.95001220703125;-0.498077392578125;4.67999998818414;469;1 A;
34.7239649123304;-0.9490966796875;-0.50140380859375;4.68999998815889;470;1 A;
34.7339649123052;-0.94970703125;-0.49896240234375;4.69999998813364;471;1 A;
34.7439649122799;-0.94940185546875;-0.49554443359375;4.70999998810839;472;1 A;
34.7539649122547;-0.94970703125;-0.493438720703125;4.71999998808315;473;1 A;
34.7639649122294;-0.94970703125;-0.491455078125;4.7299999880579;474;1 A;
34.7739649122042;-0.94970703125;-0.493896484375;4.73999998803265;475;1 A;
34.7839649121789;-0.94970703125;-0.4925537109375;4.7499999880074;476;1 A;
34.7939649121537;-0.9503173828125;-0.49114990234375;4.75999998798216;477;1 A;
34.8039649121284;-0.94970703125;-0.48974609375;4.76999998795691;478;1 A;
34.8139649121032;-0.94940185546875;-0.490936279296875;4.77999998793166;479;1 A;
34.8239649120779;-0.94970703125;-0.4935302734375;4.78999998790641;480;1 A;
34.8339649120527;-0.94970703125;-0.49029541015625;4.79999998788116;481;1 A;
34.8439649120274;-0.94940185546875;-0.490966796875;4.80999998785592;482;1 A;
34.8539649120022;-0.9490966796875;-0.487823486328125;4.81999998783067;483;1 A;
34.863964911977;-0.95001220703125;-0.48876953125;4.82999998780542;484;1 A;
34.8739649119517;-0.94940185546875;-0.49139404296875;4.83999998778017;485;1 A;
34.8839649119265;-0.94970703125;-0.48602294921875;4.84999998775493;486;1 A;
34.8939649119012;-0.94940185546875;-0.484161376953125;4.85999998772968;487;1 A;
34.903964911876;-0.94940185546875;-0.48260498046875;4.86999998770443;488;1 A;
34.9139649118507;-0.94879150390625;-0.484222412109375;4.87999998767918;489;1 A;
34.9239649118255;-0.94940185546875;-0.48516845703125;4.88999998765394;490;1 A;
34.9339649118002;-0.94970703125;-0.4833984375;4.89999998762869;491;1 A;
34.943964911775;-0.94970703125;-0.480438232421875;4.90999998760344;492;1 A;
34.9539649117497;-0.94970703125;-0.479156494140625;4.91999998757819;493;1 A;
34.9639649117245;-0.94940185546875;-0.4827880859375;4.92999998755295;494;1 A;
34.9739649116992;-0.94970703125;-0.481353759765625;4.9399999875277;495;1 A;
34.983964911674;-0.94940185546875;-0.479949951171875;4.94999998750245;496;1 A;
34.9939649116487;-0.94940185546875;-0.477691650390625;4.9599999874772;497;1 A;
35.0039649116235;-0.94970703125;-0.476959228515625;4.96999998745196;498;1 A;
35.0139649115982;-0.94970703125;-0.482086181640625;4.97999998742671;499;1 A;
35.023964911573;-0.9490966796875;-0.48211669921875;4.98999998740146;500;1 A;
35.0339649115477;-0.94970703125;-0.481109619140625;4.99999998737621;501;1 A;
35.0439649115225;-0.94970703125;-0.4803466796875;5.00999998735097;502;1 A;
35.0539649114972;-0.94940185546875;-0.4814453125;5.01999998732572;503;1 A;
35.063964911472;-0.94970703125;-0.483642578125;5.02999998730047;504;1 A;
35.0739649114468;-0.94879150390625;-0.480072021484375;5.03999998727522;505;1 A;
35.0839649114215;-0.94970703125;-0.47991943359375;5.04999998724998;506;1 A;
35.0939649113963;-0.94940185546875;-0.476959228515625;5.05999998722473;507;1 A;
35.103964911371;-0.94940185546875;-0.48004150390625;5.06999998719948;508;1 A;
35.1139649113458;-0.94940185546875;-0.48492431640625;5.07999998717423;509;1 A;
35.1239649113205;-0.95001220703125;-0.48284912109375;5.08999998714899;510;1 A;
35.1339649112953;-0.94940185546875;-0.483734130859375;5.09999998712374;511;1 A;
35.14396491127;-0.94940185546875;-0.482818603515625;5.10999998709849;512;1 A;
35.1539649112448;-0.94940185546875;-0.48577880859375;5.11999998707324;513;1 A;
35.1639649112195;-0.94940185546875;-0.48822021484375;5.129999987048;514;1 A;
35.1739649111943;-0.9490966796875;-0.4879150390625;5.13999998702275;515;1 A;
35.183964911169;-0.94940185546875;-0.485198974609375;5.1499999869975;516;1 A;
35.1939649111438;-0.94970703125;-0.485809326171875;5.15999998697225;517;1 A;
35.2039649111185;-0.94940185546875;-0.491058349609375;5.169999986947;518;1 A;
35.2139649110933;-0.94940185546875;-0.490234375;5.17999998692176;519;1 A;
35.223964911068;-0.94940185546875;-0.49169921875;5.18999998689651;520;1 A;
35.2339649110428;-0.9490966796875;-0.490203857421875;5.19999998687126;521;1 A;
35.2439649110175;-0.94970703125;-0.49078369140625;5.20999998684601;522;1 A;
35.2539649109923;-0.94940185546875;-0.495819091796875;5.21999998682077;523;1 A;
35.263964910967;-0.95001220703125;-0.493621826171875;5.22999998679552;524;1 A;
35.2739649109418;-0.94970703125;-0.49200439453125;5.23999998677027;525;1 A;
35.2839649109166;-0.95001220703125;-0.48931884765625;5.24999998674502;526;1 A;
35.2939649108913;-0.94970703125;-0.4892578125;5.25999998671978;527;1 A;
35.3039649108661;-0.95001220703125;-0.4912109375;5.26999998669453;528;1 A;
35.3139649108408;-0.94970703125;-0.4866943359375;5.27999998666928;529;1 A;
35.3239649108156;-0.94970703125;-0.48590087890625;5.28999998664403;530;1 A;
35.3339649107903;-0.94970703125;-0.481842041015625;5.29999998661879;531;1 A;
35.3439649107651;-0.94940185546875;-0.484222412109375;5.30999998659354;532;1 A;
35.3539649107398;-0.94970703125;-0.487518310546875;5.31999998656829;533;1 A;
35.3639649107146;-0.94879150390625;-0.48333740234375;5.32999998654304;534;1 A;
35.3739649106893;-0.94940185546875;-0.484344482421875;5.3399999865178;535;1 A;
35.3839649106641;-0.95001220703125;-0.48138427734375;5.34999998649255;536;1 A;
35.3939649106388;-0.94940185546875;-0.48260498046875;5.3599999864673;537;1 A;
35.4039649106136;-0.94970703125;-0.484100341796875;5.36999998644205;538;1 A;
35.4139649105883;-0.95001220703125;-0.48162841796875;5.37999998641681;539;1 A;
35.4239649105631;-0.94940185546875;-0.478729248046875;5.38999998639156;540;1 A;
35.4339649105378;-0.94970703125;-0.4781494140625;5.39999998636631;541;1 A;
35.4439649105126;-0.94970703125;-0.48114013671875;5.40999998634106;542;1 A;
35.4539649104873;-0.94970703125;-0.47857666015625;5.41999998631582;543;1 A;
35.4639649104621;-0.94879150390625;-0.479217529296875;5.42999998629057;544;1 A;
35.4739649104368;-0.94970703125;-0.4774169921875;5.43999998626532;545;1 A;
35.4839649104116;-0.95001220703125;-0.478546142578125;5.44999998624007;546;1 A;
35.4939649103864;-0.94940185546875;-0.4842529296875;5.45999998621483;547;1 A;
35.5039649103611;-0.94970703125;-0.4820556640625;5.46999998618958;548;1 A;
35.5139649103359;-0.94940185546875;-0.48138427734375;5.47999998616433;549;1 A;
35.5239649103106;-0.94940185546875;-0.480010986328125;5.48999998613908;550;1 A;
35.5339649102854;-0.94970703125;-0.480010986328125;5.49999998611383;551;1 A;
35.5439649102601;-0.94940185546875;-0.48175048828125;5.50999998608859;552;1 A;
35.5539649102349;-0.94970703125;-0.47796630859375;5.51999998606334;553;1 A;
35.5639649102096;-0.94970703125;-0.476287841796875;5.52999998603809;554;1 A;
35.5739649101844;-0.95001220703125;-0.47186279296875;5.53999998601284;555;1 A;
35.5839649101591;-0.95001220703125;-0.4735107421875;5.5499999859876;556;1 A;
35.5939649101339;-0.94940185546875;-0.475433349609375;5.55999998596235;557;1 A;
35.6039649101086;-0.95001220703125;-0.471588134765625;5.5699999859371;558;1 A;
35.6139649100834;-0.94940185546875;-0.47381591796875;5.57999998591185;559;1 A;
35.6239649100581;-0.95001220703125;-0.471954345703125;5.58999998588661;560;1 A;
35.6339649100329;-0.94970703125;-0.4757080078125;5.59999998586136;561;1 A;
35.6439649100076;-0.94970703125;-0.47747802734375;5.60999998583611;562;1 A;
35.6539649099824;-0.94940185546875;-0.4742431640625;5.61999998581086;563;1 A;
35.6639649099571;-0.94940185546875;-0.471954345703125;5.62999998578562;564;1 A;
35.6739649099319;-0.94970703125;-0.4725341796875;5.63999998576037;565;1 A;
35.6839649099066;-0.95001220703125;-0.476593017578125;5.64999998573512;566;1 A;
35.6939649098814;-0.94970703125;-0.475616455078125;5.65999998570987;567;1 A;
35.7039649098562;-0.94940185546875;-0.47674560546875;5.66999998568463;568;1 A;
35.7139649098309;-0.94940185546875;-0.473480224609375;5.67999998565938;569;1 A;
35.7239649098057;-0.95001220703125;-0.47412109375;5.68999998563413;570;1 A;
35.7339649097804;-0.9490966796875;-0.480682373046875;5.69999998560888;571;1 A;
35.7439649097552;-0.94940185546875;-0.47845458984375;5.70999998558364;572;1 A;
35.7539649097299;-0.94970703125;-0.478729248046875;5.71999998555839;573;1 A;
35.7639649097047;-0.9503173828125;-0.478302001953125;5.72999998553314;574;1 A;
35.7739649096794;-0.94970703125;-0.4805908203125;5.73999998550789;575;1 A;
35.7839649096542;-0.9490966796875;-0.48590087890625;5.74999998548265;576;1 A;
35.7939649096289;-0.94940185546875;-0.48516845703125;5.7599999854574;577;1 A;
35.8039649096037;-0.94970703125;-0.48504638671875;5.76999998543215;578;1 A;
35.8139649095784;-0.95001220703125;-0.4825439453125;5.7799999854069;579;1 A;
35.8239649095532;-0.94940185546875;-0.487091064453125;5.78999998538166;580;1 A;
35.8339649095279;-0.94940185546875;-0.49029541015625;5.79999998535641;581;1 A;
35.8439649095027;-0.95001220703125;-0.48779296875;5.80999998533116;582;1 A;
35.8539649094774;-0.94940185546875;-0.490081787109375;5.81999998530591;583;1 A;
35.8639649094522;-0.95001220703125;-0.485687255859375;5.82999998528066;584;1 A;
35.8739649094269;-0.94970703125;-0.4908447265625;5.83999998525542;585;1 A;
35.8839649094017;-0.94970703125;-0.493560791015625;5.84999998523017;586;1 A;
35.8939649093765;-0.94940185546875;-0.49066162109375;5.85999998520492;587;1 A;
35.9039649093512;-0.94970703125;-0.48980712890625;5.86999998517967;588;1 A;
35.913964909326;-0.94970703125;-0.48956298828125;5.87999998515443;589;1 A;
35.9239649093007;-0.94970703125;-0.493682861328125;5.88999998512918;590;1 A;
35.9339649092755;-0.94970703125;-0.4931640625;5.89999998510393;591;1 A;
35.9439649092502;-0.94940185546875;-0.4942626953125;5.90999998507868;592;1 A;
35.953964909225;-0.94940185546875;-0.49127197265625;5.91999998505344;593;1 A;
35.9639649091997;-0.95001220703125;-0.49163818359375;5.92999998502819;594;1 A;
35.9739649091745;-0.95001220703125;-0.49896240234375;5.93999998500294;595;1 A;
35.9839649091492;-0.94940185546875;-0.495941162109375;5.94999998497769;596;1 A;
35.993964909124;-0.94970703125;-0.497344970703125;5.95999998495245;597;1 A;
36.0039649090987;-0.94940185546875;-0.496246337890625;5.9699999849272;598;1 A;
36.0139649090735;-0.94970703125;-0.49530029296875;5.97999998490195;599;1 A;
36.0239649090482;-0.94970703125;-0.49957275390625;5.9899999848767;600;1 A;
36.033964909023;-0.94970703125;-0.496490478515625;5.99999998485146;601;1 A;
36.0439649089977;-0.94940185546875;-0.494781494140625;6.00999998482621;602;1 A;
36.0539649089725;-0.95001220703125;-0.493255615234375;6.01999998480096;603;1 A;
36.0639649089472;-0.94940185546875;-0.49609375;6.02999998477571;604;1 A;
36.073964908922;-0.95001220703125;-0.497314453125;6.03999998475047;605;1 A;
36.0839649088967;-0.94970703125;-0.49310302734375;6.04999998472522;606;1 A;
36.0939649088715;-0.94940185546875;-0.493438720703125;6.05999998469997;607;1 A;
36.1039649088463;-0.94970703125;-0.488677978515625;6.06999998467472;608;1 A;
36.113964908821;-0.9490966796875;-0.49267578125;6.07999998464948;609;1 A;
36.1239649087958;-0.94940185546875;-0.494171142578125;6.08999998462423;610;1 A;
36.1339649087705;-0.94940185546875;-0.49041748046875;6.09999998459898;611;1 A;
36.1439649087453;-0.94940185546875;-0.489715576171875;6.10999998457373;612;1 A;
36.15396490872;-0.95001220703125;-0.48876953125;6.11999998454849;613;1 A;
36.1639649086948;-0.94940185546875;-0.492706298828125;6.12999998452324;614;1 A;
36.1739649086695;-0.94970703125;-0.4925537109375;6.13999998449799;615;1 A;
36.1839649086443;-0.94970703125;-0.49237060546875;6.14999998447274;616;1 A;
36.193964908619;-0.9490966796875;-0.487060546875;6.1599999844475;617;1 A;
36.2039649085938;-0.95001220703125;-0.48626708984375;6.16999998442225;618;1 A;
36.2139649085685;-0.95001220703125;-0.491851806640625;6.179999984397;619;1 A;
36.2239649085433;-0.94970703125;-0.4874267578125;6.18999998437175;620;1 A;
36.233964908518;-0.94970703125;-0.489990234375;6.1999999843465;621;1 A;
36.2439649084928;-0.94940185546875;-0.48748779296875;6.20999998432126;622;1 A;
36.2539649084675;-0.94940185546875;-0.488250732421875;6.21999998429601;623;1 A;
36.2639649084423;-0.94970703125;-0.49615478515625;6.22999998427076;624;1 A;
36.273964908417;-0.94940185546875;-0.49322509765625;6.23999998424551;625;1 A;
36.2839649083918;-0.94940185546875;-0.491607666015625;6.24999998422027;626;1 A;
36.2939649083665;-0.94970703125;-0.48956298828125;6.25999998419502;627;1 A;
36.3039649083413;-0.95001220703125;-0.4915771484375;6.26999998416977;628;1 A;
36.3139649083161;-0.95001220703125;-0.494354248046875;6.27999998414452;629;1 A;
36.3239649082908;-0.94970703125;-0.492889404296875;6.28999998411928;630;1 A;
36.3339649082656;-0.94940185546875;-0.493133544921875;6.29999998409403;631;1 A;
36.3439649082403;-0.94940185546875;-0.490142822265625;6.30999998406878;632;1 A;
36.3539649082151;-0.94970703125;-0.496826171875;6.31999998404353;633;1 A;
36.3639649081898;-0.9503173828125;-0.50048828125;6.32999998401829;634;1 A;
36.3739649081646;-0.94970703125;-0.49957275390625;6.33999998399304;635;1 A;
36.3839649081393;-0.94970703125;-0.50201416015625;6.34999998396779;636;1 A;
36.3939649081141;-0.95001220703125;-0.50048828125;6.35999998394254;637;1 A;
36.4039649080888;-0.95001220703125;-0.5047607421875;6.3699999839173;638;1 A;
36.4139649080636;-0.95001220703125;-0.504150390625;6.37999998389205;639;1 A;
36.4239649080383;-0.94970703125;-0.50323486328125;6.3899999838668;640;1 A;
36.4339649080131;-0.95001220703125;-0.496826171875;6.39999998384155;641;1 A;
36.4439649079878;-0.95001220703125;-0.495361328125;6.40999998381631;642;1 A;
36.4539649079626;-0.94970703125;-0.49957275390625;6.41999998379106;643;1 A;
36.4639649079373;-0.94970703125;-0.494476318359375;6.42999998376581;644;1 A;
36.4739649079121;-0.94940185546875;-0.49835205078125;6.43999998374056;645;1 A;
36.4839649078868;-0.94940185546875;-0.493499755859375;6.44999998371532;646;1 A;
36.4939649078616;-0.9503173828125;-0.493133544921875;6.45999998369007;647;1 A;
36.5039649078363;-0.94940185546875;-0.4998779296875;6.46999998366482;648;1 A;
36.5139649078111;-0.94940185546875;-0.494171142578125;6.47999998363957;649;1 A;
36.5239649077859;-0.94970703125;-0.493377685546875;6.48999998361433;650;1 A;
36.5339649077606;-0.95001220703125;-0.48992919921875;6.49999998358908;651;1 A;
36.5439649077354;-0.94940185546875;-0.489166259765625;6.50999998356383;652;1 A;
36.5539649077101;-0.95001220703125;-0.489501953125;6.51999998353858;653;1 A;
36.5639649076849;-0.94970703125;-0.485748291015625;6.52999998351333;654;1 A;
36.5739649076596;-0.94970703125;-0.485107421875;6.53999998348809;655;1 A;
36.5839649076344;-0.94940185546875;-0.4820556640625;6.54999998346284;656;1 A;
36.5939649076091;-0.94879150390625;-0.48834228515625;6.55999998343759;657;1 A;
36.6039649075839;-0.95001220703125;-0.49090576171875;6.56999998341234;658;1 A;
36.6139649075586;-0.94970703125;-0.48895263671875;6.5799999833871;659;1 A;
36.6239649075334;-0.94940185546875;-0.492279052734375;6.58999998336185;660;1 A;
36.6339649075081;-0.94970703125;-0.489166259765625;6.5999999833366;661;1 A;
36.6439649074829;-0.94970703125;-0.494171142578125;6.60999998331135;662;1 A;
36.6539649074576;-0.94970703125;-0.494781494140625;6.61999998328611;663;1 A;
36.6639649074324;-0.94970703125;-0.49432373046875;6.62999998326086;664;1 A;
36.6739649074071;-0.94970703125;-0.49139404296875;6.63999998323561;665;1 A;
36.6839649073819;-0.94970703125;-0.4915771484375;6.64999998321036;666;1 A;
36.6939649073566;-0.94940185546875;-0.495819091796875;6.65999998318512;667;1 A;
36.7039649073314;-0.94970703125;-0.4913330078125;6.66999998315987;668;1 A;
36.7139649073061;-0.94970703125;-0.496002197265625;6.67999998313462;669;1 A;
36.7239649072809;-0.94940185546875;-0.49169921875;6.68999998310937;670;1 A;
36.7339649072557;-0.94970703125;-0.492523193359375;6.69999998308413;671;1 A;
36.7439649072304;-0.94970703125;-0.50018310546875;6.70999998305888;672;1 A;
36.7539649072052;-0.94970703125;-0.493621826171875;6.71999998303363;673;1 A;
36.7639649071799;-0.9490966796875;-0.494110107421875;6.72999998300838;674;1 A;
36.7739649071547;-0.94940185546875;-0.49359130859375;6.73999998298314;675;1 A;
36.7839649071294;-0.95001220703125;-0.49444580078125;6.74999998295789;676;1 A;
36.7939649071042;-0.94970703125;-0.496917724609375;6.75999998293264;677;1 A;
36.8039649070789;-0.94940185546875;-0.49407958984375;6.76999998290739;678;1 A;
36.8139649070537;-0.94970703125;-0.49224853515625;6.77999998288215;679;1 A;
36.8239649070284;-0.94940185546875;-0.489227294921875;6.7899999828569;680;1 A;
36.8339649070032;-0.9503173828125;-0.494659423828125;6.79999998283165;681;1 A;
36.8439649069779;-0.95001220703125;-0.494842529296875;6.8099999828064;682;1 A;
36.8539649069527;-0.94940185546875;-0.491973876953125;6.81999998278116;683;1 A;
36.8639649069274;-0.94970703125;-0.49365234375;6.82999998275591;684;1 A;
36.8739649069022;-0.94970703125;-0.4906005859375;6.83999998273066;685;1 A;
36.8839649068769;-0.94970703125;-0.49774169921875;6.84999998270541;686;1 A;
36.8939649068517;-0.94970703125;-0.49774169921875;6.85999998268016;687;1 A;
36.9039649068264;-0.94970703125;-0.49639892578125;6.86999998265492;688;1 A;
36.9139649068012;-0.94970703125;-0.493804931640625;6.87999998262967;689;1 A;
36.923964906776;-0.94970703125;-0.495208740234375;6.88999998260442;690;1 A;
36.9339649067507;-0.94970703125;-0.50048828125;6.89999998257917;691;1 A;
36.9439649067255;-0.94970703125;-0.49713134765625;6.90999998255393;692;1 A;
36.9539649067002;-0.94940185546875;-0.501708984375;6.91999998252868;693;1 A;
36.963964906675;-0.94940185546875;-0.494537353515625;6.92999998250343;694;1 A;
36.9739649066497;-0.94970703125;-0.49530029296875;6.93999998247818;695;1 A;
36.9839649066245;-0.94970703125;-0.5029296875;6.94999998245294;696;1 A;
36.9939649065992;-0.94970703125;-0.4974365234375;6.95999998242769;697;1 A;
37.003964906574;-0.9503173828125;-0.50079345703125;6.96999998240244;698;1 A;
37.0139649065487;-0.95001220703125;-0.49957275390625;6.97999998237719;699;1 A;
37.0239649065235;-0.94970703125;-0.50018310546875;6.98999998235195;700;1 A;
