Time (s);WE(1).Potential (V);WE(1).Current (A);Corrected time (s);Index;Current range;Overload
53.0411928660839;-0.90606689453125;-2.34161376953125;0;1;1 A;Current overload
53.0511928660586;-0.97930908203125;-1.905517578125;0.00999999997475243;2;1 A;
53.0611928660334;-1.0003662109375;-1.395263671875;0.0199999999495049;3;1 A;
53.0711928660081;-1.0003662109375;-1.17828369140625;0.0299999999242573;4;1 A;
53.0811928659829;-1.00006103515625;-1.04644775390625;0.0399999998990097;5;1 A;
53.0911928659576;-1.00006103515625;-0.94940185546875;0.0499999998737621;6;1 A;
53.1011928659324;-1.00006103515625;-0.87554931640625;0.0599999998485146;7;1 A;
53.1111928659071;-0.999755859375;-0.8203125;0.069999999823267;8;1 A;
53.1211928658819;-1.00006103515625;-0.77667236328125;0.0799999997980194;9;1 A;
53.1311928658566;-0.999755859375;-0.74188232421875;0.0899999997727718;10;1 A;
53.1411928658314;-0.999755859375;-0.712890625;0.0999999997475243;11;1 A;
53.1511928658061;-0.999755859375;-0.68603515625;0.109999999722277;12;1 A;
53.1611928657809;-1.00006103515625;-0.66497802734375;0.119999999697029;13;1 A;
53.1711928657556;-0.99945068359375;-0.64727783203125;0.129999999671782;14;1 A;
53.1811928657304;-0.999755859375;-0.631103515625;0.139999999646534;15;1 A;
53.1911928657051;-0.999755859375;-0.6170654296875;0.149999999621286;16;1 A;
53.2011928656799;-0.999755859375;-0.60302734375;0.159999999596039;17;1 A;
53.2111928656547;-0.999755859375;-0.592041015625;0.169999999570791;18;1 A;
53.2211928656294;-1.00006103515625;-0.5828857421875;0.179999999545544;19;1 A;
53.2311928656042;-0.99945068359375;-0.57525634765625;0.189999999520296;20;1 A;
53.2411928655789;-0.999755859375;-0.567626953125;0.199999999495049;21;1 A;
53.2511928655537;-0.999755859375;-0.5596923828125;0.209999999469801;22;1 A;
53.2611928655284;-0.999755859375;-0.55572509765625;0.219999999444553;23;1 A;
53.2711928655032;-0.99945068359375;-0.5511474609375;0.229999999419306;24;1 A;
53.2811928654779;-0.999755859375;-0.5474853515625;0.239999999394058;25;1 A;
53.2911928654527;-1.00006103515625;-0.54473876953125;0.249999999368811;26;1 A;
53.3011928654274;-1.00006103515625;-0.5401611328125;0.259999999343563;27;1 A;
53.3111928654022;-0.99945068359375;-0.537109375;0.269999999318316;28;1 A;
53.3211928653769;-0.999755859375;-0.5340576171875;0.279999999293068;29;1 A;
53.3311928653517;-0.999755859375;-0.531005859375;0.28999999926782;30;1 A;
53.3411928653264;-1.00006103515625;-0.52734375;0.299999999242573;31;1 A;
53.3511928653012;-0.999755859375;-0.52459716796875;0.309999999217325;32;1 A;
53.3611928652759;-0.99945068359375;-0.521240234375;0.319999999192078;33;1 A;
53.3711928652507;-0.99945068359375;-0.51849365234375;0.32999999916683;34;1 A;
53.3811928652254;-0.99945068359375;-0.51727294921875;0.339999999141583;35;1 A;
53.3911928652002;-0.99945068359375;-0.51300048828125;0.349999999116335;36;1 A;
53.4011928651749;-1.00006103515625;-0.5120849609375;0.359999999091087;37;1 A;
53.4111928651497;-0.999755859375;-0.51177978515625;0.36999999906584;38;1 A;
53.4211928651245;-0.99945068359375;-0.51025390625;0.379999999040592;39;1 A;
53.4311928650992;-0.99884033203125;-0.511474609375;0.389999999015345;40;1 A;
53.441192865074;-0.9991455078125;-0.509033203125;0.399999998990097;41;1 A;
53.4511928650487;-1.0003662109375;-0.50750732421875;0.40999999896485;42;1 A;
53.4611928650235;-0.9991455078125;-0.50689697265625;0.419999998939602;43;1 A;
53.4711928649982;-0.999755859375;-0.506591796875;0.429999998914354;44;1 A;
53.481192864973;-0.999755859375;-0.50567626953125;0.439999998889107;45;1 A;
53.4911928649477;-1.00006103515625;-0.5035400390625;0.449999998863859;46;1 A;
53.5011928649225;-1.00006103515625;-0.50262451171875;0.459999998838612;47;1 A;
53.5111928648972;-1.00006103515625;-0.50079345703125;0.469999998813364;48;1 A;
53.521192864872;-0.9991455078125;-0.50048828125;0.479999998788116;49;1 A;
53.5311928648467;-0.999755859375;-0.50018310546875;0.489999998762869;50;1 A;
53.5411928648215;-0.99945068359375;-0.4989013671875;0.499999998737621;51;1 A;
53.5511928647962;-0.9991455078125;-0.4998779296875;0.509999998712374;52;1 A;
53.561192864771;-0.999755859375;-0.50018310546875;0.519999998687126;53;1 A;
53.5711928647457;-0.999755859375;-0.499237060546875;0.529999998661879;54;1 A;
53.5811928647205;-0.999755859375;-0.497589111328125;0.539999998636631;55;1 A;
53.5911928646952;-1.00006103515625;-0.495819091796875;0.549999998611383;56;1 A;
53.60119286467;-0.99945068359375;-0.493988037109375;0.559999998586136;57;1 A;
53.6111928646447;-0.999755859375;-0.494232177734375;0.569999998560888;58;1 A;
53.6211928646195;-0.999755859375;-0.495758056640625;0.579999998535641;59;1 A;
53.6311928645943;-0.999755859375;-0.49456787109375;0.589999998510393;60;1 A;
53.641192864569;-0.99945068359375;-0.49700927734375;0.599999998485146;61;1 A;
53.6511928645438;-0.9991455078125;-0.498565673828125;0.609999998459898;62;1 A;
53.6611928645185;-1.0003662109375;-0.50018310546875;0.61999999843465;63;1 A;
53.6711928644933;-0.99945068359375;-0.5035400390625;0.629999998409403;64;1 A;
53.681192864468;-0.999755859375;-0.50323486328125;0.639999998384155;65;1 A;
53.6911928644428;-0.999755859375;-0.50445556640625;0.649999998358908;66;1 A;
53.7011928644175;-1.00006103515625;-0.50567626953125;0.65999999833366;67;1 A;
53.7111928643923;-0.999755859375;-0.506591796875;0.669999998308413;68;1 A;
53.721192864367;-0.99945068359375;-0.50750732421875;0.679999998283165;69;1 A;
53.7311928643418;-0.999755859375;-0.5072021484375;0.689999998257917;70;1 A;
53.7411928643165;-0.99945068359375;-0.5072021484375;0.69999999823267;71;1 A;
53.7511928642913;-1.00006103515625;-0.50628662109375;0.709999998207422;72;1 A;
53.761192864266;-0.999755859375;-0.506591796875;0.719999998182175;73;1 A;
53.7711928642408;-0.99945068359375;-0.5059814453125;0.729999998156927;74;1 A;
53.7811928642155;-1.00006103515625;-0.50506591796875;0.73999999813168;75;1 A;
53.7911928641903;-0.99945068359375;-0.50628662109375;0.749999998106432;76;1 A;
53.801192864165;-0.999755859375;-0.50628662109375;0.759999998081184;77;1 A;
53.8111928641398;-0.999755859375;-0.50628662109375;0.769999998055937;78;1 A;
53.8211928641146;-1.00006103515625;-0.50537109375;0.779999998030689;79;1 A;
53.8311928640893;-0.999755859375;-0.5035400390625;0.789999998005442;80;1 A;
53.8411928640641;-0.99945068359375;-0.5010986328125;0.799999997980194;81;1 A;
53.8511928640388;-0.9991455078125;-0.499267578125;0.809999997954947;82;1 A;
53.8611928640136;-0.999755859375;-0.4974365234375;0.819999997929699;83;1 A;
53.8711928639883;-0.99945068359375;-0.4940185546875;0.829999997904451;84;1 A;
53.8811928639631;-0.999755859375;-0.49420166015625;0.839999997879204;85;1 A;
53.8911928639378;-0.999755859375;-0.493804931640625;0.849999997853956;86;1 A;
53.9011928639126;-0.99945068359375;-0.49371337890625;0.859999997828709;87;1 A;
53.9111928638873;-1.00006103515625;-0.495147705078125;0.869999997803461;88;1 A;
53.9211928638621;-1.0003662109375;-0.492645263671875;0.879999997778214;89;1 A;
53.9311928638368;-1.00006103515625;-0.4920654296875;0.889999997752966;90;1 A;
53.9411928638116;-1.00006103515625;-0.492156982421875;0.899999997727718;91;1 A;
53.9511928637863;-0.99945068359375;-0.4923095703125;0.909999997702471;92;1 A;
53.9611928637611;-1.00006103515625;-0.49298095703125;0.919999997677223;93;1 A;
53.9711928637358;-0.99945068359375;-0.4927978515625;0.929999997651976;94;1 A;
53.9811928637106;-0.9991455078125;-0.4935302734375;0.939999997626728;95;1 A;
53.9911928636853;-0.9991455078125;-0.493896484375;0.949999997601481;96;1 A;
54.0011928636601;-0.99945068359375;-0.49627685546875;0.959999997576233;97;1 A;
54.0111928636348;-1.0003662109375;-0.496246337890625;0.969999997550985;98;1 A;
54.0211928636096;-0.999755859375;-0.496307373046875;0.979999997525738;99;1 A;
54.0311928635844;-0.999755859375;-0.497528076171875;0.98999999750049;100;1 A;
54.0411928635591;-0.999755859375;-0.496551513671875;0.999999997475243;101;1 A;
54.0511928635339;-1.00006103515625;-0.497802734375;1.00999999745;102;1 A;
54.0611928635086;-0.99945068359375;-0.497894287109375;1.01999999742475;103;1 A;
54.0711928634834;-1.00006103515625;-0.49713134765625;1.0299999973995;104;1 A;
54.0811928634581;-0.999755859375;-0.496673583984375;1.03999999737425;105;1 A;
54.0911928634329;-1.00006103515625;-0.496673583984375;1.049999997349;106;1 A;
54.1011928634076;-0.99945068359375;-0.4976806640625;1.05999999732376;107;1 A;
54.1111928633824;-1.00006103515625;-0.49725341796875;1.06999999729851;108;1 A;
54.1211928633571;-0.99945068359375;-0.49957275390625;1.07999999727326;109;1 A;
54.1311928633319;-0.99945068359375;-0.50018310546875;1.08999999724801;110;1 A;
54.1411928633066;-1.00006103515625;-0.50048828125;1.09999999722277;111;1 A;
54.1511928632814;-0.999755859375;-0.50201416015625;1.10999999719752;112;1 A;
54.1611928632561;-0.999755859375;-0.50048828125;1.11999999717227;113;1 A;
54.1711928632309;-0.999755859375;-0.501708984375;1.12999999714702;114;1 A;
54.1811928632056;-1.0003662109375;-0.504150390625;1.13999999712178;115;1 A;
54.1911928631804;-0.999755859375;-0.50628662109375;1.14999999709653;116;1 A;
54.2011928631551;-0.99945068359375;-0.50872802734375;1.15999999707128;117;1 A;
54.2111928631299;-1.00006103515625;-0.5096435546875;1.16999999704603;118;1 A;
54.2211928631046;-0.999755859375;-0.511474609375;1.17999999702079;119;1 A;
54.2311928630794;-0.999755859375;-0.5133056640625;1.18999999699554;120;1 A;
54.2411928630542;-0.99945068359375;-0.51544189453125;1.19999999697029;121;1 A;
54.2511928630289;-0.999755859375;-0.513916015625;1.20999999694504;122;1 A;
54.2611928630037;-0.99945068359375;-0.5126953125;1.2199999969198;123;1 A;
54.2711928629784;-0.999755859375;-0.5133056640625;1.22999999689455;124;1 A;
54.2811928629532;-0.999755859375;-0.5126953125;1.2399999968693;125;1 A;
54.2911928629279;-1.00006103515625;-0.513916015625;1.24999999684405;126;1 A;
54.3011928629027;-1.0003662109375;-0.5133056640625;1.25999999681881;127;1 A;
54.3111928628774;-0.99945068359375;-0.5126953125;1.26999999679356;128;1 A;
54.3211928628522;-0.99945068359375;-0.513916015625;1.27999999676831;129;1 A;
54.3311928628269;-0.99945068359375;-0.51605224609375;1.28999999674306;130;1 A;
54.3411928628017;-0.999755859375;-0.51727294921875;1.29999999671782;131;1 A;
54.3511928627764;-0.9991455078125;-0.51513671875;1.30999999669257;132;1 A;
54.3611928627512;-0.9991455078125;-0.513916015625;1.31999999666732;133;1 A;
54.3711928627259;-0.99945068359375;-0.51177978515625;1.32999999664207;134;1 A;
54.3811928627007;-0.999755859375;-0.50994873046875;1.33999999661683;135;1 A;
54.3911928626754;-1.00006103515625;-0.5096435546875;1.34999999659158;136;1 A;
54.4011928626502;-0.999755859375;-0.5059814453125;1.35999999656633;137;1 A;
54.4111928626249;-0.999755859375;-0.50628662109375;1.36999999654108;138;1 A;
54.4211928625997;-0.99945068359375;-0.50689697265625;1.37999999651583;139;1 A;
54.4311928625744;-0.9991455078125;-0.506591796875;1.38999999649059;140;1 A;
54.4411928625492;-0.999755859375;-0.50750732421875;1.39999999646534;141;1 A;
54.451192862524;-0.999755859375;-0.50506591796875;1.40999999644009;142;1 A;
54.4611928624987;-0.999755859375;-0.50323486328125;1.41999999641484;143;1 A;
54.4711928624735;-1.00006103515625;-0.50262451171875;1.4299999963896;144;1 A;
54.4811928624482;-0.999755859375;-0.50323486328125;1.43999999636435;145;1 A;
54.491192862423;-0.999755859375;-0.501708984375;1.4499999963391;146;1 A;
54.5011928623977;-0.999755859375;-0.5010986328125;1.45999999631385;147;1 A;
54.5111928623725;-0.999755859375;-0.50079345703125;1.46999999628861;148;1 A;
54.5211928623472;-0.999755859375;-0.4998779296875;1.47999999626336;149;1 A;
54.531192862322;-0.999755859375;-0.5010986328125;1.48999999623811;150;1 A;
54.5411928622967;-0.99945068359375;-0.50018310546875;1.49999999621286;151;1 A;
54.5511928622715;-0.999755859375;-0.4998779296875;1.50999999618762;152;1 A;
54.5611928622462;-0.999755859375;-0.5010986328125;1.51999999616237;153;1 A;
54.571192862221;-0.99945068359375;-0.5023193359375;1.52999999613712;154;1 A;
54.5811928621957;-1.00006103515625;-0.50384521484375;1.53999999611187;155;1 A;
54.5911928621705;-0.999755859375;-0.50262451171875;1.54999999608663;156;1 A;
54.6011928621452;-0.999755859375;-0.50201416015625;1.55999999606138;157;1 A;
54.61119286212;-0.99945068359375;-0.4998779296875;1.56999999603613;158;1 A;
54.6211928620947;-0.99945068359375;-0.498992919921875;1.57999999601088;159;1 A;
54.6311928620695;-0.99945068359375;-0.499267578125;1.58999999598564;160;1 A;
54.6411928620442;-0.99945068359375;-0.49578857421875;1.59999999596039;161;1 A;
54.651192862019;-0.999755859375;-0.496734619140625;1.60999999593514;162;1 A;
54.6611928619938;-1.00006103515625;-0.4964599609375;1.61999999590989;163;1 A;
54.6711928619685;-0.999755859375;-0.496734619140625;1.62999999588465;164;1 A;
54.6811928619433;-0.999755859375;-0.499267578125;1.6399999958594;165;1 A;
54.691192861918;-0.99945068359375;-0.498565673828125;1.64999999583415;166;1 A;
54.7011928618928;-1.00006103515625;-0.49908447265625;1.6599999958089;167;1 A;
54.7111928618675;-1.00006103515625;-0.498687744140625;1.66999999578366;168;1 A;
54.7211928618423;-1.00006103515625;-0.498931884765625;1.67999999575841;169;1 A;
54.731192861817;-1.00006103515625;-0.497802734375;1.68999999573316;170;1 A;
54.7411928617918;-0.999755859375;-0.497589111328125;1.69999999570791;171;1 A;
54.7511928617665;-0.99945068359375;-0.4981689453125;1.70999999568267;172;1 A;
54.7611928617413;-1.00006103515625;-0.49847412109375;1.71999999565742;173;1 A;
54.771192861716;-0.999755859375;-0.501708984375;1.72999999563217;174;1 A;
54.7811928616908;-1.00006103515625;-0.50201416015625;1.73999999560692;175;1 A;
54.7911928616655;-0.999755859375;-0.5023193359375;1.74999999558167;176;1 A;
54.8011928616403;-0.999755859375;-0.5029296875;1.75999999555643;177;1 A;
54.811192861615;-0.999755859375;-0.50262451171875;1.76999999553118;178;1 A;
54.8211928615898;-0.99945068359375;-0.50262451171875;1.77999999550593;179;1 A;
54.8311928615645;-1.00006103515625;-0.50048828125;1.78999999548068;180;1 A;
54.8411928615393;-0.9991455078125;-0.4986572265625;1.79999999545544;181;1 A;
54.8511928615141;-1.00006103515625;-0.496917724609375;1.80999999543019;182;1 A;
54.8611928614888;-0.99945068359375;-0.49761962890625;1.81999999540494;183;1 A;
54.8711928614636;-0.999755859375;-0.49908447265625;1.82999999537969;184;1 A;
54.8811928614383;-0.99945068359375;-0.49749755859375;1.83999999535445;185;1 A;
54.8911928614131;-0.99945068359375;-0.499114990234375;1.8499999953292;186;1 A;
54.9011928613878;-1.00006103515625;-0.4984130859375;1.85999999530395;187;1 A;
54.9111928613626;-0.999755859375;-0.4979248046875;1.8699999952787;188;1 A;
54.9211928613373;-0.99945068359375;-0.498443603515625;1.87999999525346;189;1 A;
54.9311928613121;-1.00006103515625;-0.496368408203125;1.88999999522821;190;1 A;
54.9411928612868;-0.9991455078125;-0.496978759765625;1.89999999520296;191;1 A;
54.9511928612616;-1.00006103515625;-0.497772216796875;1.90999999517771;192;1 A;
54.9611928612363;-0.999755859375;-0.497833251953125;1.91999999515247;193;1 A;
54.9711928612111;-0.99945068359375;-0.49566650390625;1.92999999512722;194;1 A;
54.9811928611858;-0.99945068359375;-0.494476318359375;1.93999999510197;195;1 A;
54.9911928611606;-0.99945068359375;-0.493408203125;1.94999999507672;196;1 A;
55.0011928611353;-0.999755859375;-0.492156982421875;1.95999999505148;197;1 A;
55.0111928611101;-0.99945068359375;-0.4927978515625;1.96999999502623;198;1 A;
55.0211928610848;-0.999755859375;-0.489990234375;1.97999999500098;199;1 A;
55.0311928610596;-1.00006103515625;-0.48931884765625;1.98999999497573;200;1 A;
55.0411928610343;-1.00006103515625;-0.489898681640625;1.99999999495049;201;1 A;
55.0511928610091;-0.999755859375;-0.489105224609375;2.00999999492524;202;1 A;
55.0611928609839;-0.999755859375;-0.489044189453125;2.01999999489999;203;1 A;
55.0711928609586;-0.9991455078125;-0.48681640625;2.02999999487474;204;1 A;
55.0811928609334;-0.999755859375;-0.48541259765625;2.0399999948495;205;1 A;
55.0911928609081;-0.99945068359375;-0.484344482421875;2.04999999482425;206;1 A;
55.1011928608829;-0.999755859375;-0.484039306640625;2.059999994799;207;1 A;
55.1111928608576;-0.99945068359375;-0.4837646484375;2.06999999477375;208;1 A;
55.1211928608324;-0.999755859375;-0.482330322265625;2.0799999947485;209;1 A;
55.1311928608071;-0.99945068359375;-0.48419189453125;2.08999999472326;210;1 A;
55.1411928607819;-0.99945068359375;-0.484466552734375;2.09999999469801;211;1 A;
55.1511928607566;-1.00006103515625;-0.48504638671875;2.10999999467276;212;1 A;
55.1611928607314;-1.00006103515625;-0.4853515625;2.11999999464751;213;1 A;
55.1711928607061;-1.00006103515625;-0.4835205078125;2.12999999462227;214;1 A;
55.1811928606809;-1.00006103515625;-0.48419189453125;2.13999999459702;215;1 A;
55.1911928606556;-0.99945068359375;-0.484893798828125;2.14999999457177;216;1 A;
55.2011928606304;-0.99945068359375;-0.48516845703125;2.15999999454652;217;1 A;
55.2111928606051;-0.99945068359375;-0.483917236328125;2.16999999452128;218;1 A;
55.2211928605799;-0.99945068359375;-0.48260498046875;2.17999999449603;219;1 A;
55.2311928605546;-1.00006103515625;-0.48162841796875;2.18999999447078;220;1 A;
55.2411928605294;-0.999755859375;-0.48211669921875;2.19999999444553;221;1 A;
55.2511928605041;-0.999755859375;-0.483978271484375;2.20999999442029;222;1 A;
55.2611928604789;-0.99945068359375;-0.48199462890625;2.21999999439504;223;1 A;
55.2711928604537;-0.99945068359375;-0.482391357421875;2.22999999436979;224;1 A;
55.2811928604284;-0.999755859375;-0.483001708984375;2.23999999434454;225;1 A;
55.2911928604032;-0.999755859375;-0.48309326171875;2.2499999943193;226;1 A;
55.3011928603779;-0.99945068359375;-0.485107421875;2.25999999429405;227;1 A;
55.3111928603527;-1.00006103515625;-0.4840087890625;2.2699999942688;228;1 A;
55.3211928603274;-0.999755859375;-0.48394775390625;2.27999999424355;229;1 A;
55.3311928603022;-1.00006103515625;-0.48443603515625;2.28999999421831;230;1 A;
55.3411928602769;-0.99945068359375;-0.486114501953125;2.29999999419306;231;1 A;
55.3511928602517;-1.0003662109375;-0.487274169921875;2.30999999416781;232;1 A;
55.3611928602264;-0.999755859375;-0.485992431640625;2.31999999414256;233;1 A;
55.3711928602012;-1.00006103515625;-0.48651123046875;2.32999999411732;234;1 A;
55.3811928601759;-0.999755859375;-0.486480712890625;2.33999999409207;235;1 A;
55.3911928601507;-0.9991455078125;-0.488311767578125;2.34999999406682;236;1 A;
55.4011928601254;-1.0003662109375;-0.489959716796875;2.35999999404157;237;1 A;
55.4111928601002;-0.999755859375;-0.489410400390625;2.36999999401633;238;1 A;
55.4211928600749;-0.999755859375;-0.4913330078125;2.37999999399108;239;1 A;
55.4311928600497;-0.99945068359375;-0.49310302734375;2.38999999396583;240;1 A;
55.4411928600244;-0.999755859375;-0.493682861328125;2.39999999394058;241;1 A;
55.4511928599992;-0.99945068359375;-0.492950439453125;2.40999999391533;242;1 A;
55.4611928599739;-0.99945068359375;-0.492584228515625;2.41999999389009;243;1 A;
55.4711928599487;-0.999755859375;-0.49114990234375;2.42999999386484;244;1 A;
55.4811928599235;-1.00006103515625;-0.4913330078125;2.43999999383959;245;1 A;
55.4911928598982;-0.99945068359375;-0.490631103515625;2.44999999381434;246;1 A;
55.501192859873;-1.00006103515625;-0.486358642578125;2.4599999937891;247;1 A;
55.5111928598477;-0.99945068359375;-0.486236572265625;2.46999999376385;248;1 A;
55.5211928598225;-0.9991455078125;-0.485321044921875;2.4799999937386;249;1 A;
55.5311928597972;-0.999755859375;-0.484710693359375;2.48999999371335;250;1 A;
55.541192859772;-0.999755859375;-0.486175537109375;2.49999999368811;251;1 A;
55.5511928597467;-0.99945068359375;-0.48443603515625;2.50999999366286;252;1 A;
55.5611928597215;-0.999755859375;-0.484893798828125;2.51999999363761;253;1 A;
55.5711928596962;-0.99945068359375;-0.48590087890625;2.52999999361236;254;1 A;
55.581192859671;-0.999755859375;-0.4857177734375;2.53999999358712;255;1 A;
55.5911928596457;-1.00006103515625;-0.48492431640625;2.54999999356187;256;1 A;
55.6011928596205;-0.99945068359375;-0.482208251953125;2.55999999353662;257;1 A;
55.6111928595952;-0.999755859375;-0.481842041015625;2.56999999351137;258;1 A;
55.62119285957;-0.99945068359375;-0.480926513671875;2.57999999348613;259;1 A;
55.6311928595447;-0.999755859375;-0.4832763671875;2.58999999346088;260;1 A;
55.6411928595195;-0.999755859375;-0.48486328125;2.59999999343563;261;1 A;
55.6511928594942;-0.99945068359375;-0.484100341796875;2.60999999341038;262;1 A;
55.661192859469;-0.999755859375;-0.485595703125;2.61999999338514;263;1 A;
55.6711928594437;-0.999755859375;-0.48541259765625;2.62999999335989;264;1 A;
55.6811928594185;-0.999755859375;-0.487335205078125;2.63999999333464;265;1 A;
55.6911928593933;-0.99945068359375;-0.488006591796875;2.64999999330939;266;1 A;
55.701192859368;-0.999755859375;-0.48809814453125;2.65999999328415;267;1 A;
55.7111928593428;-0.99945068359375;-0.4874267578125;2.6699999932589;268;1 A;
55.7211928593175;-0.999755859375;-0.4881591796875;2.67999999323365;269;1 A;
55.7311928592923;-0.9991455078125;-0.490203857421875;2.6899999932084;270;1 A;
55.741192859267;-1.00006103515625;-0.48870849609375;2.69999999318316;271;1 A;
55.7511928592418;-0.999755859375;-0.491973876953125;2.70999999315791;272;1 A;
55.7611928592165;-1.00006103515625;-0.492431640625;2.71999999313266;273;1 A;
55.7711928591913;-1.00006103515625;-0.49359130859375;2.72999999310741;274;1 A;
55.781192859166;-0.999755859375;-0.496612548828125;2.73999999308217;275;1 A;
55.7911928591408;-0.999755859375;-0.495391845703125;2.74999999305692;276;1 A;
55.8011928591155;-0.99945068359375;-0.497283935546875;2.75999999303167;277;1 A;
55.8111928590903;-0.999755859375;-0.498626708984375;2.76999999300642;278;1 A;
55.821192859065;-1.00006103515625;-0.4998779296875;2.77999999298117;279;1 A;
55.8311928590398;-0.99945068359375;-0.50079345703125;2.78999999295593;280;1 A;
55.8411928590145;-0.99945068359375;-0.50048828125;2.79999999293068;281;1 A;
55.8511928589893;-0.999755859375;-0.50048828125;2.80999999290543;282;1 A;
55.861192858964;-0.9991455078125;-0.50018310546875;2.81999999288018;283;1 A;
55.8711928589388;-0.999755859375;-0.50262451171875;2.82999999285494;284;1 A;
55.8811928589136;-1.00006103515625;-0.501708984375;2.83999999282969;285;1 A;
55.8911928588883;-0.9991455078125;-0.4998779296875;2.84999999280444;286;1 A;
55.9011928588631;-0.999755859375;-0.5010986328125;2.85999999277919;287;1 A;
55.9111928588378;-1.00006103515625;-0.49957275390625;2.86999999275395;288;1 A;
55.9211928588126;-0.999755859375;-0.50201416015625;2.8799999927287;289;1 A;
55.9311928587873;-0.999755859375;-0.501708984375;2.88999999270345;290;1 A;
55.9411928587621;-0.9991455078125;-0.5010986328125;2.8999999926782;291;1 A;
55.9511928587368;-1.00006103515625;-0.50048828125;2.90999999265296;292;1 A;
55.9611928587116;-0.99945068359375;-0.50079345703125;2.91999999262771;293;1 A;
55.9711928586863;-0.999755859375;-0.50262451171875;2.92999999260246;294;1 A;
55.9811928586611;-0.99945068359375;-0.50140380859375;2.93999999257721;295;1 A;
55.9911928586358;-0.99945068359375;-0.504150390625;2.94999999255197;296;1 A;
56.0011928586106;-0.999755859375;-0.50384521484375;2.95999999252672;297;1 A;
56.0111928585853;-1.00006103515625;-0.504150390625;2.96999999250147;298;1 A;
56.0211928585601;-0.999755859375;-0.5072021484375;2.97999999247622;299;1 A;
56.0311928585348;-0.999755859375;-0.50506591796875;2.98999999245098;300;1 A;
56.0411928585096;-1.00006103515625;-0.5059814453125;2.99999999242573;301;1 A;
56.0511928584843;-1.00006103515625;-0.50628662109375;3.00999999240048;302;1 A;
56.0611928584591;-0.99945068359375;-0.50567626953125;3.01999999237523;303;1 A;
56.0711928584338;-0.999755859375;-0.5059814453125;3.02999999234999;304;1 A;
56.0811928584086;-0.999755859375;-0.50537109375;3.03999999232474;305;1 A;
56.0911928583834;-1.00006103515625;-0.50537109375;3.04999999229949;306;1 A;
56.1011928583581;-0.999755859375;-0.5047607421875;3.05999999227424;307;1 A;
56.1111928583329;-0.99945068359375;-0.50689697265625;3.069999992249;308;1 A;
56.1211928583076;-0.99945068359375;-0.50567626953125;3.07999999222375;309;1 A;
56.1311928582824;-0.999755859375;-0.5059814453125;3.0899999921985;310;1 A;
56.1411928582571;-1.00006103515625;-0.50872802734375;3.09999999217325;311;1 A;
56.1511928582319;-1.00006103515625;-0.509033203125;3.109999992148;312;1 A;
56.1611928582066;-0.999755859375;-0.51361083984375;3.11999999212276;313;1 A;
56.1711928581814;-0.999755859375;-0.51300048828125;3.12999999209751;314;1 A;
56.1811928581561;-0.999755859375;-0.5133056640625;3.13999999207226;315;1 A;
56.1911928581309;-0.999755859375;-0.51422119140625;3.14999999204701;316;1 A;
56.2011928581056;-0.99945068359375;-0.51422119140625;3.15999999202177;317;1 A;
56.2111928580804;-0.999755859375;-0.5157470703125;3.16999999199652;318;1 A;
56.2211928580551;-0.999755859375;-0.5133056640625;3.17999999197127;319;1 A;
56.2311928580299;-0.999755859375;-0.51513671875;3.18999999194602;320;1 A;
56.2411928580046;-0.999755859375;-0.5126953125;3.19999999192078;321;1 A;
56.2511928579794;-0.9991455078125;-0.511474609375;3.20999999189553;322;1 A;
56.2611928579541;-0.99945068359375;-0.5120849609375;3.21999999187028;323;1 A;
56.2711928579289;-0.999755859375;-0.50750732421875;3.22999999184503;324;1 A;
56.2811928579036;-0.99945068359375;-0.50811767578125;3.23999999181979;325;1 A;
56.2911928578784;-1.00006103515625;-0.50689697265625;3.24999999179454;326;1 A;
56.3011928578532;-1.00006103515625;-0.5059814453125;3.25999999176929;327;1 A;
56.3111928578279;-1.00006103515625;-0.50628662109375;3.26999999174404;328;1 A;
56.3211928578027;-0.9991455078125;-0.504150390625;3.2799999917188;329;1 A;
56.3311928577774;-0.999755859375;-0.5035400390625;3.28999999169355;330;1 A;
56.3411928577522;-0.999755859375;-0.50323486328125;3.2999999916683;331;1 A;
56.3511928577269;-0.99945068359375;-0.50567626953125;3.30999999164305;332;1 A;
56.3611928577017;-0.99945068359375;-0.50445556640625;3.31999999161781;333;1 A;
56.3711928576764;-0.99945068359375;-0.50506591796875;3.32999999159256;334;1 A;
56.3811928576512;-0.999755859375;-0.50537109375;3.33999999156731;335;1 A;
56.3911928576259;-0.9991455078125;-0.504150390625;3.34999999154206;336;1 A;
56.4011928576007;-0.99945068359375;-0.50811767578125;3.35999999151682;337;1 A;
56.4111928575754;-1.00006103515625;-0.50628662109375;3.36999999149157;338;1 A;
56.4211928575502;-1.00006103515625;-0.50689697265625;3.37999999146632;339;1 A;
56.4311928575249;-1.00006103515625;-0.50811767578125;3.38999999144107;340;1 A;
56.4411928574997;-1.00006103515625;-0.50750732421875;3.39999999141583;341;1 A;
56.4511928574744;-0.99945068359375;-0.5096435546875;3.40999999139058;342;1 A;
56.4611928574492;-0.999755859375;-0.50750732421875;3.41999999136533;343;1 A;
56.4711928574239;-0.999755859375;-0.50933837890625;3.42999999134008;344;1 A;
56.4811928573987;-0.99945068359375;-0.50750732421875;3.43999999131483;345;1 A;
56.4911928573734;-0.999755859375;-0.50750732421875;3.44999999128959;346;1 A;
56.5011928573482;-0.999755859375;-0.50872802734375;3.45999999126434;347;1 A;
56.511192857323;-0.9991455078125;-0.5047607421875;3.46999999123909;348;1 A;
56.5211928572977;-0.999755859375;-0.509033203125;3.47999999121384;349;1 A;
56.5311928572725;-0.999755859375;-0.50872802734375;3.4899999911886;350;1 A;
56.5411928572472;-0.99945068359375;-0.50994873046875;3.49999999116335;351;1 A;
56.551192857222;-0.999755859375;-0.51361083984375;3.5099999911381;352;1 A;
56.5611928571967;-0.999755859375;-0.5126953125;3.51999999111285;353;1 A;
56.5711928571715;-1.00006103515625;-0.5133056640625;3.52999999108761;354;1 A;
56.5811928571462;-1.00006103515625;-0.51422119140625;3.53999999106236;355;1 A;
56.591192857121;-0.999755859375;-0.51605224609375;3.54999999103711;356;1 A;
56.6011928570957;-0.999755859375;-0.51544189453125;3.55999999101186;357;1 A;
56.6111928570705;-0.999755859375;-0.5169677734375;3.56999999098662;358;1 A;
56.6211928570452;-0.999755859375;-0.51605224609375;3.57999999096137;359;1 A;
56.63119285702;-0.999755859375;-0.51605224609375;3.58999999093612;360;1 A;
56.6411928569947;-0.999755859375;-0.52032470703125;3.59999999091087;361;1 A;
56.6511928569695;-0.99945068359375;-0.518798828125;3.60999999088563;362;1 A;
56.6611928569442;-0.99945068359375;-0.51971435546875;3.61999999086038;363;1 A;
56.671192856919;-1.00006103515625;-0.52093505859375;3.62999999083513;364;1 A;
56.6811928568937;-0.999755859375;-0.51971435546875;3.63999999080988;365;1 A;
56.6911928568685;-1.00006103515625;-0.52154541015625;3.64999999078464;366;1 A;
56.7011928568432;-0.999755859375;-0.51849365234375;3.65999999075939;367;1 A;
56.711192856818;-0.999755859375;-0.51971435546875;3.66999999073414;368;1 A;
56.7211928567928;-0.99945068359375;-0.51666259765625;3.67999999070889;369;1 A;
56.7311928567675;-1.00067138671875;-0.51605224609375;3.68999999068365;370;1 A;
56.7411928567423;-0.99945068359375;-0.51513671875;3.6999999906584;371;1 A;
56.751192856717;-0.99945068359375;-0.50994873046875;3.70999999063315;372;1 A;
56.7611928566918;-0.999755859375;-0.51300048828125;3.7199999906079;373;1 A;
56.7711928566665;-1.00006103515625;-0.509033203125;3.72999999058266;374;1 A;
56.7811928566413;-1.00006103515625;-0.50994873046875;3.73999999055741;375;1 A;
56.791192856616;-0.999755859375;-0.51177978515625;3.74999999053216;376;1 A;
56.8011928565908;-0.99945068359375;-0.509033203125;3.75999999050691;377;1 A;
56.8111928565655;-0.999755859375;-0.51025390625;3.76999999048167;378;1 A;
56.8211928565403;-1.00006103515625;-0.51055908203125;3.77999999045642;379;1 A;
56.831192856515;-0.9991455078125;-0.51239013671875;3.78999999043117;380;1 A;
56.8411928564898;-0.999755859375;-0.5120849609375;3.79999999040592;381;1 A;
56.8511928564645;-0.999755859375;-0.51361083984375;3.80999999038067;382;1 A;
56.8611928564393;-0.9991455078125;-0.5120849609375;3.81999999035543;383;1 A;
56.871192856414;-0.999755859375;-0.51055908203125;3.82999999033018;384;1 A;
56.8811928563888;-1.00006103515625;-0.51666259765625;3.83999999030493;385;1 A;
56.8911928563635;-0.999755859375;-0.51483154296875;3.84999999027968;386;1 A;
56.9011928563383;-1.00006103515625;-0.51727294921875;3.85999999025444;387;1 A;
56.9111928563131;-1.00006103515625;-0.51971435546875;3.86999999022919;388;1 A;
56.9211928562878;-0.99945068359375;-0.51666259765625;3.87999999020394;389;1 A;
56.9311928562626;-0.999755859375;-0.52032470703125;3.88999999017869;390;1 A;
56.9411928562373;-1.00006103515625;-0.51666259765625;3.89999999015345;391;1 A;
56.9511928562121;-0.99945068359375;-0.517578125;3.9099999901282;392;1 A;
56.9611928561868;-0.999755859375;-0.51605224609375;3.91999999010295;393;1 A;
56.9711928561616;-0.99945068359375;-0.51605224609375;3.9299999900777;394;1 A;
56.9811928561363;-0.999755859375;-0.51605224609375;3.93999999005246;395;1 A;
56.9911928561111;-0.99945068359375;-0.511474609375;3.94999999002721;396;1 A;
57.0011928560858;-0.9991455078125;-0.51666259765625;3.95999999000196;397;1 A;
57.0111928560606;-1.0003662109375;-0.51300048828125;3.96999998997671;398;1 A;
57.0211928560353;-0.999755859375;-0.51605224609375;3.97999998995147;399;1 A;
57.0311928560101;-0.99945068359375;-0.5181884765625;3.98999998992622;400;1 A;
57.0411928559848;-0.999755859375;-0.51605224609375;3.99999998990097;401;1 A;
57.0511928559596;-0.999755859375;-0.51849365234375;4.00999998987572;402;1 A;
57.0611928559343;-0.999755859375;-0.518798828125;4.01999998985048;403;1 A;
57.0711928559091;-0.99945068359375;-0.521240234375;4.02999998982523;404;1 A;
57.0811928558838;-0.999755859375;-0.52154541015625;4.03999998979998;405;1 A;
57.0911928558586;-0.999755859375;-0.52337646484375;4.04999998977473;406;1 A;
57.1011928558333;-0.99945068359375;-0.5206298828125;4.05999998974949;407;1 A;
57.1111928558081;-0.999755859375;-0.51849365234375;4.06999998972424;408;1 A;
57.1211928557829;-0.999755859375;-0.523681640625;4.07999998969899;409;1 A;
57.1311928557576;-1.00006103515625;-0.518798828125;4.08999998967374;410;1 A;
57.1411928557324;-0.99945068359375;-0.52093505859375;4.0999999896485;411;1 A;
57.1511928557071;-0.99945068359375;-0.5218505859375;4.10999998962325;412;1 A;
57.1611928556819;-0.99945068359375;-0.51788330078125;4.119999989598;413;1 A;
57.1711928556566;-0.999755859375;-0.523681640625;4.12999998957275;414;1 A;
57.1811928556314;-1.00006103515625;-0.52032470703125;4.1399999895475;415;1 A;
57.1911928556061;-0.99945068359375;-0.52154541015625;4.14999998952226;416;1 A;
57.2011928555809;-0.99945068359375;-0.52154541015625;4.15999998949701;417;1 A;
57.2111928555556;-0.999755859375;-0.52093505859375;4.16999998947176;418;1 A;
57.2211928555304;-0.999755859375;-0.52093505859375;4.17999998944651;419;1 A;
57.2311928555051;-0.99945068359375;-0.516357421875;4.18999998942127;420;1 A;
57.2411928554799;-0.99945068359375;-0.52001953125;4.19999998939602;421;1 A;
57.2511928554546;-0.999755859375;-0.51483154296875;4.20999998937077;422;1 A;
57.2611928554294;-0.99945068359375;-0.51666259765625;4.21999998934552;423;1 A;
57.2711928554041;-0.99945068359375;-0.51544189453125;4.22999998932028;424;1 A;
57.2811928553789;-0.999755859375;-0.51116943359375;4.23999998929503;425;1 A;
57.2911928553536;-1.00006103515625;-0.51239013671875;4.24999998926978;426;1 A;
57.3011928553284;-0.999755859375;-0.5096435546875;4.25999998924453;427;1 A;
57.3111928553031;-1.00006103515625;-0.5096435546875;4.26999998921929;428;1 A;
57.3211928552779;-0.999755859375;-0.5078125;4.27999998919404;429;1 A;
57.3311928552527;-1.00006103515625;-0.5084228515625;4.28999998916879;430;1 A;
57.3411928552274;-0.99945068359375;-0.50384521484375;4.29999998914354;431;1 A;
57.3511928552022;-0.999755859375;-0.50201416015625;4.3099999891183;432;1 A;
57.3611928551769;-0.999755859375;-0.50689697265625;4.31999998909305;433;1 A;
57.3711928551517;-0.999755859375;-0.501708984375;4.3299999890678;434;1 A;
57.3811928551264;-1.00006103515625;-0.50628662109375;4.33999998904255;435;1 A;
57.3911928551012;-0.99945068359375;-0.50384521484375;4.34999998901731;436;1 A;
57.4011928550759;-1.00067138671875;-0.4986572265625;4.35999998899206;437;1 A;
57.4111928550507;-0.999755859375;-0.50537109375;4.36999998896681;438;1 A;
57.4211928550254;-0.999755859375;-0.4998779296875;4.37999998894156;439;1 A;
57.4311928550002;-0.999755859375;-0.5035400390625;4.38999998891632;440;1 A;
57.4411928549749;-1.0003662109375;-0.504150390625;4.39999998889107;441;1 A;
57.4511928549497;-1.00006103515625;-0.50262451171875;4.40999998886582;442;1 A;
57.4611928549244;-0.999755859375;-0.5029296875;4.41999998884057;443;1 A;
57.4711928548992;-1.00006103515625;-0.496826171875;4.42999998881533;444;1 A;
57.4811928548739;-0.999755859375;-0.49835205078125;4.43999998879008;445;1 A;
57.4911928548487;-0.99945068359375;-0.492584228515625;4.44999998876483;446;1 A;
57.5011928548234;-0.99945068359375;-0.4949951171875;4.45999998873958;447;1 A;
57.5111928547982;-1.00006103515625;-0.496063232421875;4.46999998871433;448;1 A;
57.5211928547729;-0.999755859375;-0.4927978515625;4.47999998868909;449;1 A;
57.5311928547477;-0.999755859375;-0.496826171875;4.48999998866384;450;1 A;
57.5411928547225;-0.99945068359375;-0.4932861328125;4.49999998863859;451;1 A;
57.5511928546972;-1.00006103515625;-0.49456787109375;4.50999998861334;452;1 A;
57.561192854672;-0.999755859375;-0.493255615234375;4.5199999885881;453;1 A;
57.5711928546467;-0.99945068359375;-0.494384765625;4.52999998856285;454;1 A;
57.5811928546215;-0.999755859375;-0.491607666015625;4.5399999885376;455;1 A;
57.5911928545962;-0.999755859375;-0.492218017578125;4.54999998851235;456;1 A;
57.601192854571;-0.99945068359375;-0.497650146484375;4.55999998848711;457;1 A;
57.6111928545457;-1.00006103515625;-0.493804931640625;4.56999998846186;458;1 A;
57.6211928545205;-0.999755859375;-0.50018310546875;4.57999998843661;459;1 A;
57.6311928544952;-0.999755859375;-0.4942626953125;4.58999998841136;460;1 A;
57.64119285447;-1.00006103515625;-0.4906005859375;4.59999998838612;461;1 A;
57.6511928544447;-0.99945068359375;-0.49774169921875;4.60999998836087;462;1 A;
57.6611928544195;-0.9991455078125;-0.489044189453125;4.61999998833562;463;1 A;
57.6711928543942;-0.9991455078125;-0.4932861328125;4.62999998831037;464;1 A;
57.681192854369;-0.999755859375;-0.492523193359375;4.63999998828513;465;1 A;
57.6911928543437;-0.9991455078125;-0.489410400390625;4.64999998825988;466;1 A;
57.7011928543185;-0.9991455078125;-0.491729736328125;4.65999998823463;467;1 A;
57.7111928542932;-0.99945068359375;-0.487091064453125;4.66999998820938;468;1 A;
57.721192854268;-1.00006103515625;-0.49102783203125;4.67999998818414;469;1 A;
57.7311928542427;-0.999755859375;-0.487884521484375;4.68999998815889;470;1 A;
57.7411928542175;-0.99945068359375;-0.4920654296875;4.69999998813364;471;1 A;
57.7511928541923;-0.9991455078125;-0.49212646484375;4.70999998810839;472;1 A;
57.761192854167;-0.99945068359375;-0.48846435546875;4.71999998808315;473;1 A;
57.7711928541418;-0.99945068359375;-0.494720458984375;4.7299999880579;474;1 A;
57.7811928541165;-0.99884033203125;-0.488739013671875;4.73999998803265;475;1 A;
57.7911928540913;-0.99945068359375;-0.493682861328125;4.7499999880074;476;1 A;
57.801192854066;-0.99945068359375;-0.492523193359375;4.75999998798216;477;1 A;
57.8111928540408;-0.99945068359375;-0.492218017578125;4.76999998795691;478;1 A;
57.8211928540155;-0.9991455078125;-0.490325927734375;4.77999998793166;479;1 A;
57.8311928539903;-1.00006103515625;-0.490570068359375;4.78999998790641;480;1 A;
57.841192853965;-0.99945068359375;-0.49530029296875;4.79999998788116;481;1 A;
57.8511928539398;-0.999755859375;-0.4923095703125;4.80999998785592;482;1 A;
57.8611928539145;-0.999755859375;-0.50079345703125;4.81999998783067;483;1 A;
57.8711928538893;-0.999755859375;-0.495513916015625;4.82999998780542;484;1 A;
57.881192853864;-0.99945068359375;-0.49407958984375;4.83999998778017;485;1 A;
57.8911928538388;-1.00006103515625;-0.5023193359375;4.84999998775493;486;1 A;
57.9011928538135;-0.99945068359375;-0.493743896484375;4.85999998772968;487;1 A;
57.9111928537883;-0.99945068359375;-0.49896240234375;4.86999998770443;488;1 A;
57.921192853763;-0.999755859375;-0.49957275390625;4.87999998767918;489;1 A;
57.9311928537378;-0.999755859375;-0.495513916015625;4.88999998765394;490;1 A;
57.9411928537126;-0.999755859375;-0.50018310546875;4.89999998762869;491;1 A;
57.9511928536873;-0.99945068359375;-0.49530029296875;4.90999998760344;492;1 A;
57.9611928536621;-1.0003662109375;-0.49835205078125;4.91999998757819;493;1 A;
57.9711928536368;-0.99945068359375;-0.49530029296875;4.92999998755295;494;1 A;
57.9811928536116;-0.9991455078125;-0.5010986328125;4.9399999875277;495;1 A;
57.9911928535863;-1.00006103515625;-0.4998779296875;4.94999998750245;496;1 A;
58.0011928535611;-0.9991455078125;-0.4974365234375;4.9599999874772;497;1 A;
58.0111928535358;-0.99945068359375;-0.50445556640625;4.96999998745196;498;1 A;
58.0211928535106;-1.0003662109375;-0.49560546875;4.97999998742671;499;1 A;
58.0311928534853;-0.999755859375;-0.50384521484375;4.98999998740146;500;1 A;
58.0411928534601;-0.999755859375;-0.50262451171875;4.99999998737621;501;1 A;
58.0511928534348;-0.99945068359375;-0.5029296875;5.00999998735097;502;1 A;
58.0611928534096;-0.999755859375;-0.50384521484375;5.01999998732572;503;1 A;
58.0711928533843;-0.999755859375;-0.5029296875;5.02999998730047;504;1 A;
58.0811928533591;-0.999755859375;-0.50994873046875;5.03999998727522;505;1 A;
58.0911928533338;-0.999755859375;-0.50750732421875;5.04999998724998;506;1 A;
58.1011928533086;-1.00006103515625;-0.516357421875;5.05999998722473;507;1 A;
58.1111928532833;-0.9991455078125;-0.51025390625;5.06999998719948;508;1 A;
58.1211928532581;-0.999755859375;-0.50811767578125;5.07999998717423;509;1 A;
58.1311928532328;-0.99945068359375;-0.5157470703125;5.08999998714899;510;1 A;
58.1411928532076;-0.99884033203125;-0.50506591796875;5.09999998712374;511;1 A;
58.1511928531824;-0.999755859375;-0.51116943359375;5.10999998709849;512;1 A;
58.1611928531571;-0.99945068359375;-0.511474609375;5.11999998707324;513;1 A;
58.1711928531319;-1.00006103515625;-0.50689697265625;5.129999987048;514;1 A;
58.1811928531066;-1.00006103515625;-0.51300048828125;5.13999998702275;515;1 A;
58.1911928530814;-1.00006103515625;-0.5078125;5.1499999869975;516;1 A;
58.2011928530561;-1.00006103515625;-0.5084228515625;5.15999998697225;517;1 A;
58.2111928530309;-0.999755859375;-0.506591796875;5.169999986947;518;1 A;
58.2211928530056;-0.999755859375;-0.5120849609375;5.17999998692176;519;1 A;
58.2311928529804;-1.00006103515625;-0.51239013671875;5.18999998689651;520;1 A;
58.2411928529551;-1.00006103515625;-0.511474609375;5.19999998687126;521;1 A;
58.2511928529299;-0.9991455078125;-0.52032470703125;5.20999998684601;522;1 A;
58.2611928529046;-0.999755859375;-0.5133056640625;5.21999998682077;523;1 A;
58.2711928528794;-0.99945068359375;-0.52490234375;5.22999998679552;524;1 A;
58.2811928528541;-0.999755859375;-0.52215576171875;5.23999998677027;525;1 A;
58.2911928528289;-0.999755859375;-0.52093505859375;5.24999998674502;526;1 A;
58.3011928528036;-0.999755859375;-0.52337646484375;5.25999998671978;527;1 A;
58.3111928527784;-1.00006103515625;-0.52001953125;5.26999998669453;528;1 A;
58.3211928527531;-1.0003662109375;-0.5255126953125;5.27999998666928;529;1 A;
58.3311928527279;-1.00006103515625;-0.5224609375;5.28999998664403;530;1 A;
58.3411928527026;-0.999755859375;-0.53070068359375;5.29999998661879;531;1 A;
58.3511928526774;-0.999755859375;-0.52337646484375;5.30999998659354;532;1 A;
58.3611928526522;-0.999755859375;-0.51971435546875;5.31999998656829;533;1 A;
58.3711928526269;-0.999755859375;-0.5267333984375;5.32999998654304;534;1 A;
58.3811928526017;-0.99945068359375;-0.51605224609375;5.3399999865178;535;1 A;
58.3911928525764;-1.00006103515625;-0.52520751953125;5.34999998649255;536;1 A;
58.4011928525512;-0.99945068359375;-0.5242919921875;5.3599999864673;537;1 A;
58.4111928525259;-0.999755859375;-0.52001953125;5.36999998644205;538;1 A;
58.4211928525007;-0.99945068359375;-0.52947998046875;5.37999998641681;539;1 A;
58.4311928524754;-0.99945068359375;-0.5224609375;5.38999998639156;540;1 A;
58.4411928524502;-0.99945068359375;-0.52459716796875;5.39999998636631;541;1 A;
58.4511928524249;-0.99945068359375;-0.52398681640625;5.40999998634106;542;1 A;
58.4611928523997;-1.00006103515625;-0.5255126953125;5.41999998631582;543;1 A;
58.4711928523744;-0.9991455078125;-0.52398681640625;5.42999998629057;544;1 A;
58.4811928523492;-1.00006103515625;-0.5230712890625;5.43999998626532;545;1 A;
58.4911928523239;-0.999755859375;-0.5267333984375;5.44999998624007;546;1 A;
58.5011928522987;-0.99945068359375;-0.517578125;5.45999998621483;547;1 A;
58.5111928522734;-0.999755859375;-0.52825927734375;5.46999998618958;548;1 A;
58.5211928522482;-0.999755859375;-0.5218505859375;5.47999998616433;549;1 A;
58.5311928522229;-1.00006103515625;-0.5206298828125;5.48999998613908;550;1 A;
58.5411928521977;-1.00006103515625;-0.5224609375;5.49999998611383;551;1 A;
58.5511928521724;-1.00067138671875;-0.51605224609375;5.50999998608859;552;1 A;
58.5611928521472;-0.9991455078125;-0.5218505859375;5.51999998606334;553;1 A;
58.571192852122;-1.00006103515625;-0.5169677734375;5.52999998603809;554;1 A;
58.5811928520967;-0.999755859375;-0.52490234375;5.53999998601284;555;1 A;
58.5911928520715;-0.999755859375;-0.51727294921875;5.5499999859876;556;1 A;
58.6011928520462;-0.999755859375;-0.51544189453125;5.55999998596235;557;1 A;
58.611192852021;-0.99945068359375;-0.523681640625;5.5699999859371;558;1 A;
58.6211928519957;-1.00006103515625;-0.51177978515625;5.57999998591185;559;1 A;
58.6311928519705;-0.99945068359375;-0.52459716796875;5.58999998588661;560;1 A;
58.6411928519452;-0.99945068359375;-0.517578125;5.59999998586136;561;1 A;
58.65119285192;-0.999755859375;-0.5120849609375;5.60999998583611;562;1 A;
58.6611928518947;-0.99945068359375;-0.5224609375;5.61999998581086;563;1 A;
58.6711928518695;-0.99945068359375;-0.51239013671875;5.62999998578562;564;1 A;
58.6811928518442;-0.999755859375;-0.51605224609375;5.63999998576037;565;1 A;
58.691192851819;-1.00006103515625;-0.5169677734375;5.64999998573512;566;1 A;
58.7011928517937;-0.99945068359375;-0.517578125;5.65999998570987;567;1 A;
58.7111928517685;-0.9991455078125;-0.51788330078125;5.66999998568463;568;1 A;
58.7211928517432;-0.999755859375;-0.51605224609375;5.67999998565938;569;1 A;
58.731192851718;-1.00006103515625;-0.52001953125;5.68999998563413;570;1 A;
58.7411928516927;-1.00006103515625;-0.5120849609375;5.69999998560888;571;1 A;
58.7511928516675;-1.0003662109375;-0.52337646484375;5.70999998558364;572;1 A;
58.7611928516422;-0.99945068359375;-0.51849365234375;5.71999998555839;573;1 A;
58.771192851617;-0.999755859375;-0.518798828125;5.72999998553314;574;1 A;
58.7811928515918;-0.99945068359375;-0.52398681640625;5.73999998550789;575;1 A;
58.7911928515665;-0.999755859375;-0.5157470703125;5.74999998548265;576;1 A;
58.8011928515413;-0.999755859375;-0.5230712890625;5.7599999854574;577;1 A;
58.811192851516;-0.99945068359375;-0.51849365234375;5.76999998543215;578;1 A;
58.8211928514908;-1.0003662109375;-0.52490234375;5.7799999854069;579;1 A;
58.8311928514655;-0.999755859375;-0.51849365234375;5.78999998538166;580;1 A;
58.8411928514403;-0.99945068359375;-0.51849365234375;5.79999998535641;581;1 A;
58.851192851415;-1.00006103515625;-0.5255126953125;5.80999998533116;582;1 A;
58.8611928513898;-0.999755859375;-0.516357421875;5.81999998530591;583;1 A;
58.8711928513645;-0.99945068359375;-0.5328369140625;5.82999998528066;584;1 A;
58.8811928513393;-1.00006103515625;-0.52276611328125;5.83999998525542;585;1 A;
58.891192851314;-0.9991455078125;-0.5218505859375;5.84999998523017;586;1 A;
58.9011928512888;-0.999755859375;-0.53436279296875;5.85999998520492;587;1 A;
58.9111928512635;-0.99945068359375;-0.52154541015625;5.86999998517967;588;1 A;
58.9211928512383;-0.999755859375;-0.5291748046875;5.87999998515443;589;1 A;
58.931192851213;-0.999755859375;-0.53009033203125;5.88999998512918;590;1 A;
58.9411928511878;-0.99945068359375;-0.52947998046875;5.89999998510393;591;1 A;
58.9511928511625;-0.99945068359375;-0.531005859375;5.90999998507868;592;1 A;
58.9611928511373;-0.99945068359375;-0.52703857421875;5.91999998505344;593;1 A;
58.9711928511121;-1.00006103515625;-0.52734375;5.92999998502819;594;1 A;
58.9811928510868;-1.0003662109375;-0.52032470703125;5.93999998500294;595;1 A;
58.9911928510616;-0.99945068359375;-0.531005859375;5.94999998497769;596;1 A;
59.0011928510363;-1.0003662109375;-0.526123046875;5.95999998495245;597;1 A;
59.0111928510111;-1.0003662109375;-0.5242919921875;5.9699999849272;598;1 A;
59.0211928509858;-0.999755859375;-0.5322265625;5.97999998490195;599;1 A;
59.0311928509606;-0.99945068359375;-0.5218505859375;5.9899999848767;600;1 A;
59.0411928509353;-0.999755859375;-0.5316162109375;5.99999998485146;601;1 A;
59.0511928509101;-0.9991455078125;-0.52703857421875;6.00999998482621;602;1 A;
59.0611928508848;-0.999755859375;-0.53253173828125;6.01999998480096;603;1 A;
59.0711928508596;-0.99945068359375;-0.531005859375;6.02999998477571;604;1 A;
59.0811928508343;-1.00006103515625;-0.5322265625;6.03999998475047;605;1 A;
59.0911928508091;-1.00006103515625;-0.53741455078125;6.04999998472522;606;1 A;
59.1011928507838;-1.00006103515625;-0.5291748046875;6.05999998469997;607;1 A;
59.1111928507586;-0.999755859375;-0.545654296875;6.06999998467472;608;1 A;
59.1211928507333;-0.999755859375;-0.5340576171875;6.07999998464948;609;1 A;
59.1311928507081;-0.999755859375;-0.53466796875;6.08999998462423;610;1 A;
59.1411928506828;-0.999755859375;-0.54534912109375;6.09999998459898;611;1 A;
59.1511928506576;-1.00006103515625;-0.5316162109375;6.10999998457373;612;1 A;
59.1611928506323;-0.9991455078125;-0.54168701171875;6.11999998454849;613;1 A;
59.1711928506071;-0.999755859375;-0.54229736328125;6.12999998452324;614;1 A;
59.1811928505819;-0.99945068359375;-0.5413818359375;6.13999998449799;615;1 A;
59.1911928505566;-0.99945068359375;-0.54412841796875;6.14999998447274;616;1 A;
59.2011928505314;-0.99945068359375;-0.540771484375;6.1599999844475;617;1 A;
59.2111928505061;-0.99945068359375;-0.5389404296875;6.16999998442225;618;1 A;
59.2211928504809;-0.99945068359375;-0.531005859375;6.179999984397;619;1 A;
59.2311928504556;-0.999755859375;-0.5438232421875;6.18999998437175;620;1 A;
59.2411928504304;-1.00006103515625;-0.53558349609375;6.1999999843465;621;1 A;
59.2511928504051;-1.00006103515625;-0.537109375;6.20999998432126;622;1 A;
59.2611928503799;-0.999755859375;-0.54290771484375;6.21999998429601;623;1 A;
59.2711928503546;-0.99945068359375;-0.5267333984375;6.22999998427076;624;1 A;
59.2811928503294;-0.999755859375;-0.54107666015625;6.23999998424551;625;1 A;
59.2911928503041;-1.00006103515625;-0.5322265625;6.24999998422027;626;1 A;
59.3011928502789;-0.999755859375;-0.53466796875;6.25999998419502;627;1 A;
59.3111928502536;-1.00006103515625;-0.5340576171875;6.26999998416977;628;1 A;
59.3211928502284;-0.99945068359375;-0.52825927734375;6.27999998414452;629;1 A;
59.3311928502031;-0.999755859375;-0.53375244140625;6.28999998411928;630;1 A;
59.3411928501779;-1.00006103515625;-0.52520751953125;6.29999998409403;631;1 A;
59.3511928501526;-1.00006103515625;-0.53985595703125;6.30999998406878;632;1 A;
59.3611928501274;-1.0003662109375;-0.52734375;6.31999998404353;633;1 A;
59.3711928501021;-0.999755859375;-0.52642822265625;6.32999998401829;634;1 A;
59.3811928500769;-1.00006103515625;-0.53466796875;6.33999998399304;635;1 A;
59.3911928500517;-0.99945068359375;-0.521240234375;6.34999998396779;636;1 A;
59.4011928500264;-0.999755859375;-0.531005859375;6.35999998394254;637;1 A;
59.4111928500012;-0.999755859375;-0.52947998046875;6.3699999839173;638;1 A;
59.4211928499759;-0.999755859375;-0.52581787109375;6.37999998389205;639;1 A;
59.4311928499507;-1.00006103515625;-0.53131103515625;6.3899999838668;640;1 A;
59.4411928499254;-0.999755859375;-0.53009033203125;6.39999998384155;641;1 A;
59.4511928499002;-0.999755859375;-0.52642822265625;6.40999998381631;642;1 A;
59.4611928498749;-1.00006103515625;-0.5230712890625;6.41999998379106;643;1 A;
59.4711928498497;-0.999755859375;-0.535888671875;6.42999998376581;644;1 A;
59.4811928498244;-0.999755859375;-0.52825927734375;6.43999998374056;645;1 A;
59.4911928497992;-0.999755859375;-0.53680419921875;6.44999998371532;646;1 A;
59.5011928497739;-1.00006103515625;-0.54046630859375;6.45999998369007;647;1 A;
59.5111928497487;-1.00006103515625;-0.52459716796875;6.46999998366482;648;1 A;
59.5211928497234;-0.99945068359375;-0.546875;6.47999998363957;649;1 A;
59.5311928496982;-0.999755859375;-0.53558349609375;6.48999998361433;650;1 A;
59.5411928496729;-0.99945068359375;-0.5419921875;6.49999998358908;651;1 A;
59.5511928496477;-1.00006103515625;-0.54473876953125;6.50999998356383;652;1 A;
59.5611928496224;-1.00006103515625;-0.53558349609375;6.51999998353858;653;1 A;
59.5711928495972;-0.99945068359375;-0.54534912109375;6.52999998351333;654;1 A;
59.5811928495719;-0.999755859375;-0.53802490234375;6.53999998348809;655;1 A;
59.5911928495467;-0.9991455078125;-0.55328369140625;6.54999998346284;656;1 A;
59.6011928495215;-0.999755859375;-0.5438232421875;6.55999998343759;657;1 A;
59.6111928494962;-0.99945068359375;-0.5438232421875;6.56999998341234;658;1 A;
59.621192849471;-0.999755859375;-0.55328369140625;6.5799999833871;659;1 A;
59.6311928494457;-0.99945068359375;-0.5389404296875;6.58999998336185;660;1 A;
59.6411928494205;-0.9991455078125;-0.55419921875;6.5999999833366;661;1 A;
59.6511928493952;-0.999755859375;-0.55023193359375;6.60999998331135;662;1 A;
59.66119284937;-1.0003662109375;-0.54595947265625;6.61999998328611;663;1 A;
59.6711928493447;-0.99945068359375;-0.55511474609375;6.62999998326086;664;1 A;
59.6811928493195;-1.0003662109375;-0.55145263671875;6.63999998323561;665;1 A;
59.6911928492942;-1.00006103515625;-0.546875;6.64999998321036;666;1 A;
59.701192849269;-1.00006103515625;-0.54534912109375;6.65999998318512;667;1 A;
59.7111928492437;-1.00006103515625;-0.55389404296875;6.66999998315987;668;1 A;
59.7211928492185;-0.999755859375;-0.5462646484375;6.67999998313462;669;1 A;
59.7311928491932;-0.99945068359375;-0.55511474609375;6.68999998310937;670;1 A;
59.741192849168;-0.9991455078125;-0.55511474609375;6.69999998308413;671;1 A;
59.7511928491427;-0.999755859375;-0.54168701171875;6.70999998305888;672;1 A;
59.7611928491175;-0.99945068359375;-0.5645751953125;6.71999998303363;673;1 A;
59.7711928490922;-0.99945068359375;-0.54901123046875;6.72999998300838;674;1 A;
59.781192849067;-0.99945068359375;-0.555419921875;6.73999998298314;675;1 A;
59.7911928490417;-0.99945068359375;-0.55999755859375;6.74999998295789;676;1 A;
59.8011928490165;-1.00006103515625;-0.5499267578125;6.75999998293264;677;1 A;
59.8111928489913;-0.999755859375;-0.55877685546875;6.76999998290739;678;1 A;
59.821192848966;-1.00006103515625;-0.55023193359375;6.77999998288215;679;1 A;
59.8311928489408;-0.999755859375;-0.56396484375;6.7899999828569;680;1 A;
59.8411928489155;-0.99945068359375;-0.55450439453125;6.79999998283165;681;1 A;
59.8511928488903;-0.999755859375;-0.55755615234375;6.8099999828064;682;1 A;
59.861192848865;-1.0003662109375;-0.5645751953125;6.81999998278116;683;1 A;
59.8711928488398;-1.0003662109375;-0.54840087890625;6.82999998275591;684;1 A;
59.8811928488145;-0.99945068359375;-0.5694580078125;6.83999998273066;685;1 A;
59.8911928487893;-1.00006103515625;-0.55572509765625;6.84999998270541;686;1 A;
59.901192848764;-0.999755859375;-0.55572509765625;6.85999998268016;687;1 A;
59.9111928487388;-0.99884033203125;-0.5633544921875;6.86999998265492;688;1 A;
59.9211928487135;-0.99945068359375;-0.5511474609375;6.87999998262967;689;1 A;
59.9311928486883;-1.00006103515625;-0.5511474609375;6.88999998260442;690;1 A;
59.941192848663;-0.99945068359375;-0.54962158203125;6.89999998257917;691;1 A;
59.9511928486378;-0.99945068359375;-0.55328369140625;6.90999998255393;692;1 A;
59.9611928486125;-0.999755859375;-0.548095703125;6.91999998252868;693;1 A;
59.9711928485873;-0.999755859375;-0.55389404296875;6.92999998250343;694;1 A;
59.981192848562;-0.999755859375;-0.54718017578125;6.93999998247818;695;1 A;
59.9911928485368;-0.999755859375;-0.53619384765625;6.94999998245294;696;1 A;
60.0011928485116;-0.999755859375;-0.556640625;6.95999998242769;697;1 A;
60.0111928484863;-0.999755859375;-0.54046630859375;6.96999998240244;698;1 A;
60.0211928484611;-0.999755859375;-0.54656982421875;6.97999998237719;699;1 A;
60.0311928484358;-0.99945068359375;-0.5517578125;6.98999998235195;700;1 A;
