Time (s);WE(1).Potential (V);WE(1).Current (A);Corrected time (s);Index;Current range;Overload
78.9008188007946;-0.90850830078125;-2.34222412109375;0;1;1 A;Current overload
78.9108188007693;-0.975341796875;-2.01812744140625;0.00999999997475243;2;1 A;Current overload
78.9208188007441;-1.05072021484375;-1.429443359375;0.0199999999495049;3;1 A;
78.9308188007188;-1.0504150390625;-1.1962890625;0.0299999999242573;4;1 A;
78.9408188006936;-1.0498046875;-1.05560302734375;0.0399999998990097;5;1 A;
78.9508188006683;-1.0498046875;-0.95794677734375;0.0499999998737621;6;1 A;
78.9608188006431;-1.04949951171875;-0.88470458984375;0.0599999998485146;7;1 A;
78.9708188006178;-1.0498046875;-0.828857421875;0.069999999823267;8;1 A;
78.9808188005926;-1.0498046875;-0.784912109375;0.0799999997980194;9;1 A;
78.9908188005674;-1.0498046875;-0.748291015625;0.0899999997727718;10;1 A;
79.0008188005421;-1.0498046875;-0.71685791015625;0.0999999997475243;11;1 A;
79.0108188005169;-1.04888916015625;-0.69000244140625;0.109999999722277;12;1 A;
79.0208188004916;-1.04949951171875;-0.667724609375;0.119999999697029;13;1 A;
79.0308188004664;-1.05010986328125;-0.64788818359375;0.129999999671782;14;1 A;
79.0408188004411;-1.04949951171875;-0.63201904296875;0.139999999646534;15;1 A;
79.0508188004159;-1.0498046875;-0.61737060546875;0.149999999621286;16;1 A;
79.0608188003906;-1.0491943359375;-0.60577392578125;0.159999999596039;17;1 A;
79.0708188003654;-1.0498046875;-0.59722900390625;0.169999999570791;18;1 A;
79.0808188003401;-1.0498046875;-0.58868408203125;0.179999999545544;19;1 A;
79.0908188003149;-1.04949951171875;-0.5816650390625;0.189999999520296;20;1 A;
79.1008188002896;-1.04949951171875;-0.57373046875;0.199999999495049;21;1 A;
79.1108188002644;-1.04949951171875;-0.56610107421875;0.209999999469801;22;1 A;
79.1208188002391;-1.04949951171875;-0.5596923828125;0.219999999444553;23;1 A;
79.1308188002139;-1.04949951171875;-0.55328369140625;0.229999999419306;24;1 A;
79.1408188001886;-1.04949951171875;-0.548095703125;0.239999999394058;25;1 A;
79.1508188001634;-1.0498046875;-0.54229736328125;0.249999999368811;26;1 A;
79.1608188001381;-1.0498046875;-0.53924560546875;0.259999999343563;27;1 A;
79.1708188001129;-1.0498046875;-0.53619384765625;0.269999999318316;28;1 A;
79.1808188000876;-1.0498046875;-0.53436279296875;0.279999999293068;29;1 A;
79.1908188000624;-1.04949951171875;-0.53497314453125;0.28999999926782;30;1 A;
79.2008188000372;-1.04949951171875;-0.53375244140625;0.299999999242573;31;1 A;
79.2108188000119;-1.0498046875;-0.53466796875;0.309999999217325;32;1 A;
79.2208187999867;-1.0504150390625;-0.53497314453125;0.319999999192078;33;1 A;
79.2308187999614;-1.0498046875;-0.53436279296875;0.32999999916683;34;1 A;
79.2408187999362;-1.04949951171875;-0.53375244140625;0.339999999141583;35;1 A;
79.2508187999109;-1.0498046875;-0.53314208984375;0.349999999116335;36;1 A;
79.2608187998857;-1.0491943359375;-0.53253173828125;0.359999999091087;37;1 A;
79.2708187998604;-1.04949951171875;-0.53192138671875;0.36999999906584;38;1 A;
79.2808187998352;-1.04949951171875;-0.531005859375;0.379999999040592;39;1 A;
79.2908187998099;-1.04949951171875;-0.52734375;0.389999999015345;40;1 A;
79.3008187997847;-1.04949951171875;-0.52520751953125;0.399999998990097;41;1 A;
79.3108187997594;-1.0498046875;-0.52398681640625;0.40999999896485;42;1 A;
79.3208187997342;-1.04949951171875;-0.52154541015625;0.419999998939602;43;1 A;
79.3308187997089;-1.04949951171875;-0.521240234375;0.429999998914354;44;1 A;
79.3408187996837;-1.0498046875;-0.51971435546875;0.439999998889107;45;1 A;
79.3508187996584;-1.04888916015625;-0.518798828125;0.449999998863859;46;1 A;
79.3608187996332;-1.04888916015625;-0.518798828125;0.459999998838612;47;1 A;
79.3708187996079;-1.0498046875;-0.5181884765625;0.469999998813364;48;1 A;
79.3808187995827;-1.05010986328125;-0.51727294921875;0.479999998788116;49;1 A;
79.3908187995575;-1.0498046875;-0.51513671875;0.489999998762869;50;1 A;
79.4008187995322;-1.0498046875;-0.51513671875;0.499999998737621;51;1 A;
79.410818799507;-1.04949951171875;-0.51422119140625;0.509999998712374;52;1 A;
79.4208187994817;-1.0498046875;-0.513916015625;0.519999998687126;53;1 A;
79.4308187994565;-1.0498046875;-0.5145263671875;0.529999998661879;54;1 A;
79.4408187994312;-1.0498046875;-0.5133056640625;0.539999998636631;55;1 A;
79.450818799406;-1.0491943359375;-0.51422119140625;0.549999998611383;56;1 A;
79.4608187993807;-1.0498046875;-0.5145263671875;0.559999998586136;57;1 A;
79.4708187993555;-1.0498046875;-0.51483154296875;0.569999998560888;58;1 A;
79.4808187993302;-1.0498046875;-0.51605224609375;0.579999998535641;59;1 A;
79.490818799305;-1.0498046875;-0.516357421875;0.589999998510393;60;1 A;
79.5008187992797;-1.04949951171875;-0.517578125;0.599999998485146;61;1 A;
79.5108187992545;-1.04949951171875;-0.51910400390625;0.609999998459898;62;1 A;
79.5208187992292;-1.0491943359375;-0.52001953125;0.61999999843465;63;1 A;
79.530818799204;-1.0498046875;-0.5181884765625;0.629999998409403;64;1 A;
79.5408187991787;-1.0491943359375;-0.5181884765625;0.639999998384155;65;1 A;
79.5508187991535;-1.04949951171875;-0.5181884765625;0.649999998358908;66;1 A;
79.5608187991282;-1.04949951171875;-0.5169677734375;0.65999999833366;67;1 A;
79.570818799103;-1.0491943359375;-0.5194091796875;0.669999998308413;68;1 A;
79.5808187990777;-1.0498046875;-0.5194091796875;0.679999998283165;69;1 A;
79.5908187990525;-1.0498046875;-0.52001953125;0.689999998257917;70;1 A;
79.6008187990273;-1.04949951171875;-0.5218505859375;0.69999999823267;71;1 A;
79.610818799002;-1.0498046875;-0.5230712890625;0.709999998207422;72;1 A;
79.6208187989768;-1.0491943359375;-0.52490234375;0.719999998182175;73;1 A;
79.6308187989515;-1.0498046875;-0.52581787109375;0.729999998156927;74;1 A;
79.6408187989263;-1.04949951171875;-0.52764892578125;0.73999999813168;75;1 A;
79.650818798901;-1.0498046875;-0.52764892578125;0.749999998106432;76;1 A;
79.6608187988758;-1.0498046875;-0.528564453125;0.759999998081184;77;1 A;
79.6708187988505;-1.04949951171875;-0.52886962890625;0.769999998055937;78;1 A;
79.6808187988253;-1.04949951171875;-0.52734375;0.779999998030689;79;1 A;
79.6908187988;-1.04949951171875;-0.5291748046875;0.789999998005442;80;1 A;
79.7008187987748;-1.04949951171875;-0.52886962890625;0.799999997980194;81;1 A;
79.7108187987495;-1.0498046875;-0.5291748046875;0.809999997954947;82;1 A;
79.7208187987243;-1.0498046875;-0.53009033203125;0.819999997929699;83;1 A;
79.730818798699;-1.0498046875;-0.52947998046875;0.829999997904451;84;1 A;
79.7408187986738;-1.04949951171875;-0.52978515625;0.839999997879204;85;1 A;
79.7508187986485;-1.04949951171875;-0.5291748046875;0.849999997853956;86;1 A;
79.7608187986233;-1.0498046875;-0.52825927734375;0.859999997828709;87;1 A;
79.770818798598;-1.05010986328125;-0.52520751953125;0.869999997803461;88;1 A;
79.7808187985728;-1.04949951171875;-0.52398681640625;0.879999997778214;89;1 A;
79.7908187985475;-1.04949951171875;-0.5218505859375;0.889999997752966;90;1 A;
79.8008187985223;-1.05010986328125;-0.5194091796875;0.899999997727718;91;1 A;
79.8108187984971;-1.04949951171875;-0.518798828125;0.909999997702471;92;1 A;
79.8208187984718;-1.0498046875;-0.516357421875;0.919999997677223;93;1 A;
79.8308187984466;-1.04949951171875;-0.51605224609375;0.929999997651976;94;1 A;
79.8408187984213;-1.0498046875;-0.51666259765625;0.939999997626728;95;1 A;
79.8508187983961;-1.04949951171875;-0.51666259765625;0.949999997601481;96;1 A;
79.8608187983708;-1.04949951171875;-0.51788330078125;0.959999997576233;97;1 A;
79.8708187983456;-1.04949951171875;-0.517578125;0.969999997550985;98;1 A;
79.8808187983203;-1.0498046875;-0.5169677734375;0.979999997525738;99;1 A;
79.8908187982951;-1.0498046875;-0.51544189453125;0.98999999750049;100;1 A;
79.9008187982698;-1.0498046875;-0.5145263671875;0.999999997475243;101;1 A;
79.9108187982446;-1.0498046875;-0.51300048828125;1.00999999745;102;1 A;
79.9208187982193;-1.0498046875;-0.5108642578125;1.01999999742475;103;1 A;
79.9308187981941;-1.04949951171875;-0.51177978515625;1.0299999973995;104;1 A;
79.9408187981688;-1.0498046875;-0.51177978515625;1.03999999737425;105;1 A;
79.9508187981436;-1.0491943359375;-0.5120849609375;1.049999997349;106;1 A;
79.9608187981183;-1.04949951171875;-0.5108642578125;1.05999999732376;107;1 A;
79.9708187980931;-1.0498046875;-0.5084228515625;1.06999999729851;108;1 A;
79.9808187980678;-1.0498046875;-0.5072021484375;1.07999999727326;109;1 A;
79.9908187980426;-1.04949951171875;-0.5059814453125;1.08999999724801;110;1 A;
80.0008187980173;-1.04949951171875;-0.50537109375;1.09999999722277;111;1 A;
80.0108187979921;-1.0498046875;-0.50384521484375;1.10999999719752;112;1 A;
80.0208187979669;-1.04949951171875;-0.50384521484375;1.11999999717227;113;1 A;
80.0308187979416;-1.0498046875;-0.5029296875;1.12999999714702;114;1 A;
80.0408187979164;-1.04949951171875;-0.50079345703125;1.13999999712178;115;1 A;
80.0508187978911;-1.05010986328125;-0.5010986328125;1.14999999709653;116;1 A;
80.0608187978659;-1.0491943359375;-0.499267578125;1.15999999707128;117;1 A;
80.0708187978406;-1.04888916015625;-0.49957275390625;1.16999999704603;118;1 A;
80.0808187978154;-1.04888916015625;-0.50048828125;1.17999999702079;119;1 A;
80.0908187977901;-1.0491943359375;-0.49957275390625;1.18999999699554;120;1 A;
80.1008187977649;-1.0491943359375;-0.50079345703125;1.19999999697029;121;1 A;
80.1108187977396;-1.04949951171875;-0.5010986328125;1.20999999694504;122;1 A;
80.1208187977144;-1.0498046875;-0.501708984375;1.2199999969198;123;1 A;
80.1308187976891;-1.0491943359375;-0.501708984375;1.22999999689455;124;1 A;
80.1408187976639;-1.0498046875;-0.50079345703125;1.2399999968693;125;1 A;
80.1508187976386;-1.04949951171875;-0.4986572265625;1.24999999684405;126;1 A;
80.1608187976134;-1.04949951171875;-0.495452880859375;1.25999999681881;127;1 A;
80.1708187975881;-1.0491943359375;-0.493927001953125;1.26999999679356;128;1 A;
80.1808187975629;-1.04949951171875;-0.4923095703125;1.27999999676831;129;1 A;
80.1908187975376;-1.0498046875;-0.4937744140625;1.28999999674306;130;1 A;
80.2008187975124;-1.0491943359375;-0.493316650390625;1.29999999671782;131;1 A;
80.2108187974871;-1.04949951171875;-0.494293212890625;1.30999999669257;132;1 A;
80.2208187974619;-1.0498046875;-0.495758056640625;1.31999999666732;133;1 A;
80.2308187974367;-1.04949951171875;-0.495574951171875;1.32999999664207;134;1 A;
80.2408187974114;-1.0498046875;-0.4952392578125;1.33999999661683;135;1 A;
80.2508187973862;-1.04949951171875;-0.493560791015625;1.34999999659158;136;1 A;
80.2608187973609;-1.04949951171875;-0.493560791015625;1.35999999656633;137;1 A;
80.2708187973357;-1.0498046875;-0.4932861328125;1.36999999654108;138;1 A;
80.2808187973104;-1.04949951171875;-0.4937744140625;1.37999999651583;139;1 A;
80.2908187972852;-1.04949951171875;-0.495086669921875;1.38999999649059;140;1 A;
80.3008187972599;-1.04888916015625;-0.493499755859375;1.39999999646534;141;1 A;
80.3108187972347;-1.04949951171875;-0.49603271484375;1.40999999644009;142;1 A;
80.3208187972094;-1.04888916015625;-0.49786376953125;1.41999999641484;143;1 A;
80.3308187971842;-1.0491943359375;-0.4986572265625;1.4299999963896;144;1 A;
80.3408187971589;-1.04949951171875;-0.50018310546875;1.43999999636435;145;1 A;
80.3508187971337;-1.0498046875;-0.499114990234375;1.4499999963391;146;1 A;
80.3608187971084;-1.04949951171875;-0.49884033203125;1.45999999631385;147;1 A;
80.3708187970832;-1.0498046875;-0.49884033203125;1.46999999628861;148;1 A;
80.3808187970579;-1.0498046875;-0.498260498046875;1.47999999626336;149;1 A;
80.3908187970327;-1.04949951171875;-0.496978759765625;1.48999999623811;150;1 A;
80.4008187970074;-1.04949951171875;-0.496673583984375;1.49999999621286;151;1 A;
80.4108187969822;-1.0491943359375;-0.497100830078125;1.50999999618762;152;1 A;
80.420818796957;-1.04949951171875;-0.49713134765625;1.51999999616237;153;1 A;
80.4308187969317;-1.0498046875;-0.499267578125;1.52999999613712;154;1 A;
80.4408187969065;-1.0498046875;-0.50048828125;1.53999999611187;155;1 A;
80.4508187968812;-1.0498046875;-0.5010986328125;1.54999999608663;156;1 A;
80.460818796856;-1.0491943359375;-0.5035400390625;1.55999999606138;157;1 A;
80.4708187968307;-1.04949951171875;-0.504150390625;1.56999999603613;158;1 A;
80.4808187968055;-1.0498046875;-0.50537109375;1.57999999601088;159;1 A;
80.4908187967802;-1.05010986328125;-0.50506591796875;1.58999999598564;160;1 A;
80.500818796755;-1.04949951171875;-0.50537109375;1.59999999596039;161;1 A;
80.5108187967297;-1.04949951171875;-0.50445556640625;1.60999999593514;162;1 A;
80.5208187967045;-1.04949951171875;-0.50384521484375;1.61999999590989;163;1 A;
80.5308187966792;-1.04949951171875;-0.50323486328125;1.62999999588465;164;1 A;
80.540818796654;-1.0498046875;-0.50018310546875;1.6399999958594;165;1 A;
80.5508187966287;-1.04949951171875;-0.50079345703125;1.64999999583415;166;1 A;
80.5608187966035;-1.04949951171875;-0.50018310546875;1.6599999958089;167;1 A;
80.5708187965782;-1.0491943359375;-0.5010986328125;1.66999999578366;168;1 A;
80.580818796553;-1.0491943359375;-0.5023193359375;1.67999999575841;169;1 A;
80.5908187965277;-1.0491943359375;-0.50048828125;1.68999999573316;170;1 A;
80.6008187965025;-1.0498046875;-0.49957275390625;1.69999999570791;171;1 A;
80.6108187964772;-1.0491943359375;-0.4990234375;1.70999999568267;172;1 A;
80.620818796452;-1.0498046875;-0.4986572265625;1.71999999565742;173;1 A;
80.6308187964268;-1.04949951171875;-0.4974365234375;1.72999999563217;174;1 A;
80.6408187964015;-1.04949951171875;-0.49627685546875;1.73999999560692;175;1 A;
80.6508187963763;-1.04949951171875;-0.494293212890625;1.74999999558167;176;1 A;
80.660818796351;-1.04949951171875;-0.491485595703125;1.75999999555643;177;1 A;
80.6708187963258;-1.04949951171875;-0.49053955078125;1.76999999553118;178;1 A;
80.6808187963005;-1.04949951171875;-0.488800048828125;1.77999999550593;179;1 A;
80.6908187962753;-1.04949951171875;-0.48974609375;1.78999999548068;180;1 A;
80.70081879625;-1.04949951171875;-0.491607666015625;1.79999999545544;181;1 A;
80.7108187962248;-1.04949951171875;-0.490753173828125;1.80999999543019;182;1 A;
80.7208187961995;-1.0498046875;-0.4920654296875;1.81999999540494;183;1 A;
80.7308187961743;-1.05010986328125;-0.491302490234375;1.82999999537969;184;1 A;
80.740818796149;-1.04949951171875;-0.490692138671875;1.83999999535445;185;1 A;
80.7508187961238;-1.04949951171875;-0.488861083984375;1.8499999953292;186;1 A;
80.7608187960985;-1.04949951171875;-0.48724365234375;1.85999999530395;187;1 A;
80.7708187960733;-1.0491943359375;-0.48681640625;1.8699999952787;188;1 A;
80.780818796048;-1.0491943359375;-0.48486328125;1.87999999525346;189;1 A;
80.7908187960228;-1.0491943359375;-0.485748291015625;1.88999999522821;190;1 A;
80.8008187959975;-1.0491943359375;-0.483978271484375;1.89999999520296;191;1 A;
80.8108187959723;-1.04949951171875;-0.48345947265625;1.90999999517771;192;1 A;
80.820818795947;-1.0498046875;-0.4830322265625;1.91999999515247;193;1 A;
80.8308187959218;-1.0491943359375;-0.481170654296875;1.92999999512722;194;1 A;
80.8408187958966;-1.04949951171875;-0.48101806640625;1.93999999510197;195;1 A;
80.8508187958713;-1.0491943359375;-0.48052978515625;1.94999999507672;196;1 A;
80.8608187958461;-1.04949951171875;-0.481353759765625;1.95999999505148;197;1 A;
80.8708187958208;-1.04949951171875;-0.482177734375;1.96999999502623;198;1 A;
80.8808187957956;-1.0498046875;-0.48394775390625;1.97999999500098;199;1 A;
80.8908187957703;-1.0491943359375;-0.483978271484375;1.98999999497573;200;1 A;
80.9008187957451;-1.0491943359375;-0.484100341796875;1.99999999495049;201;1 A;
80.9108187957198;-1.04949951171875;-0.48626708984375;2.00999999492524;202;1 A;
80.9208187956946;-1.0491943359375;-0.484527587890625;2.01999999489999;203;1 A;
80.9308187956693;-1.04949951171875;-0.484954833984375;2.02999999487474;204;1 A;
80.9408187956441;-1.04949951171875;-0.483642578125;2.0399999948495;205;1 A;
80.9508187956188;-1.04949951171875;-0.480987548828125;2.04999999482425;206;1 A;
80.9608187955936;-1.0491943359375;-0.482208251953125;2.059999994799;207;1 A;
80.9708187955683;-1.04949951171875;-0.4813232421875;2.06999999477375;208;1 A;
80.9808187955431;-1.04949951171875;-0.483184814453125;2.0799999947485;209;1 A;
80.9908187955178;-1.04949951171875;-0.48382568359375;2.08999999472326;210;1 A;
81.0008187954926;-1.0491943359375;-0.483184814453125;2.09999999469801;211;1 A;
81.0108187954673;-1.0491943359375;-0.48297119140625;2.10999999467276;212;1 A;
81.0208187954421;-1.04949951171875;-0.481292724609375;2.11999999464751;213;1 A;
81.0308187954168;-1.04949951171875;-0.4833984375;2.12999999462227;214;1 A;
81.0408187953916;-1.0498046875;-0.48333740234375;2.13999999459702;215;1 A;
81.0508187953664;-1.04949951171875;-0.484344482421875;2.14999999457177;216;1 A;
81.0608187953411;-1.04949951171875;-0.48553466796875;2.15999999454652;217;1 A;
81.0708187953159;-1.0498046875;-0.485076904296875;2.16999999452128;218;1 A;
81.0808187952906;-1.04888916015625;-0.487945556640625;2.17999999449603;219;1 A;
81.0908187952654;-1.0498046875;-0.48956298828125;2.18999999447078;220;1 A;
81.1008187952401;-1.04949951171875;-0.491851806640625;2.19999999444553;221;1 A;
81.1108187952149;-1.0491943359375;-0.49346923828125;2.20999999442029;222;1 A;
81.1208187951896;-1.04949951171875;-0.495513916015625;2.21999999439504;223;1 A;
81.1308187951644;-1.04949951171875;-0.49542236328125;2.22999999436979;224;1 A;
81.1408187951391;-1.04949951171875;-0.496185302734375;2.23999999434454;225;1 A;
81.1508187951139;-1.04949951171875;-0.4984130859375;2.2499999943193;226;1 A;
81.1608187950886;-1.0498046875;-0.498565673828125;2.25999999429405;227;1 A;
81.1708187950634;-1.04949951171875;-0.5029296875;2.2699999942688;228;1 A;
81.1808187950381;-1.0498046875;-0.5047607421875;2.27999999424355;229;1 A;
81.1908187950129;-1.0491943359375;-0.50506591796875;2.28999999421831;230;1 A;
81.2008187949876;-1.0498046875;-0.5059814453125;2.29999999419306;231;1 A;
81.2108187949624;-1.0498046875;-0.50201416015625;2.30999999416781;232;1 A;
81.2208187949371;-1.04949951171875;-0.50140380859375;2.31999999414256;233;1 A;
81.2308187949119;-1.0491943359375;-0.501708984375;2.32999999411732;234;1 A;
81.2408187948866;-1.0498046875;-0.50262451171875;2.33999999409207;235;1 A;
81.2508187948614;-1.0491943359375;-0.50384521484375;2.34999999406682;236;1 A;
81.2608187948362;-1.0498046875;-0.5029296875;2.35999999404157;237;1 A;
81.2708187948109;-1.0498046875;-0.50384521484375;2.36999999401633;238;1 A;
81.2808187947857;-1.0498046875;-0.5023193359375;2.37999999399108;239;1 A;
81.2908187947604;-1.04949951171875;-0.504150390625;2.38999999396583;240;1 A;
81.3008187947352;-1.04949951171875;-0.5035400390625;2.39999999394058;241;1 A;
81.3108187947099;-1.0498046875;-0.50262451171875;2.40999999391533;242;1 A;
81.3208187946847;-1.04949951171875;-0.50537109375;2.41999999389009;243;1 A;
81.3308187946594;-1.04949951171875;-0.5047607421875;2.42999999386484;244;1 A;
81.3408187946342;-1.0491943359375;-0.506591796875;2.43999999383959;245;1 A;
81.3508187946089;-1.0491943359375;-0.506591796875;2.44999999381434;246;1 A;
81.3608187945837;-1.04949951171875;-0.5078125;2.4599999937891;247;1 A;
81.3708187945584;-1.04949951171875;-0.50811767578125;2.46999999376385;248;1 A;
81.3808187945332;-1.05010986328125;-0.509033203125;2.4799999937386;249;1 A;
81.3908187945079;-1.0498046875;-0.511474609375;2.48999999371335;250;1 A;
81.4008187944827;-1.05010986328125;-0.51025390625;2.49999999368811;251;1 A;
81.4108187944574;-1.0491943359375;-0.513916015625;2.50999999366286;252;1 A;
81.4208187944322;-1.0498046875;-0.51300048828125;2.51999999363761;253;1 A;
81.4308187944069;-1.0491943359375;-0.5133056640625;2.52999999361236;254;1 A;
81.4408187943817;-1.04949951171875;-0.5157470703125;2.53999999358712;255;1 A;
81.4508187943565;-1.0498046875;-0.5126953125;2.54999999356187;256;1 A;
81.4608187943312;-1.04949951171875;-0.5126953125;2.55999999353662;257;1 A;
81.470818794306;-1.05010986328125;-0.511474609375;2.56999999351137;258;1 A;
81.4808187942807;-1.0491943359375;-0.5096435546875;2.57999999348613;259;1 A;
81.4908187942555;-1.04949951171875;-0.50994873046875;2.58999999346088;260;1 A;
81.5008187942302;-1.0491943359375;-0.50872802734375;2.59999999343563;261;1 A;
81.510818794205;-1.04949951171875;-0.50933837890625;2.60999999341038;262;1 A;
81.5208187941797;-1.04949951171875;-0.5084228515625;2.61999999338514;263;1 A;
81.5308187941545;-1.04949951171875;-0.51116943359375;2.62999999335989;264;1 A;
81.5408187941292;-1.0498046875;-0.5096435546875;2.63999999333464;265;1 A;
81.550818794104;-1.04949951171875;-0.5078125;2.64999999330939;266;1 A;
81.5608187940787;-1.0498046875;-0.5084228515625;2.65999999328415;267;1 A;
81.5708187940535;-1.0498046875;-0.504150390625;2.6699999932589;268;1 A;
81.5808187940282;-1.0491943359375;-0.5072021484375;2.67999999323365;269;1 A;
81.590818794003;-1.0491943359375;-0.50628662109375;2.6899999932084;270;1 A;
81.6008187939777;-1.04888916015625;-0.5078125;2.69999999318316;271;1 A;
81.6108187939525;-1.04949951171875;-0.50811767578125;2.70999999315791;272;1 A;
81.6208187939272;-1.0491943359375;-0.5072021484375;2.71999999313266;273;1 A;
81.630818793902;-1.04949951171875;-0.50933837890625;2.72999999310741;274;1 A;
81.6408187938767;-1.0498046875;-0.50750732421875;2.73999999308217;275;1 A;
81.6508187938515;-1.04949951171875;-0.51177978515625;2.74999999305692;276;1 A;
81.6608187938263;-1.04949951171875;-0.51116943359375;2.75999999303167;277;1 A;
81.670818793801;-1.0498046875;-0.5126953125;2.76999999300642;278;1 A;
81.6808187937758;-1.0491943359375;-0.517578125;2.77999999298117;279;1 A;
81.6908187937505;-1.04949951171875;-0.51513671875;2.78999999295593;280;1 A;
81.7008187937253;-1.0498046875;-0.51788330078125;2.79999999293068;281;1 A;
81.7108187937;-1.04888916015625;-0.51788330078125;2.80999999290543;282;1 A;
81.7208187936748;-1.0498046875;-0.5145263671875;2.81999999288018;283;1 A;
81.7308187936495;-1.04888916015625;-0.51513671875;2.82999999285494;284;1 A;
81.7408187936243;-1.0491943359375;-0.51300048828125;2.83999999282969;285;1 A;
81.750818793599;-1.04949951171875;-0.51239013671875;2.84999999280444;286;1 A;
81.7608187935738;-1.0498046875;-0.5120849609375;2.85999999277919;287;1 A;
81.7708187935485;-1.05010986328125;-0.5145263671875;2.86999999275395;288;1 A;
81.7808187935233;-1.0498046875;-0.5126953125;2.8799999927287;289;1 A;
81.790818793498;-1.0498046875;-0.5126953125;2.88999999270345;290;1 A;
81.8008187934728;-1.0498046875;-0.51300048828125;2.8999999926782;291;1 A;
81.8108187934475;-1.0498046875;-0.50933837890625;2.90999999265296;292;1 A;
81.8208187934223;-1.0498046875;-0.5133056640625;2.91999999262771;293;1 A;
81.830818793397;-1.0491943359375;-0.5108642578125;2.92999999260246;294;1 A;
81.8408187933718;-1.04949951171875;-0.51239013671875;2.93999999257721;295;1 A;
81.8508187933465;-1.0491943359375;-0.51239013671875;2.94999999255197;296;1 A;
81.8608187933213;-1.04949951171875;-0.51116943359375;2.95999999252672;297;1 A;
81.8708187932961;-1.04949951171875;-0.51422119140625;2.96999999250147;298;1 A;
81.8808187932708;-1.0491943359375;-0.5120849609375;2.97999999247622;299;1 A;
81.8908187932456;-1.0498046875;-0.51544189453125;2.98999999245098;300;1 A;
81.9008187932203;-1.0491943359375;-0.51177978515625;2.99999999242573;301;1 A;
81.9108187931951;-1.04949951171875;-0.511474609375;3.00999999240048;302;1 A;
81.9208187931698;-1.0491943359375;-0.5133056640625;3.01999999237523;303;1 A;
81.9308187931446;-1.0498046875;-0.5084228515625;3.02999999234999;304;1 A;
81.9408187931193;-1.0491943359375;-0.51239013671875;3.03999999232474;305;1 A;
81.9508187930941;-1.05010986328125;-0.5108642578125;3.04999999229949;306;1 A;
81.9608187930688;-1.05010986328125;-0.50994873046875;3.05999999227424;307;1 A;
81.9708187930436;-1.04949951171875;-0.513916015625;3.069999992249;308;1 A;
81.9808187930183;-1.04949951171875;-0.51361083984375;3.07999999222375;309;1 A;
81.9908187929931;-1.05010986328125;-0.5145263671875;3.0899999921985;310;1 A;
82.0008187929678;-1.04949951171875;-0.5157470703125;3.09999999217325;311;1 A;
82.0108187929426;-1.05010986328125;-0.518798828125;3.109999992148;312;1 A;
82.0208187929173;-1.04949951171875;-0.518798828125;3.11999999212276;313;1 A;
82.0308187928921;-1.04949951171875;-0.52154541015625;3.12999999209751;314;1 A;
82.0408187928668;-1.0491943359375;-0.52337646484375;3.13999999207226;315;1 A;
82.0508187928416;-1.0498046875;-0.521240234375;3.14999999204701;316;1 A;
82.0608187928163;-1.0491943359375;-0.52703857421875;3.15999999202177;317;1 A;
82.0708187927911;-1.04949951171875;-0.52459716796875;3.16999999199652;318;1 A;
82.0808187927659;-1.05010986328125;-0.52642822265625;3.17999999197127;319;1 A;
82.0908187927406;-1.0498046875;-0.52703857421875;3.18999999194602;320;1 A;
82.1008187927154;-1.0498046875;-0.5242919921875;3.19999999192078;321;1 A;
82.1108187926901;-1.05010986328125;-0.52703857421875;3.20999999189553;322;1 A;
82.1208187926649;-1.04949951171875;-0.52459716796875;3.21999999187028;323;1 A;
82.1308187926396;-1.0498046875;-0.5279541015625;3.22999999184503;324;1 A;
82.1408187926144;-1.04949951171875;-0.52398681640625;3.23999999181979;325;1 A;
82.1508187925891;-1.04949951171875;-0.52398681640625;3.24999999179454;326;1 A;
82.1608187925639;-1.0498046875;-0.52581787109375;3.25999999176929;327;1 A;
82.1708187925386;-1.05010986328125;-0.52215576171875;3.26999999174404;328;1 A;
82.1808187925134;-1.0498046875;-0.5279541015625;3.2799999917188;329;1 A;
82.1908187924881;-1.0498046875;-0.52490234375;3.28999999169355;330;1 A;
82.2008187924629;-1.04949951171875;-0.5242919921875;3.2999999916683;331;1 A;
82.2108187924376;-1.05010986328125;-0.52520751953125;3.30999999164305;332;1 A;
82.2208187924124;-1.0498046875;-0.52032470703125;3.31999999161781;333;1 A;
82.2308187923871;-1.04949951171875;-0.52032470703125;3.32999999159256;334;1 A;
82.2408187923619;-1.04949951171875;-0.51910400390625;3.33999999156731;335;1 A;
82.2508187923366;-1.04949951171875;-0.52032470703125;3.34999999154206;336;1 A;
82.2608187923114;-1.04949951171875;-0.51849365234375;3.35999999151682;337;1 A;
82.2708187922861;-1.0491943359375;-0.518798828125;3.36999999149157;338;1 A;
82.2808187922609;-1.0498046875;-0.517578125;3.37999999146632;339;1 A;
82.2908187922357;-1.0498046875;-0.5145263671875;3.38999999144107;340;1 A;
82.3008187922104;-1.04949951171875;-0.5194091796875;3.39999999141583;341;1 A;
82.3108187921852;-1.05010986328125;-0.51361083984375;3.40999999139058;342;1 A;
82.3208187921599;-1.0491943359375;-0.51483154296875;3.41999999136533;343;1 A;
82.3308187921347;-1.04949951171875;-0.5145263671875;3.42999999134008;344;1 A;
82.3408187921094;-1.0498046875;-0.51025390625;3.43999999131483;345;1 A;
82.3508187920842;-1.04949951171875;-0.5133056640625;3.44999999128959;346;1 A;
82.3608187920589;-1.04949951171875;-0.50994873046875;3.45999999126434;347;1 A;
82.3708187920337;-1.04949951171875;-0.5126953125;3.46999999123909;348;1 A;
82.3808187920084;-1.0498046875;-0.50872802734375;3.47999999121384;349;1 A;
82.3908187919832;-1.04949951171875;-0.5084228515625;3.4899999911886;350;1 A;
82.4008187919579;-1.04949951171875;-0.50872802734375;3.49999999116335;351;1 A;
82.4108187919327;-1.0498046875;-0.5047607421875;3.5099999911381;352;1 A;
82.4208187919074;-1.0491943359375;-0.511474609375;3.51999999111285;353;1 A;
82.4308187918822;-1.04949951171875;-0.50689697265625;3.52999999108761;354;1 A;
82.4408187918569;-1.04949951171875;-0.511474609375;3.53999999106236;355;1 A;
82.4508187918317;-1.0491943359375;-0.51544189453125;3.54999999103711;356;1 A;
82.4608187918064;-1.04949951171875;-0.513916015625;3.55999999101186;357;1 A;
82.4708187917812;-1.0491943359375;-0.5181884765625;3.56999999098662;358;1 A;
82.480818791756;-1.0498046875;-0.5194091796875;3.57999999096137;359;1 A;
82.4908187917307;-1.0498046875;-0.5224609375;3.58999999093612;360;1 A;
82.5008187917055;-1.05010986328125;-0.52154541015625;3.59999999091087;361;1 A;
82.5108187916802;-1.04949951171875;-0.5224609375;3.60999999088563;362;1 A;
82.520818791655;-1.04949951171875;-0.52001953125;3.61999999086038;363;1 A;
82.5308187916297;-1.04949951171875;-0.516357421875;3.62999999083513;364;1 A;
82.5408187916045;-1.04949951171875;-0.521240234375;3.63999999080988;365;1 A;
82.5508187915792;-1.04888916015625;-0.51483154296875;3.64999999078464;366;1 A;
82.560818791554;-1.0498046875;-0.51544189453125;3.65999999075939;367;1 A;
82.5708187915287;-1.04949951171875;-0.51666259765625;3.66999999073414;368;1 A;
82.5808187915035;-1.04949951171875;-0.5108642578125;3.67999999070889;369;1 A;
82.5908187914782;-1.0491943359375;-0.51544189453125;3.68999999068365;370;1 A;
82.600818791453;-1.0491943359375;-0.51116943359375;3.6999999906584;371;1 A;
82.6108187914277;-1.04949951171875;-0.51422119140625;3.70999999063315;372;1 A;
82.6208187914025;-1.04949951171875;-0.51177978515625;3.7199999906079;373;1 A;
82.6308187913772;-1.0491943359375;-0.51239013671875;3.72999999058266;374;1 A;
82.640818791352;-1.04949951171875;-0.5126953125;3.73999999055741;375;1 A;
82.6508187913267;-1.04888916015625;-0.50933837890625;3.74999999053216;376;1 A;
82.6608187913015;-1.04949951171875;-0.5157470703125;3.75999999050691;377;1 A;
82.6708187912762;-1.04949951171875;-0.50811767578125;3.76999999048167;378;1 A;
82.680818791251;-1.04949951171875;-0.51177978515625;3.77999999045642;379;1 A;
82.6908187912258;-1.04949951171875;-0.51300048828125;3.78999999043117;380;1 A;
82.7008187912005;-1.0491943359375;-0.5096435546875;3.79999999040592;381;1 A;
82.7108187911753;-1.04949951171875;-0.5133056640625;3.80999999038067;382;1 A;
82.72081879115;-1.04949951171875;-0.51239013671875;3.81999999035543;383;1 A;
82.7308187911248;-1.04949951171875;-0.51422119140625;3.82999999033018;384;1 A;
82.7408187910995;-1.04949951171875;-0.51361083984375;3.83999999030493;385;1 A;
82.7508187910743;-1.0498046875;-0.51513671875;3.84999999027968;386;1 A;
82.760818791049;-1.0491943359375;-0.51116943359375;3.85999999025444;387;1 A;
82.7708187910238;-1.04949951171875;-0.50872802734375;3.86999999022919;388;1 A;
82.7808187909985;-1.04949951171875;-0.51483154296875;3.87999999020394;389;1 A;
82.7908187909733;-1.04949951171875;-0.5078125;3.88999999017869;390;1 A;
82.800818790948;-1.04949951171875;-0.5108642578125;3.89999999015345;391;1 A;
82.8108187909228;-1.05010986328125;-0.51025390625;3.9099999901282;392;1 A;
82.8208187908975;-1.0491943359375;-0.50384521484375;3.91999999010295;393;1 A;
82.8308187908723;-1.0498046875;-0.51361083984375;3.9299999900777;394;1 A;
82.840818790847;-1.04949951171875;-0.5084228515625;3.93999999005246;395;1 A;
82.8508187908218;-1.0491943359375;-0.513916015625;3.94999999002721;396;1 A;
82.8608187907965;-1.04949951171875;-0.51361083984375;3.95999999000196;397;1 A;
82.8708187907713;-1.04949951171875;-0.5126953125;3.96999998997671;398;1 A;
82.880818790746;-1.04949951171875;-0.51544189453125;3.97999998995147;399;1 A;
82.8908187907208;-1.0498046875;-0.5126953125;3.98999998992622;400;1 A;
82.9008187906956;-1.0491943359375;-0.52001953125;3.99999998990097;401;1 A;
82.9108187906703;-1.0498046875;-0.513916015625;4.00999998987572;402;1 A;
82.9208187906451;-1.04949951171875;-0.51727294921875;4.01999998985048;403;1 A;
82.9308187906198;-1.04949951171875;-0.5194091796875;4.02999998982523;404;1 A;
82.9408187905946;-1.04949951171875;-0.5157470703125;4.03999998979998;405;1 A;
82.9508187905693;-1.0491943359375;-0.5206298828125;4.04999998977473;406;1 A;
82.9608187905441;-1.04949951171875;-0.52001953125;4.05999998974949;407;1 A;
82.9708187905188;-1.0491943359375;-0.5206298828125;4.06999998972424;408;1 A;
82.9808187904936;-1.04949951171875;-0.52093505859375;4.07999998969899;409;1 A;
82.9908187904683;-1.04949951171875;-0.52215576171875;4.08999998967374;410;1 A;
83.0008187904431;-1.0498046875;-0.5157470703125;4.0999999896485;411;1 A;
83.0108187904178;-1.0498046875;-0.51544189453125;4.10999998962325;412;1 A;
83.0208187903926;-1.0498046875;-0.52276611328125;4.119999989598;413;1 A;
83.0308187903673;-1.05010986328125;-0.5181884765625;4.12999998957275;414;1 A;
83.0408187903421;-1.0498046875;-0.5267333984375;4.1399999895475;415;1 A;
83.0508187903168;-1.0498046875;-0.52215576171875;4.14999998952226;416;1 A;
83.0608187902916;-1.04949951171875;-0.517578125;4.15999998949701;417;1 A;
83.0708187902663;-1.04949951171875;-0.52764892578125;4.16999998947176;418;1 A;
83.0808187902411;-1.04949951171875;-0.51727294921875;4.17999998944651;419;1 A;
83.0908187902158;-1.04949951171875;-0.52276611328125;4.18999998942127;420;1 A;
83.1008187901906;-1.0491943359375;-0.5194091796875;4.19999998939602;421;1 A;
83.1108187901654;-1.04949951171875;-0.51513671875;4.20999998937077;422;1 A;
83.1208187901401;-1.04949951171875;-0.5181884765625;4.21999998934552;423;1 A;
83.1308187901149;-1.04949951171875;-0.5133056640625;4.22999998932028;424;1 A;
83.1408187900896;-1.04949951171875;-0.52001953125;4.23999998929503;425;1 A;
83.1508187900644;-1.04888916015625;-0.5126953125;4.24999998926978;426;1 A;
83.1608187900391;-1.04949951171875;-0.516357421875;4.25999998924453;427;1 A;
83.1708187900139;-1.0498046875;-0.5169677734375;4.26999998921929;428;1 A;
83.1808187899886;-1.04949951171875;-0.51239013671875;4.27999998919404;429;1 A;
83.1908187899634;-1.0498046875;-0.5181884765625;4.28999998916879;430;1 A;
83.2008187899381;-1.0498046875;-0.51177978515625;4.29999998914354;431;1 A;
83.2108187899129;-1.05010986328125;-0.5126953125;4.3099999891183;432;1 A;
83.2208187898876;-1.04949951171875;-0.51300048828125;4.31999998909305;433;1 A;
83.2308187898624;-1.0498046875;-0.51361083984375;4.3299999890678;434;1 A;
83.2408187898371;-1.04949951171875;-0.5096435546875;4.33999998904255;435;1 A;
83.2508187898119;-1.04949951171875;-0.50933837890625;4.34999998901731;436;1 A;
83.2608187897866;-1.0491943359375;-0.5145263671875;4.35999998899206;437;1 A;
83.2708187897614;-1.0498046875;-0.5096435546875;4.36999998896681;438;1 A;
83.2808187897361;-1.04949951171875;-0.516357421875;4.37999998894156;439;1 A;
83.2908187897109;-1.04949951171875;-0.51116943359375;4.38999998891632;440;1 A;
83.3008187896856;-1.04949951171875;-0.50750732421875;4.39999998889107;441;1 A;
83.3108187896604;-1.04949951171875;-0.51727294921875;4.40999998886582;442;1 A;
83.3208187896352;-1.04949951171875;-0.50628662109375;4.41999998884057;443;1 A;
83.3308187896099;-1.04949951171875;-0.511474609375;4.42999998881533;444;1 A;
83.3408187895847;-1.04949951171875;-0.50872802734375;4.43999998879008;445;1 A;
83.3508187895594;-1.0491943359375;-0.50323486328125;4.44999998876483;446;1 A;
83.3608187895342;-1.0491943359375;-0.5059814453125;4.45999998873958;447;1 A;
83.3708187895089;-1.0498046875;-0.50262451171875;4.46999998871433;448;1 A;
83.3808187894837;-1.0498046875;-0.509033203125;4.47999998868909;449;1 A;
83.3908187894584;-1.0491943359375;-0.5023193359375;4.48999998866384;450;1 A;
83.4008187894332;-1.04949951171875;-0.50750732421875;4.49999998863859;451;1 A;
83.4108187894079;-1.0498046875;-0.506591796875;4.50999998861334;452;1 A;
83.4208187893827;-1.04949951171875;-0.50262451171875;4.5199999885881;453;1 A;
83.4308187893574;-1.04949951171875;-0.51239013671875;4.52999998856285;454;1 A;
83.4408187893322;-1.04949951171875;-0.5035400390625;4.5399999885376;455;1 A;
83.4508187893069;-1.04949951171875;-0.50994873046875;4.54999998851235;456;1 A;
83.4608187892817;-1.04949951171875;-0.50811767578125;4.55999998848711;457;1 A;
83.4708187892564;-1.04949951171875;-0.50750732421875;4.56999998846186;458;1 A;
83.4808187892312;-1.0498046875;-0.50689697265625;4.57999998843661;459;1 A;
83.4908187892059;-1.04949951171875;-0.50445556640625;4.58999998841136;460;1 A;
83.5008187891807;-1.0491943359375;-0.50872802734375;4.59999998838612;461;1 A;
83.5108187891555;-1.0491943359375;-0.50323486328125;4.60999998836087;462;1 A;
83.5208187891302;-1.0498046875;-0.50872802734375;4.61999998833562;463;1 A;
83.530818789105;-1.05010986328125;-0.50262451171875;4.62999998831037;464;1 A;
83.5408187890797;-1.0498046875;-0.4998779296875;4.63999998828513;465;1 A;
83.5508187890545;-1.04949951171875;-0.511474609375;4.64999998825988;466;1 A;
83.5608187890292;-1.04949951171875;-0.5029296875;4.65999998823463;467;1 A;
83.570818789004;-1.0498046875;-0.51116943359375;4.66999998820938;468;1 A;
83.5808187889787;-1.0491943359375;-0.51300048828125;4.67999998818414;469;1 A;
83.5908187889535;-1.04949951171875;-0.50994873046875;4.68999998815889;470;1 A;
83.6008187889282;-1.05010986328125;-0.51544189453125;4.69999998813364;471;1 A;
83.610818788903;-1.0491943359375;-0.51239013671875;4.70999998810839;472;1 A;
83.6208187888777;-1.04888916015625;-0.517578125;4.71999998808315;473;1 A;
83.6308187888525;-1.0498046875;-0.51483154296875;4.7299999880579;474;1 A;
83.6408187888272;-1.05010986328125;-0.521240234375;4.73999998803265;475;1 A;
83.650818788802;-1.04949951171875;-0.51971435546875;4.7499999880074;476;1 A;
83.6608187887767;-1.04949951171875;-0.517578125;4.75999998798216;477;1 A;
83.6708187887515;-1.04888916015625;-0.5267333984375;4.76999998795691;478;1 A;
83.6808187887262;-1.0498046875;-0.517578125;4.77999998793166;479;1 A;
83.690818788701;-1.0498046875;-0.52642822265625;4.78999998790641;480;1 A;
83.7008187886757;-1.0498046875;-0.5255126953125;4.79999998788116;481;1 A;
83.7108187886505;-1.0498046875;-0.52459716796875;4.80999998785592;482;1 A;
83.7208187886253;-1.04949951171875;-0.52520751953125;4.81999998783067;483;1 A;
83.7308187886;-1.04949951171875;-0.5224609375;4.82999998780542;484;1 A;
83.7408187885748;-1.04949951171875;-0.5279541015625;4.83999998778017;485;1 A;
83.7508187885495;-1.04888916015625;-0.5242919921875;4.84999998775493;486;1 A;
83.7608187885243;-1.04949951171875;-0.5316162109375;4.85999998772968;487;1 A;
83.770818788499;-1.0498046875;-0.5224609375;4.86999998770443;488;1 A;
83.7808187884738;-1.0491943359375;-0.5194091796875;4.87999998767918;489;1 A;
83.7908187884485;-1.0491943359375;-0.5291748046875;4.88999998765394;490;1 A;
83.8008187884233;-1.0504150390625;-0.51605224609375;4.89999998762869;491;1 A;
83.810818788398;-1.04949951171875;-0.5218505859375;4.90999998760344;492;1 A;
83.8208187883728;-1.05010986328125;-0.52001953125;4.91999998757819;493;1 A;
83.8308187883475;-1.0491943359375;-0.513916015625;4.92999998755295;494;1 A;
83.8408187883223;-1.05010986328125;-0.5218505859375;4.9399999875277;495;1 A;
83.850818788297;-1.04949951171875;-0.5181884765625;4.94999998750245;496;1 A;
83.8608187882718;-1.0491943359375;-0.5242919921875;4.9599999874772;497;1 A;
83.8708187882465;-1.0498046875;-0.52337646484375;4.96999998745196;498;1 A;
83.8808187882213;-1.04949951171875;-0.5291748046875;4.97999998742671;499;1 A;
83.890818788196;-1.0491943359375;-0.528564453125;4.98999998740146;500;1 A;
83.9008187881708;-1.04888916015625;-0.5279541015625;4.99999998737621;501;1 A;
83.9108187881455;-1.05010986328125;-0.537109375;5.00999998735097;502;1 A;
83.9208187881203;-1.05010986328125;-0.52703857421875;5.01999998732572;503;1 A;
83.9308187880951;-1.0491943359375;-0.53741455078125;5.02999998730047;504;1 A;
83.9408187880698;-1.0498046875;-0.53466796875;5.03999998727522;505;1 A;
83.9508187880446;-1.04949951171875;-0.53375244140625;5.04999998724998;506;1 A;
83.9608187880193;-1.04888916015625;-0.5352783203125;5.05999998722473;507;1 A;
83.9708187879941;-1.0491943359375;-0.53192138671875;5.06999998719948;508;1 A;
83.9808187879688;-1.04949951171875;-0.53802490234375;5.07999998717423;509;1 A;
83.9908187879436;-1.0491943359375;-0.53253173828125;5.08999998714899;510;1 A;
84.0008187879183;-1.0491943359375;-0.5389404296875;5.09999998712374;511;1 A;
84.0108187878931;-1.05010986328125;-0.528564453125;5.10999998709849;512;1 A;
84.0208187878678;-1.04949951171875;-0.52764892578125;5.11999998707324;513;1 A;
84.0308187878426;-1.0498046875;-0.5377197265625;5.129999987048;514;1 A;
84.0408187878173;-1.0498046875;-0.52734375;5.13999998702275;515;1 A;
84.0508187877921;-1.04949951171875;-0.538330078125;5.1499999869975;516;1 A;
84.0608187877668;-1.04949951171875;-0.53466796875;5.15999998697225;517;1 A;
84.0708187877416;-1.0491943359375;-0.52734375;5.169999986947;518;1 A;
84.0808187877163;-1.05010986328125;-0.5377197265625;5.17999998692176;519;1 A;
84.0908187876911;-1.04949951171875;-0.5279541015625;5.18999998689651;520;1 A;
84.1008187876658;-1.04888916015625;-0.53192138671875;5.19999998687126;521;1 A;
84.1108187876406;-1.05010986328125;-0.52978515625;5.20999998684601;522;1 A;
84.1208187876153;-1.04949951171875;-0.53009033203125;5.21999998682077;523;1 A;
84.1308187875901;-1.0491943359375;-0.52947998046875;5.22999998679552;524;1 A;
84.1408187875649;-1.04949951171875;-0.5267333984375;5.23999998677027;525;1 A;
84.1508187875396;-1.0491943359375;-0.5328369140625;5.24999998674502;526;1 A;
84.1608187875144;-1.05010986328125;-0.5218505859375;5.25999998671978;527;1 A;
84.1708187874891;-1.0491943359375;-0.53131103515625;5.26999998669453;528;1 A;
84.1808187874639;-1.04888916015625;-0.52734375;5.27999998666928;529;1 A;
84.1908187874386;-1.0498046875;-0.52764892578125;5.28999998664403;530;1 A;
84.2008187874134;-1.04949951171875;-0.5303955078125;5.29999998661879;531;1 A;
84.2108187873881;-1.0491943359375;-0.5267333984375;5.30999998659354;532;1 A;
84.2208187873629;-1.04949951171875;-0.53314208984375;5.31999998656829;533;1 A;
84.2308187873376;-1.04949951171875;-0.5303955078125;5.32999998654304;534;1 A;
84.2408187873124;-1.04888916015625;-0.537109375;5.3399999865178;535;1 A;
84.2508187872871;-1.0498046875;-0.526123046875;5.34999998649255;536;1 A;
84.2608187872619;-1.0498046875;-0.526123046875;5.3599999864673;537;1 A;
84.2708187872366;-1.04949951171875;-0.535888671875;5.36999998644205;538;1 A;
84.2808187872114;-1.04949951171875;-0.5255126953125;5.37999998641681;539;1 A;
84.2908187871861;-1.0498046875;-0.5389404296875;5.38999998639156;540;1 A;
84.3008187871609;-1.04949951171875;-0.53192138671875;5.39999998636631;541;1 A;
84.3108187871356;-1.04949951171875;-0.52734375;5.40999998634106;542;1 A;
84.3208187871104;-1.04949951171875;-0.54107666015625;5.41999998631582;543;1 A;
84.3308187870851;-1.04949951171875;-0.5279541015625;5.42999998629057;544;1 A;
84.3408187870599;-1.0491943359375;-0.5352783203125;5.43999998626532;545;1 A;
84.3508187870347;-1.0491943359375;-0.53192138671875;5.44999998624007;546;1 A;
84.3608187870094;-1.04949951171875;-0.5303955078125;5.45999998621483;547;1 A;
84.3708187869842;-1.0491943359375;-0.53131103515625;5.46999998618958;548;1 A;
84.3808187869589;-1.0491943359375;-0.52703857421875;5.47999998616433;549;1 A;
84.3908187869337;-1.0498046875;-0.53192138671875;5.48999998613908;550;1 A;
84.4008187869084;-1.04949951171875;-0.52337646484375;5.49999998611383;551;1 A;
84.4108187868832;-1.04949951171875;-0.5328369140625;5.50999998608859;552;1 A;
84.4208187868579;-1.04949951171875;-0.528564453125;5.51999998606334;553;1 A;
84.4308187868327;-1.04949951171875;-0.52825927734375;5.52999998603809;554;1 A;
84.4408187868074;-1.0491943359375;-0.53497314453125;5.53999998601284;555;1 A;
84.4508187867822;-1.04949951171875;-0.52581787109375;5.5499999859876;556;1 A;
84.4608187867569;-1.0491943359375;-0.53314208984375;5.55999998596235;557;1 A;
84.4708187867317;-1.04949951171875;-0.52947998046875;5.5699999859371;558;1 A;
84.4808187867064;-1.0498046875;-0.53314208984375;5.57999998591185;559;1 A;
84.4908187866812;-1.04949951171875;-0.52490234375;5.58999998588661;560;1 A;
84.5008187866559;-1.04949951171875;-0.5255126953125;5.59999998586136;561;1 A;
84.5108187866307;-1.05010986328125;-0.53131103515625;5.60999998583611;562;1 A;
84.5208187866054;-1.04888916015625;-0.5242919921875;5.61999998581086;563;1 A;
84.5308187865802;-1.0491943359375;-0.53802490234375;5.62999998578562;564;1 A;
84.540818786555;-1.0498046875;-0.5242919921875;5.63999998576037;565;1 A;
84.5508187865297;-1.04949951171875;-0.52398681640625;5.64999998573512;566;1 A;
84.5608187865045;-1.04949951171875;-0.53436279296875;5.65999998570987;567;1 A;
84.5708187864792;-1.0498046875;-0.51849365234375;5.66999998568463;568;1 A;
84.580818786454;-1.04949951171875;-0.5291748046875;5.67999998565938;569;1 A;
84.5908187864287;-1.0491943359375;-0.52581787109375;5.68999998563413;570;1 A;
84.6008187864035;-1.0498046875;-0.5230712890625;5.69999998560888;571;1 A;
84.6108187863782;-1.0491943359375;-0.52459716796875;5.70999998558364;572;1 A;
84.620818786353;-1.04949951171875;-0.5224609375;5.71999998555839;573;1 A;
84.6308187863277;-1.0498046875;-0.52703857421875;5.72999998553314;574;1 A;
84.6408187863025;-1.04949951171875;-0.52093505859375;5.73999998550789;575;1 A;
84.6508187862772;-1.04949951171875;-0.531005859375;5.74999998548265;576;1 A;
84.660818786252;-1.0498046875;-0.526123046875;5.7599999854574;577;1 A;
84.6708187862267;-1.04888916015625;-0.5255126953125;5.76999998543215;578;1 A;
84.6808187862015;-1.05010986328125;-0.53466796875;5.7799999854069;579;1 A;
84.6908187861762;-1.04949951171875;-0.5206298828125;5.78999998538166;580;1 A;
84.700818786151;-1.04888916015625;-0.5340576171875;5.79999998535641;581;1 A;
84.7108187861257;-1.0498046875;-0.5279541015625;5.80999998533116;582;1 A;
84.7208187861005;-1.05010986328125;-0.53131103515625;5.81999998530591;583;1 A;
84.7308187860752;-1.04949951171875;-0.5279541015625;5.82999998528066;584;1 A;
84.74081878605;-1.04949951171875;-0.52490234375;5.83999998525542;585;1 A;
84.7508187860248;-1.04888916015625;-0.53131103515625;5.84999998523017;586;1 A;
84.7608187859995;-1.0498046875;-0.52490234375;5.85999998520492;587;1 A;
84.7708187859743;-1.04949951171875;-0.53680419921875;5.86999998517967;588;1 A;
84.780818785949;-1.0491943359375;-0.52337646484375;5.87999998515443;589;1 A;
84.7908187859238;-1.04949951171875;-0.52490234375;5.88999998512918;590;1 A;
84.8008187858985;-1.04949951171875;-0.53741455078125;5.89999998510393;591;1 A;
84.8108187858733;-1.04949951171875;-0.52642822265625;5.90999998507868;592;1 A;
84.820818785848;-1.0498046875;-0.538330078125;5.91999998505344;593;1 A;
84.8308187858228;-1.05010986328125;-0.53924560546875;5.92999998502819;594;1 A;
84.8408187857975;-1.0498046875;-0.53558349609375;5.93999998500294;595;1 A;
84.8508187857723;-1.04888916015625;-0.5401611328125;5.94999998497769;596;1 A;
84.860818785747;-1.05010986328125;-0.537109375;5.95999998495245;597;1 A;
84.8708187857218;-1.04949951171875;-0.537109375;5.9699999849272;598;1 A;
84.8808187856965;-1.04949951171875;-0.53466796875;5.97999998490195;599;1 A;
84.8908187856713;-1.0498046875;-0.54443359375;5.9899999848767;600;1 A;
84.900818785646;-1.0498046875;-0.53741455078125;5.99999998485146;601;1 A;
84.9108187856208;-1.05010986328125;-0.54168701171875;6.00999998482621;602;1 A;
84.9208187855955;-1.0504150390625;-0.54840087890625;6.01999998480096;603;1 A;
84.9308187855703;-1.04888916015625;-0.5340576171875;6.02999998477571;604;1 A;
84.940818785545;-1.0491943359375;-0.54901123046875;6.03999998475047;605;1 A;
84.9508187855198;-1.04949951171875;-0.5377197265625;6.04999998472522;606;1 A;
84.9608187854946;-1.0498046875;-0.5401611328125;6.05999998469997;607;1 A;
84.9708187854693;-1.0491943359375;-0.538330078125;6.06999998467472;608;1 A;
84.9808187854441;-1.04949951171875;-0.53253173828125;6.07999998464948;609;1 A;
84.9908187854188;-1.0498046875;-0.54290771484375;6.08999998462423;610;1 A;
85.0008187853936;-1.05010986328125;-0.53680419921875;6.09999998459898;611;1 A;
85.0108187853683;-1.0491943359375;-0.55023193359375;6.10999998457373;612;1 A;
85.0208187853431;-1.0498046875;-0.53680419921875;6.11999998454849;613;1 A;
85.0308187853178;-1.0498046875;-0.5389404296875;6.12999998452324;614;1 A;
85.0408187852926;-1.04949951171875;-0.54779052734375;6.13999998449799;615;1 A;
85.0508187852673;-1.04949951171875;-0.53466796875;6.14999998447274;616;1 A;
85.0608187852421;-1.04949951171875;-0.5462646484375;6.1599999844475;617;1 A;
85.0708187852168;-1.04949951171875;-0.54351806640625;6.16999998442225;618;1 A;
85.0808187851916;-1.0498046875;-0.5389404296875;6.179999984397;619;1 A;
85.0908187851663;-1.0491943359375;-0.54718017578125;6.18999998437175;620;1 A;
85.1008187851411;-1.0491943359375;-0.540771484375;6.1999999843465;621;1 A;
85.1108187851158;-1.04949951171875;-0.5419921875;6.20999998432126;622;1 A;
85.1208187850906;-1.04949951171875;-0.540771484375;6.21999998429601;623;1 A;
85.1308187850653;-1.0498046875;-0.54779052734375;6.22999998427076;624;1 A;
85.1408187850401;-1.05010986328125;-0.54168701171875;6.23999998424551;625;1 A;
85.1508187850148;-1.0498046875;-0.54534912109375;6.24999998422027;626;1 A;
85.1608187849896;-1.04949951171875;-0.54840087890625;6.25999998419502;627;1 A;
85.1708187849644;-1.0491943359375;-0.53466796875;6.26999998416977;628;1 A;
85.1808187849391;-1.0498046875;-0.5517578125;6.27999998414452;629;1 A;
85.1908187849139;-1.04949951171875;-0.5401611328125;6.28999998411928;630;1 A;
85.2008187848886;-1.04949951171875;-0.545654296875;6.29999998409403;631;1 A;
85.2108187848634;-1.0498046875;-0.543212890625;6.30999998406878;632;1 A;
85.2208187848381;-1.04949951171875;-0.535888671875;6.31999998404353;633;1 A;
85.2308187848129;-1.0491943359375;-0.54443359375;6.32999998401829;634;1 A;
85.2408187847876;-1.04949951171875;-0.5389404296875;6.33999998399304;635;1 A;
85.2508187847624;-1.04949951171875;-0.5517578125;6.34999998396779;636;1 A;
85.2608187847371;-1.0498046875;-0.537109375;6.35999998394254;637;1 A;
85.2708187847119;-1.04949951171875;-0.53955078125;6.3699999839173;638;1 A;
85.2808187846866;-1.0491943359375;-0.54779052734375;6.37999998389205;639;1 A;
85.2908187846614;-1.04949951171875;-0.535888671875;6.3899999838668;640;1 A;
85.3008187846361;-1.04949951171875;-0.5523681640625;6.39999998384155;641;1 A;
85.3108187846109;-1.0491943359375;-0.543212890625;6.40999998381631;642;1 A;
85.3208187845856;-1.04949951171875;-0.53802490234375;6.41999998379106;643;1 A;
85.3308187845604;-1.0498046875;-0.55084228515625;6.42999998376581;644;1 A;
85.3408187845351;-1.05010986328125;-0.53955078125;6.43999998374056;645;1 A;
85.3508187845099;-1.04949951171875;-0.545654296875;6.44999998371532;646;1 A;
85.3608187844846;-1.04949951171875;-0.5462646484375;6.45999998369007;647;1 A;
85.3708187844594;-1.04949951171875;-0.5517578125;6.46999998366482;648;1 A;
85.3808187844342;-1.04949951171875;-0.55084228515625;6.47999998363957;649;1 A;
85.3908187844089;-1.04949951171875;-0.55389404296875;6.48999998361433;650;1 A;
85.4008187843837;-1.0491943359375;-0.556640625;6.49999998358908;651;1 A;
85.4108187843584;-1.04949951171875;-0.5474853515625;6.50999998356383;652;1 A;
85.4208187843332;-1.04949951171875;-0.56427001953125;6.51999998353858;653;1 A;
85.4308187843079;-1.04949951171875;-0.55328369140625;6.52999998351333;654;1 A;
85.4408187842827;-1.04949951171875;-0.55755615234375;6.53999998348809;655;1 A;
85.4508187842574;-1.0498046875;-0.55755615234375;6.54999998346284;656;1 A;
85.4608187842322;-1.04949951171875;-0.54779052734375;6.55999998343759;657;1 A;
85.4708187842069;-1.0491943359375;-0.55694580078125;6.56999998341234;658;1 A;
85.4808187841817;-1.0498046875;-0.55389404296875;6.5799999833871;659;1 A;
85.4908187841564;-1.0491943359375;-0.56610107421875;6.58999998336185;660;1 A;
85.5008187841312;-1.0491943359375;-0.552978515625;6.5999999833366;661;1 A;
85.5108187841059;-1.0498046875;-0.55877685546875;6.60999998331135;662;1 A;
85.5208187840807;-1.0491943359375;-0.5670166015625;6.61999998328611;663;1 A;
85.5308187840554;-1.04949951171875;-0.55816650390625;6.62999998326086;664;1 A;
85.5408187840302;-1.0498046875;-0.57830810546875;6.63999998323561;665;1 A;
85.5508187840049;-1.04949951171875;-0.56365966796875;6.64999998321036;666;1 A;
85.5608187839797;-1.04949951171875;-0.5615234375;6.65999998318512;667;1 A;
85.5708187839545;-1.0491943359375;-0.57159423828125;6.66999998315987;668;1 A;
85.5808187839292;-1.04949951171875;-0.55572509765625;6.67999998313462;669;1 A;
85.590818783904;-1.0491943359375;-0.56182861328125;6.68999998310937;670;1 A;
85.6008187838787;-1.04949951171875;-0.5572509765625;6.69999998308413;671;1 A;
85.6108187838535;-1.0498046875;-0.55633544921875;6.70999998305888;672;1 A;
85.6208187838282;-1.0491943359375;-0.55511474609375;6.71999998303363;673;1 A;
85.630818783803;-1.04949951171875;-0.556640625;6.72999998300838;674;1 A;
85.6408187837777;-1.04888916015625;-0.55389404296875;6.73999998298314;675;1 A;
85.6508187837525;-1.0498046875;-0.54534912109375;6.74999998295789;676;1 A;
85.6608187837272;-1.0498046875;-0.55999755859375;6.75999998293264;677;1 A;
85.670818783702;-1.04949951171875;-0.54840087890625;6.76999998290739;678;1 A;
85.6808187836767;-1.04888916015625;-0.55328369140625;6.77999998288215;679;1 A;
85.6908187836515;-1.0491943359375;-0.557861328125;6.7899999828569;680;1 A;
85.7008187836262;-1.04949951171875;-0.5413818359375;6.79999998283165;681;1 A;
85.710818783601;-1.0498046875;-0.552978515625;6.8099999828064;682;1 A;
85.7208187835757;-1.0498046875;-0.5450439453125;6.81999998278116;683;1 A;
85.7308187835505;-1.0498046875;-0.5548095703125;6.82999998275591;684;1 A;
85.7408187835252;-1.05010986328125;-0.54473876953125;6.83999998273066;685;1 A;
85.7508187835;-1.04949951171875;-0.54718017578125;6.84999998270541;686;1 A;
85.7608187834747;-1.04949951171875;-0.55450439453125;6.85999998268016;687;1 A;
85.7708187834495;-1.04949951171875;-0.548095703125;6.86999998265492;688;1 A;
85.7808187834243;-1.0491943359375;-0.56976318359375;6.87999998262967;689;1 A;
85.790818783399;-1.04949951171875;-0.55145263671875;6.88999998260442;690;1 A;
85.8008187833738;-1.04949951171875;-0.552978515625;6.89999998257917;691;1 A;
85.8108187833485;-1.0498046875;-0.5615234375;6.90999998255393;692;1 A;
85.8208187833233;-1.04949951171875;-0.5474853515625;6.91999998252868;693;1 A;
85.830818783298;-1.04949951171875;-0.55633544921875;6.92999998250343;694;1 A;
85.8408187832728;-1.048583984375;-0.55572509765625;6.93999998247818;695;1 A;
85.8508187832475;-1.04949951171875;-0.55908203125;6.94999998245294;696;1 A;
85.8608187832223;-1.0491943359375;-0.56060791015625;6.95999998242769;697;1 A;
85.870818783197;-1.05010986328125;-0.5645751953125;6.96999998240244;698;1 A;
85.8808187831718;-1.0498046875;-0.56304931640625;6.97999998237719;699;1 A;
85.8908187831465;-1.04949951171875;-0.556640625;6.98999998235195;700;1 A;
