Time (s);WE(1).Potential (V);WE(1).Current (A);Corrected time (s);Index;Current range
0.536233998646139;-0.39971923828125;-0.0138885498046875;0;1;1 A
0.546233998620892;-0.399749755859375;-0.01185302734375;0.00999999997475243;2;1 A
0.556233998595644;-0.399749755859375;-0.0104461669921875;0.0199999999495049;3;1 A
0.566233998570397;-0.39971923828125;-0.009442138671875;0.0299999999242573;4;1 A
0.576233998545149;-0.399749755859375;-0.0086700439453125;0.0399999998990097;5;1 A
0.586233998519901;-0.399749755859375;-0.0081939697265625;0.0499999998737621;6;1 A
0.596233998494654;-0.399749755859375;-0.0076263427734375;0.0599999998485146;7;1 A
0.606233998469406;-0.399749755859375;-0.00717773437499999;0.069999999823267;8;1 A
0.616233998444159;-0.399749755859375;-0.00685729980468749;0.0799999997980194;9;1 A
0.626233998418911;-0.399688720703125;-0.00653991699218751;0.0899999997727718;10;1 A
0.636233998393664;-0.399749755859375;-0.0062591552734375;0.0999999997475243;11;1 A
0.646233998368416;-0.399749755859375;-0.00601806640624999;0.109999999722277;12;1 A
0.656233998343168;-0.399688720703125;-0.00579223632812501;0.119999999697029;13;1 A
0.666233998317921;-0.3997802734375;-0.0055999755859375;0.129999999671782;14;1 A
0.676233998292673;-0.399749755859375;-0.0054290771484375;0.139999999646534;15;1 A
0.686233998267426;-0.399749755859375;-0.00525817871093751;0.149999999621286;16;1 A
0.696233998242178;-0.399749755859375;-0.00511779785156249;0.159999999596039;17;1 A
0.706233998216931;-0.399749755859375;-0.0049713134765625;0.169999999570791;18;1 A
0.716233998191683;-0.39971923828125;-0.0048553466796875;0.179999999545544;19;1 A
0.726233998166435;-0.39971923828125;-0.004742431640625;0.189999999520296;20;1 A
0.736233998141188;-0.39971923828125;-0.00462951660156249;0.199999999495049;21;1 A
0.74623399811594;-0.399749755859375;-0.00453796386718749;0.209999999469801;22;1 A
0.756233998090693;-0.3997802734375;-0.004437255859375;0.219999999444553;23;1 A
0.766233998065445;-0.399749755859375;-0.004351806640625;0.229999999419306;24;1 A
0.776233998040198;-0.39971923828125;-0.0042724609375;0.239999999394058;25;1 A
0.78623399801495;-0.3997802734375;-0.00419006347656251;0.249999999368811;26;1 A
0.796233997989702;-0.3997802734375;-0.0041229248046875;0.259999999343563;27;1 A
0.806233997964455;-0.39971923828125;-0.00404968261718749;0.269999999318316;28;1 A
0.816233997939207;-0.399688720703125;-0.003985595703125;0.279999999293068;29;1 A
0.82623399791396;-0.3997802734375;-0.003924560546875;0.28999999926782;30;1 A
0.836233997888712;-0.399688720703125;-0.003857421875;0.299999999242573;31;1 A
0.846233997863465;-0.39971923828125;-0.0038116455078125;0.309999999217325;32;1 A
0.856233997838217;-0.399658203125;-0.00374755859375001;0.319999999192078;33;1 A
0.866233997812969;-0.399749755859375;-0.00369873046874999;0.32999999916683;34;1 A
0.876233997787722;-0.39971923828125;-0.00365295410156249;0.339999999141583;35;1 A
0.886233997762474;-0.3997802734375;-0.0036041259765625;0.349999999116335;36;1 A
0.896233997737227;-0.39971923828125;-0.00356140136718749;0.359999999091087;37;1 A
0.906233997711979;-0.39971923828125;-0.0035064697265625;0.36999999906584;38;1 A
0.916233997686732;-0.39971923828125;-0.003466796875;0.379999999040592;39;1 A
0.926233997661484;-0.399688720703125;-0.00343017578125;0.389999999015345;40;1 A
0.936233997636236;-0.3997802734375;-0.0033843994140625;0.399999998990097;41;1 A
0.946233997610989;-0.399749755859375;-0.00335693359375;0.40999999896485;42;1 A
0.956233997585741;-0.39971923828125;-0.00330810546875;0.419999998939602;43;1 A
0.966233997560494;-0.399749755859375;-0.003277587890625;0.429999998914354;44;1 A
0.976233997535246;-0.39971923828125;-0.00324401855468751;0.439999998889107;45;1 A
0.986233997509999;-0.399688720703125;-0.00321350097656251;0.449999998863859;46;1 A
0.996233997484751;-0.399749755859375;-0.0031890869140625;0.459999998838612;47;1 A
1.0062339974595;-0.39971923828125;-0.0031463623046875;0.469999998813364;48;1 A
1.01623399743426;-0.399749755859375;-0.003125;0.479999998788116;49;1 A
1.02623399740901;-0.399749755859375;-0.003094482421875;0.489999998762869;50;1 A
1.03623399738376;-0.39971923828125;-0.00306091308593751;0.499999998737621;51;1 A
1.04623399735851;-0.39971923828125;-0.00304565429687501;0.509999998712374;52;1 A
1.05623399733327;-0.39971923828125;-0.003009033203125;0.519999998687126;53;1 A
1.06623399730802;-0.399749755859375;-0.00298156738281249;0.529999998661879;54;1 A
1.07623399728277;-0.3997802734375;-0.002960205078125;0.539999998636631;55;1 A
1.08623399725752;-0.399749755859375;-0.0029327392578125;0.549999998611383;56;1 A
1.09623399723228;-0.399749755859375;-0.00292053222656249;0.559999998586136;57;1 A
1.10623399720703;-0.39971923828125;-0.00289306640625001;0.569999998560888;58;1 A
1.11623399718178;-0.399749755859375;-0.00287475585937499;0.579999998535641;59;1 A
1.12623399715653;-0.399749755859375;-0.0028564453125;0.589999998510393;60;1 A
1.13623399713128;-0.399749755859375;-0.00283203125000001;0.599999998485146;61;1 A
1.14623399710604;-0.3997802734375;-0.00281677246093751;0.609999998459898;62;1 A
1.15623399708079;-0.3997802734375;-0.002789306640625;0.61999999843465;63;1 A
1.16623399705554;-0.399688720703125;-0.0027740478515625;0.629999998409403;64;1 A
1.17623399703029;-0.399749755859375;-0.00275573730468751;0.639999998384155;65;1 A
1.18623399700505;-0.399688720703125;-0.00273742675781249;0.649999998358908;66;1 A
1.1962339969798;-0.399749755859375;-0.00272216796874999;0.65999999833366;67;1 A
1.20623399695455;-0.39971923828125;-0.00269470214843751;0.669999998308413;68;1 A
1.2162339969293;-0.39971923828125;-0.0026824951171875;0.679999998283165;69;1 A
1.22623399690406;-0.399658203125;-0.00266418457031251;0.689999998257917;70;1 A
1.23623399687881;-0.399749755859375;-0.00264587402343749;0.69999999823267;71;1 A
1.24623399685356;-0.39971923828125;-0.00263061523437499;0.709999998207422;72;1 A
1.25623399682831;-0.39971923828125;-0.00261535644531249;0.719999998182175;73;1 A
1.26623399680307;-0.399688720703125;-0.00260009765624999;0.729999998156927;74;1 A
1.27623399677782;-0.399749755859375;-0.002593994140625;0.73999999813168;75;1 A
1.28623399675257;-0.399749755859375;-0.00256958007812499;0.749999998106432;76;1 A
1.29623399672732;-0.399749755859375;-0.0025604248046875;0.759999998081184;77;1 A
1.30623399670208;-0.399749755859375;-0.002545166015625;0.769999998055937;78;1 A
1.31623399667683;-0.3997802734375;-0.0025299072265625;0.779999998030689;79;1 A
1.32623399665158;-0.399749755859375;-0.002520751953125;0.789999998005442;80;1 A
1.33623399662633;-0.399810791015625;-0.0025054931640625;0.799999997980194;81;1 A
1.34623399660109;-0.399749755859375;-0.0024993896484375;0.809999997954947;82;1 A
1.35623399657584;-0.39971923828125;-0.00247802734374999;0.819999997929699;83;1 A
1.36623399655059;-0.399749755859375;-0.0024749755859375;0.829999997904451;84;1 A
1.37623399652534;-0.39971923828125;-0.00246276855468749;0.839999997879204;85;1 A
1.3862339965001;-0.39971923828125;-0.0024444580078125;0.849999997853956;86;1 A
1.39623399647485;-0.399688720703125;-0.00244140625;0.859999997828709;87;1 A
1.4062339964496;-0.399749755859375;-0.00242004394531251;0.869999997803461;88;1 A
1.41623399642435;-0.399688720703125;-0.00241699218749999;0.879999997778214;89;1 A
1.42623399639911;-0.399749755859375;-0.002410888671875;0.889999997752966;90;1 A
1.43623399637386;-0.39971923828125;-0.00238952636718751;0.899999997727718;91;1 A
1.44623399634861;-0.39971923828125;-0.00238647460937499;0.909999997702471;92;1 A
1.45623399632336;-0.399749755859375;-0.0023681640625;0.919999997677223;93;1 A
1.46623399629812;-0.399749755859375;-0.0023651123046875;0.929999997651976;94;1 A
1.47623399627287;-0.399810791015625;-0.00235900878906251;0.939999997626728;95;1 A
1.48623399624762;-0.399749755859375;-0.00234069824218749;0.949999997601481;96;1 A
1.49623399622237;-0.39971923828125;-0.00234069824218749;0.959999997576233;97;1 A
1.50623399619712;-0.39984130859375;-0.0023223876953125;0.969999997550985;98;1 A
1.51623399617188;-0.3997802734375;-0.0023193359375;0.979999997525738;99;1 A
1.52623399614663;-0.39971923828125;-0.00230712890625;0.98999999750049;100;1 A
1.53623399612138;-0.399810791015625;-0.00229492187499999;0.999999997475243;101;1 A
1.54623399609613;-0.399749755859375;-0.0022918701171875;1.00999999745;102;1 A
1.55623399607089;-0.39971923828125;-0.002276611328125;1.01999999742475;103;1 A
1.56623399604564;-0.39971923828125;-0.0022705078125;1.0299999973995;104;1 A
1.57623399602039;-0.399688720703125;-0.0022705078125;1.03999999737425;105;1 A
1.58623399599514;-0.399749755859375;-0.00225830078125;1.049999997349;106;1 A
1.5962339959699;-0.3997802734375;-0.0022552490234375;1.05999999732376;107;1 A
1.60623399594465;-0.399688720703125;-0.0022430419921875;1.06999999729851;108;1 A
1.6162339959194;-0.399749755859375;-0.002239990234375;1.07999999727326;109;1 A
1.62623399589415;-0.39971923828125;-0.0022247314453125;1.08999999724801;110;1 A
1.63623399586891;-0.3997802734375;-0.0022125244140625;1.09999999722277;111;1 A
1.64623399584366;-0.39971923828125;-0.002215576171875;1.10999999719752;112;1 A
1.65623399581841;-0.399749755859375;-0.0022003173828125;1.11999999717227;113;1 A
1.66623399579316;-0.399688720703125;-0.002197265625;1.12999999714702;114;1 A
1.67623399576792;-0.399749755859375;-0.00218811035156249;1.13999999712178;115;1 A
1.68623399574267;-0.3997802734375;-0.00218505859375;1.14999999709653;116;1 A
1.69623399571742;-0.399810791015625;-0.002178955078125;1.15999999707128;117;1 A
1.70623399569217;-0.399749755859375;-0.002166748046875;1.16999999704603;118;1 A
1.71623399566693;-0.399688720703125;-0.0021636962890625;1.17999999702079;119;1 A
1.72623399564168;-0.399749755859375;-0.00216064453125001;1.18999999699554;120;1 A
1.73623399561643;-0.399810791015625;-0.0021514892578125;1.19999999697029;121;1 A
1.74623399559118;-0.39971923828125;-0.0021514892578125;1.20999999694504;122;1 A
1.75623399556594;-0.39971923828125;-0.00213623046875;1.2199999969198;123;1 A
1.76623399554069;-0.399749755859375;-0.00212707519531249;1.22999999689455;124;1 A
1.77623399551544;-0.3997802734375;-0.00212707519531249;1.2399999968693;125;1 A
1.78623399549019;-0.39971923828125;-0.0021209716796875;1.24999999684405;126;1 A
1.79623399546495;-0.399749755859375;-0.002117919921875;1.25999999681881;127;1 A
1.8062339954397;-0.39971923828125;-0.00211486816406251;1.26999999679356;128;1 A
1.81623399541445;-0.3997802734375;-0.00211181640624999;1.27999999676831;129;1 A
1.8262339953892;-0.39971923828125;-0.0021087646484375;1.28999999674306;130;1 A
1.83623399536395;-0.39971923828125;-0.00209960937500001;1.29999999671782;131;1 A
1.84623399533871;-0.399749755859375;-0.00209960937500001;1.30999999669257;132;1 A
1.85623399531346;-0.399749755859375;-0.00208435058593751;1.31999999666732;133;1 A
1.86623399528821;-0.3997802734375;-0.00208129882812499;1.32999999664207;134;1 A
1.87623399526296;-0.399749755859375;-0.00208740234375;1.33999999661683;135;1 A
1.88623399523772;-0.3997802734375;-0.0020751953125;1.34999999659158;136;1 A
1.89623399521247;-0.39971923828125;-0.0020782470703125;1.35999999656633;137;1 A
1.90623399518722;-0.399688720703125;-0.00206604003906249;1.36999999654108;138;1 A
1.91623399516197;-0.3997802734375;-0.0020599365234375;1.37999999651583;139;1 A
1.92623399513673;-0.3997802734375;-0.0020599365234375;1.38999999649059;140;1 A
1.93623399511148;-0.39971923828125;-0.0020477294921875;1.39999999646534;141;1 A
1.94623399508623;-0.3997802734375;-0.0020477294921875;1.40999999644009;142;1 A
1.95623399506098;-0.39971923828125;-0.00203552246093749;1.41999999641484;143;1 A
1.96623399503574;-0.39971923828125;-0.0020294189453125;1.4299999963896;144;1 A
1.97623399501049;-0.399749755859375;-0.002032470703125;1.43999999636435;145;1 A
1.98623399498524;-0.399749755859375;-0.00202026367187499;1.4499999963391;146;1 A
1.99623399495999;-0.3997802734375;-0.00202026367187499;1.45999999631385;147;1 A
2.00623399493475;-0.399749755859375;-0.0020111083984375;1.46999999628861;148;1 A
2.0162339949095;-0.39971923828125;-0.0020111083984375;1.47999999626336;149;1 A
2.02623399488425;-0.399749755859375;-0.00200805664062501;1.48999999623811;150;1 A
2.036233994859;-0.399749755859375;-0.002001953125;1.49999999621286;151;1 A
2.04623399483376;-0.399749755859375;-0.00200500488281249;1.50999999618762;152;1 A
2.05623399480851;-0.399749755859375;-0.00199279785156251;1.51999999616237;153;1 A
2.06623399478326;-0.399658203125;-0.001995849609375;1.52999999613712;154;1 A
2.07623399475801;-0.3997802734375;-0.00198974609374999;1.53999999611187;155;1 A
2.08623399473277;-0.399688720703125;-0.0019866943359375;1.54999999608663;156;1 A
2.09623399470752;-0.399688720703125;-0.001983642578125;1.55999999606138;157;1 A
2.10623399468227;-0.3997802734375;-0.001971435546875;1.56999999603613;158;1 A
2.11623399465702;-0.3997802734375;-0.001971435546875;1.57999999601088;159;1 A
2.12623399463178;-0.399749755859375;-0.0019683837890625;1.58999999598564;160;1 A
2.13623399460653;-0.399749755859375;-0.00195922851562499;1.59999999596039;161;1 A
2.14623399458128;-0.39971923828125;-0.00196228027343751;1.60999999593514;162;1 A
2.15623399455603;-0.399749755859375;-0.00194702148437501;1.61999999590989;163;1 A
2.16623399453078;-0.399688720703125;-0.0019500732421875;1.62999999588465;164;1 A
2.17623399450554;-0.39971923828125;-0.0019500732421875;1.6399999958594;165;1 A
2.18623399448029;-0.399749755859375;-0.00194091796875;1.64999999583415;166;1 A
2.19623399445504;-0.39971923828125;-0.001934814453125;1.6599999958089;167;1 A
2.20623399442979;-0.399749755859375;-0.0019256591796875;1.66999999578366;168;1 A
2.21623399440455;-0.39971923828125;-0.00193176269531251;1.67999999575841;169;1 A
2.2262339943793;-0.399688720703125;-0.00192871093749999;1.68999999573316;170;1 A
2.23623399435405;-0.39971923828125;-0.0019195556640625;1.69999999570791;171;1 A
2.2462339943288;-0.399749755859375;-0.001922607421875;1.70999999568267;172;1 A
2.25623399430356;-0.399749755859375;-0.00191345214843749;1.71999999565742;173;1 A
2.26623399427831;-0.399688720703125;-0.0019195556640625;1.72999999563217;174;1 A
2.27623399425306;-0.399749755859375;-0.00191345214843749;1.73999999560692;175;1 A
2.28623399422781;-0.399688720703125;-0.00190124511718751;1.74999999558167;176;1 A
2.29623399420257;-0.39971923828125;-0.00190124511718751;1.75999999555643;177;1 A
2.30623399417732;-0.39971923828125;-0.00189819335937499;1.76999999553118;178;1 A
2.31623399415207;-0.399688720703125;-0.00189819335937499;1.77999999550593;179;1 A
2.32623399412682;-0.399749755859375;-0.00189208984375;1.78999999548068;180;1 A
2.33623399410158;-0.399749755859375;-0.00188293457031249;1.79999999545544;181;1 A
2.34623399407633;-0.39971923828125;-0.0018890380859375;1.80999999543019;182;1 A
2.35623399405108;-0.3997802734375;-0.00188293457031249;1.81999999540494;183;1 A
2.36623399402583;-0.399688720703125;-0.0018798828125;1.82999999537969;184;1 A
2.37623399400059;-0.3997802734375;-0.001873779296875;1.83999999535445;185;1 A
2.38623399397534;-0.39971923828125;-0.00187072753906251;1.8499999953292;186;1 A
2.39623399395009;-0.399749755859375;-0.00187072753906251;1.85999999530395;187;1 A
2.40623399392484;-0.399749755859375;-0.0018646240234375;1.8699999952787;188;1 A
2.4162339938996;-0.399749755859375;-0.00186767578124999;1.87999999525346;189;1 A
2.42623399387435;-0.39971923828125;-0.00186767578124999;1.88999999522821;190;1 A
2.4362339938491;-0.399749755859375;-0.001861572265625;1.89999999520296;191;1 A
2.44623399382385;-0.39971923828125;-0.0018646240234375;1.90999999517771;192;1 A
2.45623399379861;-0.39971923828125;-0.0018585205078125;1.91999999515247;193;1 A
2.46623399377336;-0.39971923828125;-0.00185241699218749;1.92999999512722;194;1 A
2.47623399374811;-0.399749755859375;-0.00185241699218749;1.93999999510197;195;1 A
2.48623399372286;-0.39971923828125;-0.0018463134765625;1.94999999507672;196;1 A
2.49623399369762;-0.399749755859375;-0.00184326171875;1.95999999505148;197;1 A
2.50623399367237;-0.39971923828125;-0.00183715820312499;1.96999999502623;198;1 A
2.51623399364712;-0.39971923828125;-0.00184020996093751;1.97999999500098;199;1 A
2.52623399362187;-0.399688720703125;-0.00184020996093751;1.98999999497573;200;1 A
2.53623399359662;-0.39971923828125;-0.0018341064453125;1.99999999495049;201;1 A
2.54623399357138;-0.399688720703125;-0.0018341064453125;2.00999999492524;202;1 A
2.55623399354613;-0.399749755859375;-0.00182495117187501;2.01999999489999;203;1 A
2.56623399352088;-0.39971923828125;-0.0018280029296875;2.02999999487474;204;1 A
2.57623399349563;-0.399688720703125;-0.0018280029296875;2.0399999948495;205;1 A
2.58623399347039;-0.399749755859375;-0.00181884765625;2.04999999482425;206;1 A
2.59623399344514;-0.39971923828125;-0.0018280029296875;2.059999994799;207;1 A
2.60623399341989;-0.399810791015625;-0.0018157958984375;2.06999999477375;208;1 A
2.61623399339464;-0.399749755859375;-0.0018157958984375;2.0799999947485;209;1 A
2.6262339933694;-0.39971923828125;-0.00181884765625;2.08999999472326;210;1 A
2.63623399334415;-0.399749755859375;-0.00180664062499999;2.09999999469801;211;1 A
2.6462339933189;-0.399749755859375;-0.0018035888671875;2.10999999467276;212;1 A
2.65623399329365;-0.399749755859375;-0.0018035888671875;2.11999999464751;213;1 A
2.66623399326841;-0.399688720703125;-0.0018035888671875;2.12999999462227;214;1 A
2.67623399324316;-0.39971923828125;-0.0017974853515625;2.13999999459702;215;1 A
2.68623399321791;-0.399749755859375;-0.00179138183593749;2.14999999457177;216;1 A
2.69623399319266;-0.39971923828125;-0.001800537109375;2.15999999454652;217;1 A
2.70623399316742;-0.3997802734375;-0.00179138183593749;2.16999999452128;218;1 A
2.71623399314217;-0.399749755859375;-0.00179443359375001;2.17999999449603;219;1 A
2.72623399311692;-0.399688720703125;-0.00179138183593749;2.18999999447078;220;1 A
2.73623399309167;-0.39971923828125;-0.001788330078125;2.19999999444553;221;1 A
2.74623399306643;-0.39971923828125;-0.00179138183593749;2.20999999442029;222;1 A
2.75623399304118;-0.3997802734375;-0.00177917480468751;2.21999999439504;223;1 A
2.76623399301593;-0.39971923828125;-0.00177917480468751;2.22999999436979;224;1 A
2.77623399299068;-0.399749755859375;-0.00177917480468751;2.23999999434454;225;1 A
2.78623399296544;-0.399688720703125;-0.0017730712890625;2.2499999943193;226;1 A
2.79623399294019;-0.399749755859375;-0.00177917480468751;2.25999999429405;227;1 A
2.80623399291494;-0.39971923828125;-0.0017669677734375;2.2699999942688;228;1 A
2.81623399288969;-0.399749755859375;-0.00177001953125;2.27999999424355;229;1 A
2.82623399286445;-0.399749755859375;-0.00177001953125;2.28999999421831;230;1 A
2.8362339928392;-0.3997802734375;-0.00176391601562501;2.29999999419306;231;1 A
2.84623399281395;-0.399688720703125;-0.0017669677734375;2.30999999416781;232;1 A
2.8562339927887;-0.399749755859375;-0.00176086425781249;2.31999999414256;233;1 A
2.86623399276345;-0.39971923828125;-0.0017669677734375;2.32999999411732;234;1 A
2.87623399273821;-0.39971923828125;-0.00176086425781249;2.33999999409207;235;1 A
2.88623399271296;-0.39971923828125;-0.0017578125;2.34999999406682;236;1 A
2.89623399268771;-0.39971923828125;-0.00176086425781249;2.35999999404157;237;1 A
2.90623399266246;-0.39971923828125;-0.0017547607421875;2.36999999401633;238;1 A
2.91623399263722;-0.399688720703125;-0.0017578125;2.37999999399108;239;1 A
2.92623399261197;-0.3997802734375;-0.0017547607421875;2.38999999396583;240;1 A
2.93623399258672;-0.3997802734375;-0.0017578125;2.39999999394058;241;1 A
2.94623399256147;-0.399749755859375;-0.0017547607421875;2.40999999391533;242;1 A
2.95623399253623;-0.39971923828125;-0.00174560546874999;2.41999999389009;243;1 A
2.96623399251098;-0.39971923828125;-0.001751708984375;2.42999999386484;244;1 A
2.97623399248573;-0.399810791015625;-0.00174865722656251;2.43999999383959;245;1 A
2.98623399246048;-0.39971923828125;-0.00174560546874999;2.44999999381434;246;1 A
2.99623399243524;-0.399749755859375;-0.0017425537109375;2.4599999937891;247;1 A
3.00623399240999;-0.3997802734375;-0.001739501953125;2.46999999376385;248;1 A
3.01623399238474;-0.3997802734375;-0.0017425537109375;2.4799999937386;249;1 A
3.02623399235949;-0.399749755859375;-0.001739501953125;2.48999999371335;250;1 A
3.03623399233425;-0.39971923828125;-0.0017364501953125;2.49999999368811;251;1 A
3.046233992309;-0.39971923828125;-0.001739501953125;2.50999999366286;252;1 A
3.05623399228375;-0.3997802734375;-0.00173339843750001;2.51999999363761;253;1 A
3.0662339922585;-0.39971923828125;-0.0017364501953125;2.52999999361236;254;1 A
3.07623399223326;-0.399749755859375;-0.00173034667968749;2.53999999358712;255;1 A
3.08623399220801;-0.39971923828125;-0.001727294921875;2.54999999356187;256;1 A
3.09623399218276;-0.39971923828125;-0.001727294921875;2.55999999353662;257;1 A
3.10623399215751;-0.399810791015625;-0.00171508789062499;2.56999999351137;258;1 A
3.11623399213227;-0.399749755859375;-0.00172119140625;2.57999999348613;259;1 A
3.12623399210702;-0.39971923828125;-0.00172119140625;2.58999999346088;260;1 A
3.13623399208177;-0.399749755859375;-0.00171508789062499;2.59999999343563;261;1 A
3.14623399205652;-0.399749755859375;-0.00172119140625;2.60999999341038;262;1 A
3.15623399203128;-0.399749755859375;-0.0017120361328125;2.61999999338514;263;1 A
3.16623399200603;-0.39971923828125;-0.00171508789062499;2.62999999335989;264;1 A
3.17623399198078;-0.39971923828125;-0.00171813964843751;2.63999999333464;265;1 A
3.18623399195553;-0.3997802734375;-0.0017120361328125;2.64999999330939;266;1 A
3.19623399193028;-0.3997802734375;-0.00171508789062499;2.65999999328415;267;1 A
3.20623399190504;-0.3997802734375;-0.001708984375;2.6699999932589;268;1 A
3.21623399187979;-0.3997802734375;-0.0017120361328125;2.67999999323365;269;1 A
3.22623399185454;-0.3997802734375;-0.0017059326171875;2.6899999932084;270;1 A
3.23623399182929;-0.399749755859375;-0.00169982910156249;2.69999999318316;271;1 A
3.24623399180405;-0.399688720703125;-0.0017059326171875;2.70999999315791;272;1 A
3.2562339917788;-0.3997802734375;-0.001690673828125;2.71999999313266;273;1 A
3.26623399175355;-0.399688720703125;-0.00169982910156249;2.72999999310741;274;1 A
3.2762339917283;-0.399749755859375;-0.00169982910156249;2.73999999308217;275;1 A
3.28623399170306;-0.399749755859375;-0.001690673828125;2.74999999305692;276;1 A
3.29623399167781;-0.39971923828125;-0.0016937255859375;2.75999999303167;277;1 A
3.30623399165256;-0.399688720703125;-0.00168457031249999;2.76999999300642;278;1 A
3.31623399162731;-0.39971923828125;-0.001690673828125;2.77999999298117;279;1 A
3.32623399160207;-0.399749755859375;-0.001690673828125;2.78999999295593;280;1 A
3.33623399157682;-0.399749755859375;-0.00168762207031251;2.79999999293068;281;1 A
3.34623399155157;-0.399749755859375;-0.001690673828125;2.80999999290543;282;1 A
3.35623399152632;-0.3997802734375;-0.00168457031249999;2.81999999288018;283;1 A
3.36623399150108;-0.399749755859375;-0.0016937255859375;2.82999999285494;284;1 A
3.37623399147583;-0.399749755859375;-0.001690673828125;2.83999999282969;285;1 A
3.38623399145058;-0.399688720703125;-0.00168457031249999;2.84999999280444;286;1 A
3.39623399142533;-0.3997802734375;-0.001690673828125;2.85999999277919;287;1 A
3.40623399140009;-0.39971923828125;-0.0016815185546875;2.86999999275395;288;1 A
3.41623399137484;-0.3997802734375;-0.0016937255859375;2.8799999927287;289;1 A
3.42623399134959;-0.39971923828125;-0.00168762207031251;2.88999999270345;290;1 A
3.43623399132434;-0.39971923828125;-0.001678466796875;2.8999999926782;291;1 A
3.4462339912991;-0.3997802734375;-0.00168762207031251;2.90999999265296;292;1 A
3.45623399127385;-0.39971923828125;-0.001678466796875;2.91999999262771;293;1 A
3.4662339912486;-0.39971923828125;-0.00168457031249999;2.92999999260246;294;1 A
3.47623399122335;-0.39971923828125;-0.00168457031249999;2.93999999257721;295;1 A
3.48623399119811;-0.39971923828125;-0.0016754150390625;2.94999999255197;296;1 A
3.49623399117286;-0.3997802734375;-0.0016815185546875;2.95999999252672;297;1 A
3.50623399114761;-0.399749755859375;-0.00167236328125001;2.96999999250147;298;1 A
3.51623399112236;-0.399749755859375;-0.001678466796875;2.97999999247622;299;1 A
3.52623399109711;-0.399749755859375;-0.001678466796875;2.98999999245098;300;1 A
3.53623399107187;-0.39971923828125;-0.00167236328125001;2.99999999242573;301;1 A
3.54623399104662;-0.39971923828125;-0.001678466796875;3.00999999240048;302;1 A
3.55623399102137;-0.39971923828125;-0.0016632080078125;3.01999999237523;303;1 A
3.56623399099612;-0.399658203125;-0.00167236328125001;3.02999999234999;304;1 A
3.57623399097088;-0.39971923828125;-0.0016754150390625;3.03999999232474;305;1 A
3.58623399094563;-0.399749755859375;-0.00166931152343749;3.04999999229949;306;1 A
3.59623399092038;-0.399749755859375;-0.00167236328125001;3.05999999227424;307;1 A
3.60623399089513;-0.399749755859375;-0.00165710449218751;3.069999992249;308;1 A
3.61623399086989;-0.3997802734375;-0.001666259765625;3.07999999222375;309;1 A
3.62623399084464;-0.39971923828125;-0.00166015625;3.0899999921985;310;1 A
3.63623399081939;-0.3997802734375;-0.00165405273437499;3.09999999217325;311;1 A
3.64623399079414;-0.39971923828125;-0.0016632080078125;3.109999992148;312;1 A
3.6562339907689;-0.39971923828125;-0.0016632080078125;3.11999999212276;313;1 A
3.66623399074365;-0.399658203125;-0.001666259765625;3.12999999209751;314;1 A
3.6762339907184;-0.39971923828125;-0.0016632080078125;3.13999999207226;315;1 A
3.68623399069315;-0.3997802734375;-0.00165710449218751;3.14999999204701;316;1 A
3.69623399066791;-0.399749755859375;-0.0016632080078125;3.15999999202177;317;1 A
3.70623399064266;-0.399749755859375;-0.0016632080078125;3.16999999199652;318;1 A
3.71623399061741;-0.399749755859375;-0.0016632080078125;3.17999999197127;319;1 A
3.72623399059216;-0.399749755859375;-0.00165710449218751;3.18999999194602;320;1 A
3.73623399056692;-0.3997802734375;-0.00165710449218751;3.19999999192078;321;1 A
3.74623399054167;-0.399749755859375;-0.00166015625;3.20999999189553;322;1 A
3.75623399051642;-0.399749755859375;-0.0016510009765625;3.21999999187028;323;1 A
3.76623399049117;-0.399749755859375;-0.00165710449218751;3.22999999184503;324;1 A
3.77623399046593;-0.39971923828125;-0.00165710449218751;3.23999999181979;325;1 A
3.78623399044068;-0.39984130859375;-0.0016510009765625;3.24999999179454;326;1 A
3.79623399041543;-0.39971923828125;-0.00165405273437499;3.25999999176929;327;1 A
3.80623399039018;-0.399749755859375;-0.00164794921875;3.26999999174404;328;1 A
3.81623399036494;-0.3997802734375;-0.00165405273437499;3.2799999917188;329;1 A
3.82623399033969;-0.3997802734375;-0.00165405273437499;3.28999999169355;330;1 A
3.83623399031444;-0.399688720703125;-0.0016448974609375;3.2999999916683;331;1 A
3.84623399028919;-0.399749755859375;-0.0016510009765625;3.30999999164305;332;1 A
3.85623399026395;-0.399749755859375;-0.00163879394531249;3.31999999161781;333;1 A
3.8662339902387;-0.3997802734375;-0.00164794921875;3.32999999159256;334;1 A
3.87623399021345;-0.399749755859375;-0.00164794921875;3.33999999156731;335;1 A
3.8862339901882;-0.399688720703125;-0.0016448974609375;3.34999999154206;336;1 A
3.89623399016295;-0.399749755859375;-0.00164794921875;3.35999999151682;337;1 A
3.90623399013771;-0.3997802734375;-0.00163879394531249;3.36999999149157;338;1 A
3.91623399011246;-0.39971923828125;-0.00164184570312501;3.37999999146632;339;1 A
3.92623399008721;-0.39971923828125;-0.00164184570312501;3.38999999144107;340;1 A
3.93623399006196;-0.399749755859375;-0.00163879394531249;3.39999999141583;341;1 A
3.94623399003672;-0.399749755859375;-0.00163879394531249;3.40999999139058;342;1 A
3.95623399001147;-0.39971923828125;-0.001629638671875;3.41999999136533;343;1 A
3.96623398998622;-0.39971923828125;-0.0016357421875;3.42999999134008;344;1 A
3.97623398996097;-0.399749755859375;-0.0016357421875;3.43999999131483;345;1 A
3.98623398993573;-0.3997802734375;-0.001629638671875;3.44999999128959;346;1 A
3.99623398991048;-0.399749755859375;-0.0016357421875;3.45999999126434;347;1 A
4.00623398988523;-0.399810791015625;-0.001629638671875;3.46999999123909;348;1 A
4.01623398985998;-0.399749755859375;-0.0016326904296875;3.47999999121384;349;1 A
4.02623398983474;-0.399688720703125;-0.00164184570312501;3.4899999911886;350;1 A
4.03623398980949;-0.399749755859375;-0.00162658691406251;3.49999999116335;351;1 A
4.04623398978424;-0.399749755859375;-0.0016326904296875;3.5099999911381;352;1 A
4.05623398975899;-0.399688720703125;-0.00162353515624999;3.51999999111285;353;1 A
4.06623398973375;-0.399749755859375;-0.001629638671875;3.52999999108761;354;1 A
4.0762339897085;-0.399688720703125;-0.001629638671875;3.53999999106236;355;1 A
4.08623398968325;-0.39971923828125;-0.0016204833984375;3.54999999103711;356;1 A
4.096233989658;-0.399749755859375;-0.00162353515624999;3.55999999101186;357;1 A
4.10623398963276;-0.3997802734375;-0.0016204833984375;3.56999999098662;358;1 A
4.11623398960751;-0.39971923828125;-0.00162353515624999;3.57999999096137;359;1 A
4.12623398958226;-0.39971923828125;-0.001617431640625;3.58999999093612;360;1 A
4.13623398955701;-0.3997802734375;-0.001617431640625;3.59999999091087;361;1 A
4.14623398953177;-0.399749755859375;-0.0016204833984375;3.60999999088563;362;1 A
4.15623398950652;-0.3997802734375;-0.001617431640625;3.61999999086038;363;1 A
4.16623398948127;-0.39971923828125;-0.00162353515624999;3.62999999083513;364;1 A
4.17623398945602;-0.39971923828125;-0.0016204833984375;3.63999999080988;365;1 A
4.18623398943078;-0.3997802734375;-0.0016143798828125;3.64999999078464;366;1 A
4.19623398940553;-0.399688720703125;-0.0016204833984375;3.65999999075939;367;1 A
4.20623398938028;-0.3997802734375;-0.00161132812500001;3.66999999073414;368;1 A
4.21623398935503;-0.39971923828125;-0.001617431640625;3.67999999070889;369;1 A
4.22623398932978;-0.39971923828125;-0.001617431640625;3.68999999068365;370;1 A
4.23623398930454;-0.39971923828125;-0.0016143798828125;3.6999999906584;371;1 A
4.24623398927929;-0.399658203125;-0.001617431640625;3.70999999063315;372;1 A
4.25623398925404;-0.3997802734375;-0.00160827636718749;3.7199999906079;373;1 A
4.26623398922879;-0.399749755859375;-0.00161132812500001;3.72999999058266;374;1 A
4.27623398920355;-0.399749755859375;-0.00161132812500001;3.73999999055741;375;1 A
4.2862339891783;-0.399810791015625;-0.00160827636718749;3.74999999053216;376;1 A
4.29623398915305;-0.399749755859375;-0.00161132812500001;3.75999999050691;377;1 A
4.3062339891278;-0.399749755859375;-0.001605224609375;3.76999999048167;378;1 A
4.31623398910256;-0.399688720703125;-0.00160827636718749;3.77999999045642;379;1 A
4.32623398907731;-0.39971923828125;-0.00160827636718749;3.78999999043117;380;1 A
4.33623398905206;-0.399749755859375;-0.00159912109375;3.79999999040592;381;1 A
4.34623398902681;-0.39971923828125;-0.00160827636718749;3.80999999038067;382;1 A
4.35623398900157;-0.3997802734375;-0.00159606933593751;3.81999999035543;383;1 A
4.36623398897632;-0.39971923828125;-0.001605224609375;3.82999999033018;384;1 A
4.37623398895107;-0.399749755859375;-0.00160827636718749;3.83999999030493;385;1 A
4.38623398892582;-0.39971923828125;-0.0016021728515625;3.84999999027968;386;1 A
4.39623398890058;-0.3997802734375;-0.00160827636718749;3.85999999025444;387;1 A
4.40623398887533;-0.399749755859375;-0.0016021728515625;3.86999999022919;388;1 A
4.41623398885008;-0.3997802734375;-0.00160827636718749;3.87999999020394;389;1 A
4.42623398882483;-0.39971923828125;-0.00160827636718749;3.88999999017869;390;1 A
4.43623398879959;-0.399749755859375;-0.0016021728515625;3.89999999015345;391;1 A
4.44623398877434;-0.39984130859375;-0.00160827636718749;3.9099999901282;392;1 A
4.45623398874909;-0.399688720703125;-0.0016021728515625;3.91999999010295;393;1 A
4.46623398872384;-0.399749755859375;-0.00160827636718749;3.9299999900777;394;1 A
4.4762339886986;-0.399749755859375;-0.00159912109375;3.93999999005246;395;1 A
4.48623398867335;-0.399749755859375;-0.00159606933593751;3.94999999002721;396;1 A
4.4962339886481;-0.399749755859375;-0.00159912109375;3.95999999000196;397;1 A
4.50623398862285;-0.399688720703125;-0.00159301757812499;3.96999998997671;398;1 A
4.51623398859761;-0.399749755859375;-0.00159912109375;3.97999998995147;399;1 A
4.52623398857236;-0.39971923828125;-0.00159912109375;3.98999998992622;400;1 A
4.53623398854711;-0.39971923828125;-0.0015899658203125;3.99999998990097;401;1 A
4.54623398852186;-0.399688720703125;-0.00159606933593751;4.00999998987572;402;1 A
4.55623398849661;-0.399749755859375;-0.0015869140625;4.01999998985048;403;1 A
4.56623398847137;-0.399749755859375;-0.0015899658203125;4.02999998982523;404;1 A
4.57623398844612;-0.3997802734375;-0.0015899658203125;4.03999998979998;405;1 A
4.58623398842087;-0.399749755859375;-0.0015899658203125;4.04999998977473;406;1 A
4.59623398839562;-0.399658203125;-0.00159606933593751;4.05999998974949;407;1 A
4.60623398837038;-0.3997802734375;-0.00159301757812499;4.06999998972424;408;1 A
4.61623398834513;-0.39971923828125;-0.00159301757812499;4.07999998969899;409;1 A
4.62623398831988;-0.399749755859375;-0.00159606933593751;4.08999998967374;410;1 A
4.63623398829463;-0.39971923828125;-0.0015899658203125;4.0999999896485;411;1 A
4.64623398826939;-0.39971923828125;-0.00159912109375;4.10999998962325;412;1 A
4.65623398824414;-0.399749755859375;-0.0015899658203125;4.119999989598;413;1 A
4.66623398821889;-0.39971923828125;-0.00159606933593751;4.12999998957275;414;1 A
4.67623398819364;-0.399749755859375;-0.0015899658203125;4.1399999895475;415;1 A
4.6862339881684;-0.399749755859375;-0.0015869140625;4.14999998952226;416;1 A
4.69623398814315;-0.399749755859375;-0.00159301757812499;4.15999998949701;417;1 A
4.7062339881179;-0.39971923828125;-0.0015899658203125;4.16999998947176;418;1 A
4.71623398809265;-0.3997802734375;-0.00159606933593751;4.17999998944651;419;1 A
4.72623398806741;-0.3997802734375;-0.00159301757812499;4.18999998942127;420;1 A
4.73623398804216;-0.399749755859375;-0.0015838623046875;4.19999998939602;421;1 A
4.74623398801691;-0.399749755859375;-0.0015899658203125;4.20999998937077;422;1 A
4.75623398799166;-0.399688720703125;-0.00158081054687501;4.21999998934552;423;1 A
4.76623398796642;-0.3997802734375;-0.0015838623046875;4.22999998932028;424;1 A
4.77623398794117;-0.399749755859375;-0.0015838623046875;4.23999998929503;425;1 A
4.78623398791592;-0.399688720703125;-0.00157470703125;4.24999998926978;426;1 A
4.79623398789067;-0.39971923828125;-0.00157775878906249;4.25999998924453;427;1 A
4.80623398786543;-0.39971923828125;-0.0015716552734375;4.26999998921929;428;1 A
4.81623398784018;-0.399658203125;-0.00158081054687501;4.27999998919404;429;1 A
4.82623398781493;-0.399749755859375;-0.00158081054687501;4.28999998916879;430;1 A
4.83623398778968;-0.3997802734375;-0.00157470703125;4.29999998914354;431;1 A
4.84623398776444;-0.399749755859375;-0.0015838623046875;4.3099999891183;432;1 A
4.85623398773919;-0.399688720703125;-0.00158081054687501;4.31999998909305;433;1 A
4.86623398771394;-0.399749755859375;-0.0015838623046875;4.3299999890678;434;1 A
4.87623398768869;-0.3997802734375;-0.0015838623046875;4.33999998904255;435;1 A
4.88623398766345;-0.39971923828125;-0.00158081054687501;4.34999998901731;436;1 A
4.8962339876382;-0.399749755859375;-0.0015869140625;4.35999998899206;437;1 A
4.90623398761295;-0.399749755859375;-0.00158081054687501;4.36999998896681;438;1 A
4.9162339875877;-0.39984130859375;-0.0015838623046875;4.37999998894156;439;1 A
4.92623398756245;-0.3997802734375;-0.0015838623046875;4.38999998891632;440;1 A
4.93623398753721;-0.39971923828125;-0.00157775878906249;4.39999998889107;441;1 A
4.94623398751196;-0.399749755859375;-0.00158081054687501;4.40999998886582;442;1 A
4.95623398748671;-0.399688720703125;-0.00157470703125;4.41999998884057;443;1 A
4.96623398746146;-0.3997802734375;-0.0015838623046875;4.42999998881533;444;1 A
4.97623398743622;-0.399688720703125;-0.00157775878906249;4.43999998879008;445;1 A
4.98623398741097;-0.39971923828125;-0.0015716552734375;4.44999998876483;446;1 A
4.99623398738572;-0.399749755859375;-0.00157775878906249;4.45999998873958;447;1 A
5.00623398736047;-0.39971923828125;-0.00156555175781251;4.46999998871433;448;1 A
5.01623398733523;-0.39971923828125;-0.00157470703125;4.47999998868909;449;1 A
5.02623398730998;-0.399749755859375;-0.0015716552734375;4.48999998866384;450;1 A
5.03623398728473;-0.399749755859375;-0.001568603515625;4.49999998863859;451;1 A
5.04623398725948;-0.39971923828125;-0.00157470703125;4.50999998861334;452;1 A
5.05623398723424;-0.399749755859375;-0.00156555175781251;4.5199999885881;453;1 A
5.06623398720899;-0.399749755859375;-0.0015716552734375;4.52999998856285;454;1 A
5.07623398718374;-0.399749755859375;-0.001568603515625;4.5399999885376;455;1 A
5.08623398715849;-0.39971923828125;-0.00157470703125;4.54999998851235;456;1 A
5.09623398713325;-0.3997802734375;-0.00157470703125;4.55999998848711;457;1 A
5.106233987108;-0.399749755859375;-0.001568603515625;4.56999998846186;458;1 A
5.11623398708275;-0.399749755859375;-0.00157470703125;4.57999998843661;459;1 A
5.1262339870575;-0.399749755859375;-0.00157470703125;4.58999998841136;460;1 A
5.13623398703226;-0.399749755859375;-0.00157775878906249;4.59999998838612;461;1 A
5.14623398700701;-0.3997802734375;-0.00157775878906249;4.60999998836087;462;1 A
5.15623398698176;-0.3997802734375;-0.00157470703125;4.61999998833562;463;1 A
5.16623398695651;-0.399749755859375;-0.00157775878906249;4.62999998831037;464;1 A
5.17623398693127;-0.39971923828125;-0.00157470703125;4.63999998828513;465;1 A
5.18623398690602;-0.39971923828125;-0.0015716552734375;4.64999998825988;466;1 A
5.19623398688077;-0.3997802734375;-0.00157470703125;4.65999998823463;467;1 A
5.20623398685552;-0.39971923828125;-0.00156555175781251;4.66999998820938;468;1 A
5.21623398683028;-0.399749755859375;-0.00157470703125;4.67999998818414;469;1 A
5.22623398680503;-0.399688720703125;-0.001568603515625;4.68999998815889;470;1 A
5.23623398677978;-0.399749755859375;-0.00156555175781251;4.69999998813364;471;1 A
5.24623398675453;-0.399749755859375;-0.0015716552734375;4.70999998810839;472;1 A
5.25623398672928;-0.399749755859375;-0.00156555175781251;4.71999998808315;473;1 A
5.26623398670404;-0.399810791015625;-0.00157470703125;4.7299999880579;474;1 A
5.27623398667879;-0.39971923828125;-0.0015716552734375;4.73999998803265;475;1 A
5.28623398665354;-0.39971923828125;-0.0015716552734375;4.7499999880074;476;1 A
5.29623398662829;-0.399749755859375;-0.0015716552734375;4.75999998798216;477;1 A
5.30623398660305;-0.39971923828125;-0.00156555175781251;4.76999998795691;478;1 A
5.3162339865778;-0.399749755859375;-0.0015716552734375;4.77999998793166;479;1 A
5.32623398655255;-0.399749755859375;-0.00157470703125;4.78999998790641;480;1 A
5.3362339865273;-0.399749755859375;-0.00157470703125;4.79999998788116;481;1 A
5.34623398650206;-0.39971923828125;-0.00157775878906249;4.80999998785592;482;1 A
5.35623398647681;-0.399749755859375;-0.00157470703125;4.81999998783067;483;1 A
5.36623398645156;-0.399749755859375;-0.0015838623046875;4.82999998780542;484;1 A
5.37623398642631;-0.39971923828125;-0.0015838623046875;4.83999998778017;485;1 A
5.38623398640107;-0.399810791015625;-0.00157775878906249;4.84999998775493;486;1 A
5.39623398637582;-0.3997802734375;-0.0015838623046875;4.85999998772968;487;1 A
5.40623398635057;-0.39971923828125;-0.00158081054687501;4.86999998770443;488;1 A
5.41623398632532;-0.399749755859375;-0.00158081054687501;4.87999998767918;489;1 A
5.42623398630008;-0.399749755859375;-0.00158081054687501;4.88999998765394;490;1 A
5.43623398627483;-0.399749755859375;-0.00157775878906249;4.89999998762869;491;1 A
5.44623398624958;-0.3997802734375;-0.0015869140625;4.90999998760344;492;1 A
5.45623398622433;-0.399749755859375;-0.00157775878906249;4.91999998757819;493;1 A
5.46623398619909;-0.39971923828125;-0.0015869140625;4.92999998755295;494;1 A
5.47623398617384;-0.399749755859375;-0.0015838623046875;4.9399999875277;495;1 A
5.48623398614859;-0.399688720703125;-0.0015838623046875;4.94999998750245;496;1 A
5.49623398612334;-0.399749755859375;-0.0015838623046875;4.9599999874772;497;1 A
5.5062339860981;-0.39971923828125;-0.00158081054687501;4.96999998745196;498;1 A
5.51623398607285;-0.399749755859375;-0.0015838623046875;4.97999998742671;499;1 A
5.5262339860476;-0.399749755859375;-0.0015838623046875;4.98999998740146;500;1 A
5.53623398602235;-0.399749755859375;-0.0015838623046875;4.99999998737621;501;1 A
5.54623398599711;-0.39971923828125;-0.0015869140625;5.00999998735097;502;1 A
5.55623398597186;-0.399688720703125;-0.0015838623046875;5.01999998732572;503;1 A
5.56623398594661;-0.399688720703125;-0.00159606933593751;5.02999998730047;504;1 A
5.57623398592136;-0.3997802734375;-0.00159912109375;5.03999998727522;505;1 A
5.58623398589611;-0.399749755859375;-0.0015899658203125;5.04999998724998;506;1 A
5.59623398587087;-0.399688720703125;-0.0015899658203125;5.05999998722473;507;1 A
5.60623398584562;-0.399688720703125;-0.0015869140625;5.06999998719948;508;1 A
5.61623398582037;-0.399749755859375;-0.00159606933593751;5.07999998717423;509;1 A
5.62623398579512;-0.39971923828125;-0.00159606933593751;5.08999998714899;510;1 A
5.63623398576988;-0.39971923828125;-0.0015899658203125;5.09999998712374;511;1 A
5.64623398574463;-0.399749755859375;-0.00159606933593751;5.10999998709849;512;1 A
5.65623398571938;-0.399749755859375;-0.0015899658203125;5.11999998707324;513;1 A
5.66623398569413;-0.3997802734375;-0.0016021728515625;5.129999987048;514;1 A
5.67623398566889;-0.399749755859375;-0.0016021728515625;5.13999998702275;515;1 A
5.68623398564364;-0.399749755859375;-0.001605224609375;5.1499999869975;516;1 A
5.69623398561839;-0.39971923828125;-0.0016021728515625;5.15999998697225;517;1 A
5.70623398559314;-0.3997802734375;-0.00159606933593751;5.169999986947;518;1 A
5.7162339855679;-0.39971923828125;-0.0016021728515625;5.17999998692176;519;1 A
5.72623398554265;-0.399810791015625;-0.001605224609375;5.18999998689651;520;1 A
5.7362339855174;-0.399749755859375;-0.00159912109375;5.19999998687126;521;1 A
5.74623398549215;-0.3997802734375;-0.0016021728515625;5.20999998684601;522;1 A
5.75623398546691;-0.3997802734375;-0.0016021728515625;5.21999998682077;523;1 A
5.76623398544166;-0.39971923828125;-0.00160827636718749;5.22999998679552;524;1 A
5.77623398541641;-0.399749755859375;-0.00160827636718749;5.23999998677027;525;1 A
5.78623398539116;-0.399658203125;-0.0016021728515625;5.24999998674502;526;1 A
5.79623398536592;-0.399749755859375;-0.00160827636718749;5.25999998671978;527;1 A
5.80623398534067;-0.39971923828125;-0.001605224609375;5.26999998669453;528;1 A
5.81623398531542;-0.39971923828125;-0.0016143798828125;5.27999998666928;529;1 A
5.82623398529017;-0.39971923828125;-0.00160827636718749;5.28999998664403;530;1 A
5.83623398526493;-0.399749755859375;-0.001605224609375;5.29999998661879;531;1 A
5.84623398523968;-0.3997802734375;-0.00161132812500001;5.30999998659354;532;1 A
5.85623398521443;-0.399749755859375;-0.00160827636718749;5.31999998656829;533;1 A
5.86623398518918;-0.399749755859375;-0.0016143798828125;5.32999998654304;534;1 A
5.87623398516394;-0.39971923828125;-0.00161132812500001;5.3399999865178;535;1 A
5.88623398513869;-0.39971923828125;-0.00160827636718749;5.34999998649255;536;1 A
5.89623398511344;-0.39971923828125;-0.001617431640625;5.3599999864673;537;1 A
5.90623398508819;-0.39971923828125;-0.00160827636718749;5.36999998644205;538;1 A
5.91623398506295;-0.399749755859375;-0.001617431640625;5.37999998641681;539;1 A
5.9262339850377;-0.39971923828125;-0.001617431640625;5.38999998639156;540;1 A
5.93623398501245;-0.3997802734375;-0.0016143798828125;5.39999998636631;541;1 A
5.9462339849872;-0.399749755859375;-0.0016204833984375;5.40999998634106;542;1 A
5.95623398496195;-0.399688720703125;-0.0016143798828125;5.41999998631582;543;1 A
5.96623398493671;-0.399749755859375;-0.00162353515624999;5.42999998629057;544;1 A
5.97623398491146;-0.399749755859375;-0.0016204833984375;5.43999998626532;545;1 A
5.98623398488621;-0.39971923828125;-0.001617431640625;5.44999998624007;546;1 A
5.99623398486096;-0.399749755859375;-0.00162353515624999;5.45999998621483;547;1 A
6.00623398483572;-0.39971923828125;-0.001617431640625;5.46999998618958;548;1 A
6.01623398481047;-0.399749755859375;-0.00162353515624999;5.47999998616433;549;1 A
6.02623398478522;-0.3997802734375;-0.00162353515624999;5.48999998613908;550;1 A
6.03623398475997;-0.399749755859375;-0.00162353515624999;5.49999998611383;551;1 A
6.04623398473473;-0.39971923828125;-0.001629638671875;5.50999998608859;552;1 A
6.05623398470948;-0.39971923828125;-0.00162658691406251;5.51999998606334;553;1 A
6.06623398468423;-0.39971923828125;-0.001629638671875;5.52999998603809;554;1 A
6.07623398465898;-0.399749755859375;-0.001629638671875;5.53999998601284;555;1 A
6.08623398463374;-0.399749755859375;-0.00162353515624999;5.5499999859876;556;1 A
6.09623398460849;-0.3997802734375;-0.001629638671875;5.55999998596235;557;1 A
6.10623398458324;-0.3997802734375;-0.001629638671875;5.5699999859371;558;1 A
6.11623398455799;-0.399749755859375;-0.0016357421875;5.57999998591185;559;1 A
6.12623398453275;-0.399749755859375;-0.0016326904296875;5.58999998588661;560;1 A
6.1362339845075;-0.3997802734375;-0.00162658691406251;5.59999998586136;561;1 A
6.14623398448225;-0.3997802734375;-0.0016326904296875;5.60999998583611;562;1 A
6.156233984457;-0.3997802734375;-0.001629638671875;5.61999998581086;563;1 A
6.16623398443176;-0.39971923828125;-0.00163879394531249;5.62999998578562;564;1 A
6.17623398440651;-0.39971923828125;-0.0016357421875;5.63999998576037;565;1 A
6.18623398438126;-0.3997802734375;-0.0016326904296875;5.64999998573512;566;1 A
6.19623398435601;-0.399749755859375;-0.00163879394531249;5.65999998570987;567;1 A
6.20623398433077;-0.399749755859375;-0.0016326904296875;5.66999998568463;568;1 A
6.21623398430552;-0.399749755859375;-0.00164184570312501;5.67999998565938;569;1 A
6.22623398428027;-0.399749755859375;-0.00164184570312501;5.68999998563413;570;1 A
6.23623398425502;-0.399749755859375;-0.00163879394531249;5.69999998560888;571;1 A
6.24623398422978;-0.3997802734375;-0.0016448974609375;5.70999998558364;572;1 A
6.25623398420453;-0.39971923828125;-0.0016357421875;5.71999998555839;573;1 A
6.26623398417928;-0.399658203125;-0.00164794921875;5.72999998553314;574;1 A
6.27623398415403;-0.39971923828125;-0.0016448974609375;5.73999998550789;575;1 A
6.28623398412878;-0.39971923828125;-0.00164794921875;5.74999998548265;576;1 A
6.29623398410354;-0.399749755859375;-0.00165405273437499;5.7599999854574;577;1 A
6.30623398407829;-0.399749755859375;-0.00164794921875;5.76999998543215;578;1 A
6.31623398405304;-0.399749755859375;-0.00165710449218751;5.7799999854069;579;1 A
6.32623398402779;-0.399688720703125;-0.00165710449218751;5.78999998538166;580;1 A
6.33623398400255;-0.399749755859375;-0.00165710449218751;5.79999998535641;581;1 A
6.3462339839773;-0.39971923828125;-0.00166015625;5.80999998533116;582;1 A
6.35623398395205;-0.39971923828125;-0.00166015625;5.81999998530591;583;1 A
6.3662339839268;-0.399749755859375;-0.001666259765625;5.82999998528066;584;1 A
6.37623398390156;-0.399688720703125;-0.0016632080078125;5.83999998525542;585;1 A
6.38623398387631;-0.39971923828125;-0.00166015625;5.84999998523017;586;1 A
6.39623398385106;-0.399810791015625;-0.00167236328125001;5.85999998520492;587;1 A
6.40623398382581;-0.39971923828125;-0.00167236328125001;5.86999998517967;588;1 A
6.41623398380057;-0.39971923828125;-0.00167236328125001;5.87999998515443;589;1 A
6.42623398377532;-0.399749755859375;-0.0016754150390625;5.88999998512918;590;1 A
6.43623398375007;-0.399749755859375;-0.0016754150390625;5.89999998510393;591;1 A
6.44623398372482;-0.3997802734375;-0.001678466796875;5.90999998507868;592;1 A
6.45623398369958;-0.399749755859375;-0.0016754150390625;5.91999998505344;593;1 A
6.46623398367433;-0.399688720703125;-0.0016815185546875;5.92999998502819;594;1 A
6.47623398364908;-0.399749755859375;-0.0016754150390625;5.93999998500294;595;1 A
6.48623398362383;-0.3997802734375;-0.001678466796875;5.94999998497769;596;1 A
6.49623398359859;-0.39971923828125;-0.00168457031249999;5.95999998495245;597;1 A
6.50623398357334;-0.399749755859375;-0.0016815185546875;5.9699999849272;598;1 A
6.51623398354809;-0.39971923828125;-0.00168762207031251;5.97999998490195;599;1 A
6.52623398352284;-0.3997802734375;-0.0016937255859375;5.9899999848767;600;1 A
6.5362339834976;-0.399749755859375;-0.0016937255859375;5.99999998485146;601;1 A
6.54623398347235;-0.39971923828125;-0.0016937255859375;6.00999998482621;602;1 A
6.5562339834471;-0.3997802734375;-0.0016937255859375;6.01999998480096;603;1 A
6.56623398342185;-0.399749755859375;-0.00170288085937501;6.02999998477571;604;1 A
6.57623398339661;-0.3997802734375;-0.0016937255859375;6.03999998475047;605;1 A
6.58623398337136;-0.39971923828125;-0.00169677734375;6.04999998472522;606;1 A
6.59623398334611;-0.399749755859375;-0.00170288085937501;6.05999998469997;607;1 A
6.60623398332086;-0.3997802734375;-0.00169677734375;6.06999998467472;608;1 A
6.61623398329561;-0.399688720703125;-0.00170288085937501;6.07999998464948;609;1 A
6.62623398327037;-0.39971923828125;-0.0017059326171875;6.08999998462423;610;1 A
6.63623398324512;-0.3997802734375;-0.00169982910156249;6.09999998459898;611;1 A
6.64623398321987;-0.39971923828125;-0.0017059326171875;6.10999998457373;612;1 A
6.65623398319462;-0.399749755859375;-0.0016937255859375;6.11999998454849;613;1 A
6.66623398316938;-0.399749755859375;-0.0017059326171875;6.12999998452324;614;1 A
6.67623398314413;-0.399749755859375;-0.00170288085937501;6.13999998449799;615;1 A
6.68623398311888;-0.3997802734375;-0.00169982910156249;6.14999998447274;616;1 A
6.69623398309363;-0.39971923828125;-0.001708984375;6.1599999844475;617;1 A
6.70623398306839;-0.3997802734375;-0.0017059326171875;6.16999998442225;618;1 A
6.71623398304314;-0.399749755859375;-0.00171508789062499;6.179999984397;619;1 A
6.72623398301789;-0.39971923828125;-0.0017120361328125;6.18999998437175;620;1 A
6.73623398299264;-0.399749755859375;-0.00171508789062499;6.1999999843465;621;1 A
6.7462339829674;-0.39971923828125;-0.00171813964843751;6.20999998432126;622;1 A
6.75623398294215;-0.399688720703125;-0.00171508789062499;6.21999998429601;623;1 A
6.7662339829169;-0.3997802734375;-0.0017242431640625;6.22999998427076;624;1 A
6.77623398289165;-0.399749755859375;-0.00172119140625;6.23999998424551;625;1 A
6.78623398286641;-0.39971923828125;-0.00172119140625;6.24999998422027;626;1 A
6.79623398284116;-0.39971923828125;-0.001727294921875;6.25999998419502;627;1 A
6.80623398281591;-0.399749755859375;-0.00172119140625;6.26999998416977;628;1 A
6.81623398279066;-0.399688720703125;-0.00173034667968749;6.27999998414452;629;1 A
6.82623398276542;-0.399810791015625;-0.001727294921875;6.28999998411928;630;1 A
6.83623398274017;-0.39971923828125;-0.0017242431640625;6.29999998409403;631;1 A
6.84623398271492;-0.399688720703125;-0.001727294921875;6.30999998406878;632;1 A
6.85623398268967;-0.39971923828125;-0.0017242431640625;6.31999998404353;633;1 A
6.86623398266443;-0.399749755859375;-0.00173034667968749;6.32999998401829;634;1 A
6.87623398263918;-0.399688720703125;-0.0017242431640625;6.33999998399304;635;1 A
6.88623398261393;-0.399749755859375;-0.001727294921875;6.34999998396779;636;1 A
6.89623398258868;-0.399749755859375;-0.0017364501953125;6.35999998394254;637;1 A
6.90623398256344;-0.399749755859375;-0.001727294921875;6.3699999839173;638;1 A
6.91623398253819;-0.39971923828125;-0.00173034667968749;6.37999998389205;639;1 A
6.92623398251294;-0.399749755859375;-0.001727294921875;6.3899999838668;640;1 A
6.93623398248769;-0.399749755859375;-0.001727294921875;6.39999998384155;641;1 A
6.94623398246245;-0.3997802734375;-0.00173034667968749;6.40999998381631;642;1 A
6.9562339824372;-0.3997802734375;-0.0017242431640625;6.41999998379106;643;1 A
6.96623398241195;-0.399749755859375;-0.00173034667968749;6.42999998376581;644;1 A
6.9762339823867;-0.399749755859375;-0.00173034667968749;6.43999998374056;645;1 A
6.98623398236145;-0.3997802734375;-0.001727294921875;6.44999998371532;646;1 A
6.99623398233621;-0.39971923828125;-0.001727294921875;6.45999998369007;647;1 A
7.00623398231096;-0.39971923828125;-0.0017242431640625;6.46999998366482;648;1 A
7.01623398228571;-0.399658203125;-0.0017364501953125;6.47999998363957;649;1 A
7.02623398226046;-0.399749755859375;-0.00173034667968749;6.48999998361433;650;1 A
7.03623398223522;-0.399749755859375;-0.001727294921875;6.49999998358908;651;1 A
7.04623398220997;-0.39971923828125;-0.0017364501953125;6.50999998356383;652;1 A
7.05623398218472;-0.399749755859375;-0.001727294921875;6.51999998353858;653;1 A
7.06623398215947;-0.39971923828125;-0.0017364501953125;6.52999998351333;654;1 A
7.07623398213423;-0.39971923828125;-0.00173034667968749;6.53999998348809;655;1 A
7.08623398210898;-0.39971923828125;-0.00173034667968749;6.54999998346284;656;1 A
7.09623398208373;-0.399688720703125;-0.0017364501953125;6.55999998343759;657;1 A
7.10623398205848;-0.399749755859375;-0.001727294921875;6.56999998341234;658;1 A
7.11623398203324;-0.39971923828125;-0.00173339843750001;6.5799999833871;659;1 A
7.12623398200799;-0.399658203125;-0.001727294921875;6.58999998336185;660;1 A
7.13623398198274;-0.39971923828125;-0.001727294921875;6.5999999833366;661;1 A
7.14623398195749;-0.399749755859375;-0.001727294921875;6.60999998331135;662;1 A
7.15623398193225;-0.39971923828125;-0.0017242431640625;6.61999998328611;663;1 A
7.166233981907;-0.39971923828125;-0.00173034667968749;6.62999998326086;664;1 A
7.17623398188175;-0.39971923828125;-0.00172119140625;6.63999998323561;665;1 A
7.1862339818565;-0.39971923828125;-0.00172119140625;6.64999998321036;666;1 A
7.19623398183126;-0.3997802734375;-0.0017242431640625;6.65999998318512;667;1 A
7.20623398180601;-0.399810791015625;-0.00172119140625;6.66999998315987;668;1 A
7.21623398178076;-0.399749755859375;-0.001727294921875;6.67999998313462;669;1 A
7.22623398175551;-0.3997802734375;-0.0017242431640625;6.68999998310937;670;1 A
7.23623398173027;-0.399688720703125;-0.00171813964843751;6.69999998308413;671;1 A
7.24623398170502;-0.399749755859375;-0.001727294921875;6.70999998305888;672;1 A
7.25623398167977;-0.399749755859375;-0.00171813964843751;6.71999998303363;673;1 A
7.26623398165452;-0.39971923828125;-0.001727294921875;6.72999998300838;674;1 A
7.27623398162928;-0.39971923828125;-0.00172119140625;6.73999998298314;675;1 A
7.28623398160403;-0.39971923828125;-0.00171813964843751;6.74999998295789;676;1 A
7.29623398157878;-0.39971923828125;-0.0017242431640625;6.75999998293264;677;1 A
7.30623398155353;-0.399749755859375;-0.00172119140625;6.76999998290739;678;1 A
7.31623398152828;-0.39971923828125;-0.001727294921875;6.77999998288215;679;1 A
7.32623398150304;-0.399749755859375;-0.00172119140625;6.7899999828569;680;1 A
7.33623398147779;-0.39971923828125;-0.00171813964843751;6.79999998283165;681;1 A
7.34623398145254;-0.39971923828125;-0.00172119140625;6.8099999828064;682;1 A
7.35623398142729;-0.39971923828125;-0.00172119140625;6.81999998278116;683;1 A
7.36623398140205;-0.399749755859375;-0.001727294921875;6.82999998275591;684;1 A
7.3762339813768;-0.399749755859375;-0.00172119140625;6.83999998273066;685;1 A
7.38623398135155;-0.399749755859375;-0.00171508789062499;6.84999998270541;686;1 A
7.3962339813263;-0.39971923828125;-0.00172119140625;6.85999998268016;687;1 A
7.40623398130106;-0.399749755859375;-0.0017120361328125;6.86999998265492;688;1 A
7.41623398127581;-0.399688720703125;-0.00172119140625;6.87999998262967;689;1 A
7.42623398125056;-0.3997802734375;-0.00171508789062499;6.88999998260442;690;1 A
7.43623398122531;-0.399749755859375;-0.00171508789062499;6.89999998257917;691;1 A
7.44623398120007;-0.399749755859375;-0.00171813964843751;6.90999998255393;692;1 A
7.45623398117482;-0.399749755859375;-0.0017120361328125;6.91999998252868;693;1 A
7.46623398114957;-0.399749755859375;-0.00172119140625;6.92999998250343;694;1 A
7.47623398112432;-0.399749755859375;-0.00171508789062499;6.93999998247818;695;1 A
7.48623398109908;-0.3997802734375;-0.00171813964843751;6.94999998245294;696;1 A
7.49623398107383;-0.399749755859375;-0.00172119140625;6.95999998242769;697;1 A
7.50623398104858;-0.399749755859375;-0.00171508789062499;6.96999998240244;698;1 A
7.51623398102333;-0.3997802734375;-0.0017242431640625;6.97999998237719;699;1 A
7.52623398099809;-0.399749755859375;-0.00171813964843751;6.98999998235195;700;1 A
7.53623398097284;-0.39971923828125;-0.00171813964843751;6.9999999823267;701;1 A
7.54623398094759;-0.3997802734375;-0.00172119140625;7.00999998230145;702;1 A
7.55623398092234;-0.3997802734375;-0.0017120361328125;7.0199999822762;703;1 A
7.5662339808971;-0.399749755859375;-0.00172119140625;7.02999998225096;704;1 A
7.57623398087185;-0.39971923828125;-0.00171813964843751;7.03999998222571;705;1 A
7.5862339808466;-0.399658203125;-0.00171813964843751;7.04999998220046;706;1 A
7.59623398082135;-0.399810791015625;-0.00171813964843751;7.05999998217521;707;1 A
7.60623398079611;-0.399749755859375;-0.00171508789062499;7.06999998214997;708;1 A
7.61623398077086;-0.3997802734375;-0.00171813964843751;7.07999998212472;709;1 A
7.62623398074561;-0.399749755859375;-0.00171508789062499;7.08999998209947;710;1 A
7.63623398072036;-0.39971923828125;-0.0017120361328125;7.09999998207422;711;1 A
7.64623398069511;-0.399749755859375;-0.00171508789062499;7.10999998204898;712;1 A
7.65623398066987;-0.399749755859375;-0.001708984375;7.11999998202373;713;1 A
7.66623398064462;-0.39971923828125;-0.00171813964843751;7.12999998199848;714;1 A
7.67623398061937;-0.399749755859375;-0.001708984375;7.13999998197323;715;1 A
7.68623398059412;-0.39971923828125;-0.0017059326171875;7.14999998194799;716;1 A
7.69623398056888;-0.399810791015625;-0.001708984375;7.15999998192274;717;1 A
7.70623398054363;-0.399749755859375;-0.0017059326171875;7.16999998189749;718;1 A
7.71623398051838;-0.399749755859375;-0.00171508789062499;7.17999998187224;719;1 A
7.72623398049313;-0.3997802734375;-0.0017059326171875;7.189999981847;720;1 A
7.73623398046789;-0.399749755859375;-0.0017059326171875;7.19999998182175;721;1 A
7.74623398044264;-0.399688720703125;-0.001708984375;7.2099999817965;722;1 A
7.75623398041739;-0.399688720703125;-0.0017059326171875;7.21999998177125;723;1 A
7.76623398039214;-0.3997802734375;-0.001708984375;7.229999981746;724;1 A
7.7762339803669;-0.399658203125;-0.0017059326171875;7.23999998172076;725;1 A
7.78623398034165;-0.399749755859375;-0.00169982910156249;7.24999998169551;726;1 A
7.7962339803164;-0.3997802734375;-0.0017059326171875;7.25999998167026;727;1 A
7.80623398029115;-0.3997802734375;-0.00170288085937501;7.26999998164501;728;1 A
7.81623398026591;-0.399749755859375;-0.0017120361328125;7.27999998161977;729;1 A
7.82623398024066;-0.399749755859375;-0.00170288085937501;7.28999998159452;730;1 A
7.83623398021541;-0.399688720703125;-0.0017059326171875;7.29999998156927;731;1 A
7.84623398019016;-0.3997802734375;-0.001708984375;7.30999998154402;732;1 A
7.85623398016492;-0.399749755859375;-0.00170288085937501;7.31999998151878;733;1 A
7.86623398013967;-0.3997802734375;-0.0017120361328125;7.32999998149353;734;1 A
7.87623398011442;-0.39971923828125;-0.00169982910156249;7.33999998146828;735;1 A
7.88623398008917;-0.399749755859375;-0.00169982910156249;7.34999998144303;736;1 A
7.89623398006393;-0.39971923828125;-0.00170288085937501;7.35999998141779;737;1 A
7.90623398003868;-0.399688720703125;-0.00169677734375;7.36999998139254;738;1 A
7.91623398001343;-0.399749755859375;-0.00170288085937501;7.37999998136729;739;1 A
7.92623397998818;-0.399810791015625;-0.00169677734375;7.38999998134204;740;1 A
7.93623397996294;-0.39971923828125;-0.0016937255859375;7.3999999813168;741;1 A
7.94623397993769;-0.399688720703125;-0.00169677734375;7.40999998129155;742;1 A
7.95623397991244;-0.39971923828125;-0.0016937255859375;7.4199999812663;743;1 A
7.96623397988719;-0.399749755859375;-0.00170288085937501;7.42999998124105;744;1 A
7.97623397986195;-0.399749755859375;-0.00168762207031251;7.43999998121581;745;1 A
7.9862339798367;-0.399749755859375;-0.00169677734375;7.44999998119056;746;1 A
7.99623397981145;-0.39971923828125;-0.00170288085937501;7.45999998116531;747;1 A
8.0062339797862;-0.3997802734375;-0.00169982910156249;7.46999998114006;748;1 A
8.01623397976095;-0.3997802734375;-0.0017059326171875;7.47999998111482;749;1 A
8.02623397973571;-0.3997802734375;-0.00169982910156249;7.48999998108957;750;1 A
8.03623397971046;-0.399749755859375;-0.00169982910156249;7.49999998106432;751;1 A
8.04623397968521;-0.399749755859375;-0.00170288085937501;7.50999998103907;752;1 A
8.05623397965996;-0.39971923828125;-0.0016937255859375;7.51999998101383;753;1 A
8.06623397963472;-0.399688720703125;-0.00170288085937501;7.52999998098858;754;1 A
8.07623397960947;-0.39971923828125;-0.00169982910156249;7.53999998096333;755;1 A
8.08623397958422;-0.399810791015625;-0.0016937255859375;7.54999998093808;756;1 A
8.09623397955897;-0.399749755859375;-0.00169982910156249;7.55999998091283;757;1 A
8.10623397953373;-0.39971923828125;-0.0016937255859375;7.56999998088759;758;1 A
8.11623397950848;-0.399749755859375;-0.00169982910156249;7.57999998086234;759;1 A
8.12623397948323;-0.399749755859375;-0.00168762207031251;7.58999998083709;760;1 A
8.13623397945798;-0.3997802734375;-0.00168762207031251;7.59999998081184;761;1 A
8.14623397943274;-0.399749755859375;-0.0016937255859375;7.6099999807866;762;1 A
8.15623397940749;-0.3997802734375;-0.001690673828125;7.61999998076135;763;1 A
8.16623397938224;-0.399749755859375;-0.00169982910156249;7.6299999807361;764;1 A
8.17623397935699;-0.399749755859375;-0.001690673828125;7.63999998071085;765;1 A
8.18623397933175;-0.399810791015625;-0.0016937255859375;7.64999998068561;766;1 A
8.1962339793065;-0.39971923828125;-0.0016937255859375;7.65999998066036;767;1 A
8.20623397928125;-0.399688720703125;-0.001690673828125;7.66999998063511;768;1 A
8.216233979256;-0.3997802734375;-0.00169677734375;7.67999998060986;769;1 A
8.22623397923076;-0.39971923828125;-0.001690673828125;7.68999998058462;770;1 A
8.23623397920551;-0.39971923828125;-0.001690673828125;7.69999998055937;771;1 A
8.24623397918026;-0.39971923828125;-0.0017059326171875;7.70999998053412;772;1 A
8.25623397915501;-0.399810791015625;-0.00169677734375;7.71999998050887;773;1 A
8.26623397912977;-0.39971923828125;-0.00170288085937501;7.72999998048363;774;1 A
8.27623397910452;-0.39971923828125;-0.00169677734375;7.73999998045838;775;1 A
8.28623397907927;-0.399749755859375;-0.001690673828125;7.74999998043313;776;1 A
8.29623397905402;-0.39971923828125;-0.00169982910156249;7.75999998040788;777;1 A
8.30623397902878;-0.3997802734375;-0.0016937255859375;7.76999998038264;778;1 A
8.31623397900353;-0.39971923828125;-0.00169982910156249;7.77999998035739;779;1 A
8.32623397897828;-0.39971923828125;-0.00169677734375;7.78999998033214;780;1 A
8.33623397895303;-0.3997802734375;-0.0016937255859375;7.79999998030689;781;1 A
8.34623397892778;-0.3997802734375;-0.00169677734375;7.80999998028165;782;1 A
8.35623397890254;-0.3997802734375;-0.00168762207031251;7.8199999802564;783;1 A
8.36623397887729;-0.3997802734375;-0.0016937255859375;7.82999998023115;784;1 A
8.37623397885204;-0.399749755859375;-0.00168762207031251;7.8399999802059;785;1 A
8.38623397882679;-0.39971923828125;-0.00168762207031251;7.84999998018066;786;1 A
8.39623397880155;-0.3997802734375;-0.0016937255859375;7.85999998015541;787;1 A
8.4062339787763;-0.39971923828125;-0.001690673828125;7.86999998013016;788;1 A
8.41623397875105;-0.399749755859375;-0.0016937255859375;7.87999998010491;789;1 A
8.4262339787258;-0.39971923828125;-0.00168762207031251;7.88999998007966;790;1 A
8.43623397870056;-0.399749755859375;-0.00168457031249999;7.89999998005442;791;1 A
8.44623397867531;-0.3997802734375;-0.00168762207031251;7.90999998002917;792;1 A
8.45623397865006;-0.39971923828125;-0.00168457031249999;7.91999998000392;793;1 A
8.46623397862481;-0.399749755859375;-0.001690673828125;7.92999997997867;794;1 A
8.47623397859957;-0.399749755859375;-0.00168457031249999;7.93999997995343;795;1 A
8.48623397857432;-0.3997802734375;-0.00168457031249999;7.94999997992818;796;1 A
8.49623397854907;-0.3997802734375;-0.0016937255859375;7.95999997990293;797;1 A
8.50623397852382;-0.399749755859375;-0.00168762207031251;7.96999997987768;798;1 A
8.51623397849858;-0.399810791015625;-0.00168762207031251;7.97999997985244;799;1 A
8.52623397847333;-0.399749755859375;-0.00168762207031251;7.98999997982719;800;1 A
8.53623397844808;-0.39971923828125;-0.00168457031249999;7.99999997980194;801;1 A
8.54623397842283;-0.399749755859375;-0.00168762207031251;8.00999997977669;802;1 A
8.55623397839759;-0.39971923828125;-0.00168457031249999;8.01999997975145;803;1 A
8.56623397837234;-0.3997802734375;-0.001690673828125;8.0299999797262;804;1 A
8.57623397834709;-0.39971923828125;-0.00168457031249999;8.03999997970095;805;1 A
8.58623397832184;-0.399749755859375;-0.0016815185546875;8.0499999796757;806;1 A
8.5962339782966;-0.399749755859375;-0.00168457031249999;8.05999997965046;807;1 A
8.60623397827135;-0.39971923828125;-0.0016754150390625;8.06999997962521;808;1 A
8.6162339782461;-0.399810791015625;-0.0016815185546875;8.07999997959996;809;1 A
8.62623397822085;-0.399749755859375;-0.00167236328125001;8.08999997957471;810;1 A
8.63623397819561;-0.399749755859375;-0.0016754150390625;8.09999997954947;811;1 A
8.64623397817036;-0.39971923828125;-0.001678466796875;8.10999997952422;812;1 A
8.65623397814511;-0.3997802734375;-0.001678466796875;8.11999997949897;813;1 A
8.66623397811986;-0.399810791015625;-0.0016815185546875;8.12999997947372;814;1 A
8.67623397809461;-0.399749755859375;-0.00167236328125001;8.13999997944848;815;1 A
8.68623397806937;-0.39971923828125;-0.00167236328125001;8.14999997942323;816;1 A
8.69623397804412;-0.39971923828125;-0.0016815185546875;8.15999997939798;817;1 A
8.70623397801887;-0.3997802734375;-0.0016754150390625;8.16999997937273;818;1 A
8.71623397799362;-0.399749755859375;-0.00168457031249999;8.17999997934749;819;1 A
8.72623397796838;-0.3997802734375;-0.0016754150390625;8.18999997932224;820;1 A
8.73623397794313;-0.3997802734375;-0.00167236328125001;8.19999997929699;821;1 A
8.74623397791788;-0.39971923828125;-0.001678466796875;8.20999997927174;822;1 A
8.75623397789263;-0.39971923828125;-0.00167236328125001;8.2199999792465;823;1 A
8.76623397786739;-0.3997802734375;-0.0016815185546875;8.22999997922125;824;1 A
8.77623397784214;-0.399688720703125;-0.00167236328125001;8.239999979196;825;1 A
8.78623397781689;-0.39971923828125;-0.00167236328125001;8.24999997917075;826;1 A
8.79623397779164;-0.39971923828125;-0.001678466796875;8.2599999791455;827;1 A
8.8062339777664;-0.399749755859375;-0.00166931152343749;8.26999997912026;828;1 A
8.81623397774115;-0.399749755859375;-0.0016754150390625;8.27999997909501;829;1 A
8.8262339777159;-0.399749755859375;-0.00166931152343749;8.28999997906976;830;1 A
8.83623397769065;-0.39971923828125;-0.001666259765625;8.29999997904451;831;1 A
8.84623397766541;-0.39971923828125;-0.00167236328125001;8.30999997901927;832;1 A
8.85623397764016;-0.399749755859375;-0.0016632080078125;8.31999997899402;833;1 A
8.86623397761491;-0.399749755859375;-0.00167236328125001;8.32999997896877;834;1 A
8.87623397758966;-0.3997802734375;-0.00165710449218751;8.33999997894352;835;1 A
8.88623397756442;-0.3997802734375;-0.0016632080078125;8.34999997891828;836;1 A
8.89623397753917;-0.39971923828125;-0.001666259765625;8.35999997889303;837;1 A
8.90623397751392;-0.399749755859375;-0.00166015625;8.36999997886778;838;1 A
8.91623397748867;-0.399749755859375;-0.0016632080078125;8.37999997884253;839;1 A
8.92623397746343;-0.399749755859375;-0.00165710449218751;8.38999997881729;840;1 A
8.93623397743818;-0.3997802734375;-0.00166015625;8.39999997879204;841;1 A
8.94623397741293;-0.399688720703125;-0.001666259765625;8.40999997876679;842;1 A
8.95623397738768;-0.39971923828125;-0.00165710449218751;8.41999997874154;843;1 A
8.96623397736244;-0.39971923828125;-0.00167236328125001;8.4299999787163;844;1 A
8.97623397733719;-0.399688720703125;-0.0016632080078125;8.43999997869105;845;1 A
8.98623397731194;-0.399749755859375;-0.0016632080078125;8.4499999786658;846;1 A
8.99623397728669;-0.399749755859375;-0.001666259765625;8.45999997864055;847;1 A
9.00623397726145;-0.399749755859375;-0.00166015625;8.46999997861531;848;1 A
9.0162339772362;-0.3997802734375;-0.00166931152343749;8.47999997859006;849;1 A
9.02623397721095;-0.399688720703125;-0.00165710449218751;8.48999997856481;850;1 A
9.0362339771857;-0.3997802734375;-0.00165710449218751;8.49999997853956;851;1 A
9.04623397716045;-0.399749755859375;-0.0016632080078125;8.50999997851432;852;1 A
9.05623397713521;-0.39971923828125;-0.00165710449218751;8.51999997848907;853;1 A
9.06623397710996;-0.399749755859375;-0.00165710449218751;8.52999997846382;854;1 A
9.07623397708471;-0.399688720703125;-0.00164794921875;8.53999997843857;855;1 A
9.08623397705946;-0.39971923828125;-0.00164794921875;8.54999997841333;856;1 A
9.09623397703422;-0.399810791015625;-0.0016510009765625;8.55999997838808;857;1 A
9.10623397700897;-0.3997802734375;-0.0016448974609375;8.56999997836283;858;1 A
9.11623397698372;-0.39971923828125;-0.00165405273437499;8.57999997833758;859;1 A
9.12623397695847;-0.3997802734375;-0.00164794921875;8.58999997831233;860;1 A
9.13623397693323;-0.399749755859375;-0.0016448974609375;8.59999997828709;861;1 A
9.14623397690798;-0.39984130859375;-0.00164794921875;8.60999997826184;862;1 A
9.15623397688273;-0.39971923828125;-0.0016448974609375;8.61999997823659;863;1 A
9.16623397685748;-0.399749755859375;-0.0016510009765625;8.62999997821134;864;1 A
9.17623397683224;-0.3997802734375;-0.00163879394531249;8.6399999781861;865;1 A
9.18623397680699;-0.399749755859375;-0.00164184570312501;8.64999997816085;866;1 A
9.19623397678174;-0.3997802734375;-0.0016448974609375;8.6599999781356;867;1 A
9.20623397675649;-0.399749755859375;-0.00163879394531249;8.66999997811035;868;1 A
9.21623397673125;-0.399749755859375;-0.0016448974609375;8.67999997808511;869;1 A
9.226233976706;-0.399688720703125;-0.0016357421875;8.68999997805986;870;1 A
9.23623397668075;-0.399749755859375;-0.00163879394531249;8.69999997803461;871;1 A
9.2462339766555;-0.399749755859375;-0.00164184570312501;8.70999997800936;872;1 A
9.25623397663026;-0.399688720703125;-0.00163879394531249;8.71999997798412;873;1 A
9.26623397660501;-0.3997802734375;-0.00164184570312501;8.72999997795887;874;1 A
9.27623397657976;-0.399749755859375;-0.0016326904296875;8.73999997793362;875;1 A
9.28623397655451;-0.399658203125;-0.0016326904296875;8.74999997790837;876;1 A
9.29623397652927;-0.399749755859375;-0.0016357421875;8.75999997788313;877;1 A
9.30623397650402;-0.3997802734375;-0.0016326904296875;8.76999997785788;878;1 A
9.31623397647877;-0.3997802734375;-0.0016357421875;8.77999997783263;879;1 A
9.32623397645352;-0.3997802734375;-0.00162658691406251;8.78999997780738;880;1 A
9.33623397642828;-0.399749755859375;-0.0016326904296875;8.79999997778214;881;1 A
9.34623397640303;-0.3997802734375;-0.0016326904296875;8.80999997775689;882;1 A
9.35623397637778;-0.39971923828125;-0.00162658691406251;8.81999997773164;883;1 A
9.36623397635253;-0.399749755859375;-0.001629638671875;8.82999997770639;884;1 A
9.37623397632728;-0.39971923828125;-0.0016204833984375;8.83999997768115;885;1 A
9.38623397630204;-0.39971923828125;-0.00162353515624999;8.8499999776559;886;1 A
9.39623397627679;-0.399810791015625;-0.001629638671875;8.85999997763065;887;1 A
9.40623397625154;-0.3997802734375;-0.00162658691406251;8.8699999776054;888;1 A
9.41623397622629;-0.399749755859375;-0.001629638671875;8.87999997758016;889;1 A
9.42623397620105;-0.399749755859375;-0.0016204833984375;8.88999997755491;890;1 A
9.4362339761758;-0.3997802734375;-0.00162353515624999;8.89999997752966;891;1 A
9.44623397615055;-0.399749755859375;-0.0016326904296875;8.90999997750441;892;1 A
9.4562339761253;-0.399749755859375;-0.00162353515624999;8.91999997747916;893;1 A
9.46623397610006;-0.399688720703125;-0.001629638671875;8.92999997745392;894;1 A
9.47623397607481;-0.3997802734375;-0.0016204833984375;8.93999997742867;895;1 A
9.48623397604956;-0.399749755859375;-0.00162353515624999;8.94999997740342;896;1 A
9.49623397602431;-0.3997802734375;-0.00162658691406251;8.95999997737817;897;1 A
9.50623397599907;-0.399749755859375;-0.00162353515624999;8.96999997735293;898;1 A
9.51623397597382;-0.399749755859375;-0.00162353515624999;8.97999997732768;899;1 A
9.52623397594857;-0.399749755859375;-0.001617431640625;8.98999997730243;900;1 A
9.53623397592332;-0.399749755859375;-0.0016204833984375;8.99999997727718;901;1 A
9.54623397589808;-0.39971923828125;-0.0016204833984375;9.00999997725194;902;1 A
9.55623397587283;-0.399749755859375;-0.0016143798828125;9.01999997722669;903;1 A
9.56623397584758;-0.399749755859375;-0.001617431640625;9.02999997720144;904;1 A
9.57623397582233;-0.3997802734375;-0.00161132812500001;9.03999997717619;905;1 A
9.58623397579709;-0.39971923828125;-0.00160827636718749;9.04999997715095;906;1 A
9.59623397577184;-0.399749755859375;-0.0016143798828125;9.0599999771257;907;1 A
9.60623397574659;-0.3997802734375;-0.00160827636718749;9.06999997710045;908;1 A
9.61623397572134;-0.3997802734375;-0.00161132812500001;9.0799999770752;909;1 A
9.6262339756961;-0.399749755859375;-0.001605224609375;9.08999997704996;910;1 A
9.63623397567085;-0.399658203125;-0.00160827636718749;9.09999997702471;911;1 A
9.6462339756456;-0.3997802734375;-0.00161132812500001;9.10999997699946;912;1 A
9.65623397562035;-0.3997802734375;-0.00160827636718749;9.11999997697421;913;1 A
9.66623397559511;-0.39971923828125;-0.0016143798828125;9.12999997694897;914;1 A
9.67623397556986;-0.3997802734375;-0.001605224609375;9.13999997692372;915;1 A
9.68623397554461;-0.399688720703125;-0.00160827636718749;9.14999997689847;916;1 A
9.69623397551936;-0.3997802734375;-0.00160827636718749;9.15999997687322;917;1 A
9.70623397549411;-0.399749755859375;-0.0016021728515625;9.16999997684798;918;1 A
9.71623397546887;-0.399688720703125;-0.00160827636718749;9.17999997682273;919;1 A
9.72623397544362;-0.3997802734375;-0.0016021728515625;9.18999997679748;920;1 A
9.73623397541837;-0.399810791015625;-0.0016021728515625;9.19999997677223;921;1 A
9.74623397539312;-0.399749755859375;-0.00160827636718749;9.20999997674699;922;1 A
9.75623397536788;-0.3997802734375;-0.001605224609375;9.21999997672174;923;1 A
9.76623397534263;-0.399688720703125;-0.0016143798828125;9.22999997669649;924;1 A
9.77623397531738;-0.3997802734375;-0.0016021728515625;9.23999997667124;925;1 A
9.78623397529213;-0.39971923828125;-0.00159912109375;9.249999976646;926;1 A
9.79623397526689;-0.399749755859375;-0.001605224609375;9.25999997662075;927;1 A
9.80623397524164;-0.399688720703125;-0.00159606933593751;9.2699999765955;928;1 A
9.81623397521639;-0.399749755859375;-0.0016021728515625;9.27999997657025;929;1 A
9.82623397519114;-0.399749755859375;-0.00159301757812499;9.289999976545;930;1 A
9.8362339751659;-0.3997802734375;-0.00159301757812499;9.29999997651976;931;1 A
9.84623397514065;-0.39971923828125;-0.00159606933593751;9.30999997649451;932;1 A
9.8562339751154;-0.399749755859375;-0.0015869140625;9.31999997646926;933;1 A
9.86623397509015;-0.399749755859375;-0.0015899658203125;9.32999997644401;934;1 A
9.87623397506491;-0.39971923828125;-0.0015869140625;9.33999997641877;935;1 A
9.88623397503966;-0.399688720703125;-0.0015899658203125;9.34999997639352;936;1 A
9.89623397501441;-0.399658203125;-0.00159912109375;9.35999997636827;937;1 A
9.90623397498916;-0.399749755859375;-0.0015899658203125;9.36999997634302;938;1 A
9.91623397496392;-0.3997802734375;-0.00159606933593751;9.37999997631778;939;1 A
9.92623397493867;-0.399749755859375;-0.0015869140625;9.38999997629253;940;1 A
9.93623397491342;-0.399749755859375;-0.0015869140625;9.39999997626728;941;1 A
9.94623397488817;-0.3997802734375;-0.0015899658203125;9.40999997624203;942;1 A
9.95623397486293;-0.39971923828125;-0.0015869140625;9.41999997621679;943;1 A
9.96623397483768;-0.399688720703125;-0.0015899658203125;9.42999997619154;944;1 A
9.97623397481243;-0.3997802734375;-0.0015869140625;9.43999997616629;945;1 A
9.98623397478718;-0.399749755859375;-0.0015899658203125;9.44999997614104;946;1 A
9.99623397476194;-0.399749755859375;-0.0015899658203125;9.4599999761158;947;1 A
10.0062339747367;-0.39971923828125;-0.0015869140625;9.46999997609055;948;1 A
10.0162339747114;-0.39971923828125;-0.00159301757812499;9.4799999760653;949;1 A
10.0262339746862;-0.399749755859375;-0.0015838623046875;9.48999997604005;950;1 A
10.0362339746609;-0.3997802734375;-0.00158081054687501;9.49999997601481;951;1 A
10.0462339746357;-0.399749755859375;-0.0015869140625;9.50999997598956;952;1 A
10.0562339746104;-0.3997802734375;-0.00157775878906249;9.51999997596431;953;1 A
10.0662339745852;-0.399688720703125;-0.00158081054687501;9.52999997593906;954;1 A
10.07623397456;-0.399810791015625;-0.0015716552734375;9.53999997591382;955;1 A
10.0862339745347;-0.399749755859375;-0.00157470703125;9.54999997588857;956;1 A
10.0962339745095;-0.399688720703125;-0.00158081054687501;9.55999997586332;957;1 A
10.1062339744842;-0.3997802734375;-0.00157470703125;9.56999997583807;958;1 A
10.116233974459;-0.39971923828125;-0.00157775878906249;9.57999997581283;959;1 A
10.1262339744337;-0.39971923828125;-0.001568603515625;9.58999997578758;960;1 A
10.1362339744085;-0.3997802734375;-0.0015716552734375;9.59999997576233;961;1 A
10.1462339743832;-0.3997802734375;-0.001568603515625;9.60999997573708;962;1 A
10.156233974358;-0.399749755859375;-0.00156555175781251;9.61999997571183;963;1 A
10.1662339743327;-0.399749755859375;-0.001568603515625;9.62999997568659;964;1 A
10.1762339743075;-0.3997802734375;-0.00156249999999999;9.63999997566134;965;1 A
10.1862339742822;-0.3997802734375;-0.00156555175781251;9.64999997563609;966;1 A
10.196233974257;-0.399749755859375;-0.0015716552734375;9.65999997561084;967;1 A
10.2062339742317;-0.399810791015625;-0.00156555175781251;9.6699999755856;968;1 A
10.2162339742065;-0.3997802734375;-0.00157470703125;9.67999997556035;969;1 A
10.2262339741812;-0.39971923828125;-0.00156555175781251;9.6899999755351;970;1 A
10.236233974156;-0.399749755859375;-0.001568603515625;9.69999997550985;971;1 A
10.2462339741307;-0.399810791015625;-0.0015716552734375;9.70999997548461;972;1 A
10.2562339741055;-0.399749755859375;-0.001568603515625;9.71999997545936;973;1 A
10.2662339740803;-0.399688720703125;-0.0015716552734375;9.72999997543411;974;1 A
10.276233974055;-0.39971923828125;-0.00156249999999999;9.73999997540886;975;1 A
10.2862339740298;-0.399688720703125;-0.00156555175781251;9.74999997538362;976;1 A
10.2962339740045;-0.39971923828125;-0.0015716552734375;9.75999997535837;977;1 A
10.3062339739793;-0.399749755859375;-0.00156555175781251;9.76999997533312;978;1 A
10.316233973954;-0.39971923828125;-0.00156555175781251;9.77999997530787;979;1 A
10.3262339739288;-0.39971923828125;-0.0015594482421875;9.78999997528263;980;1 A
10.3362339739035;-0.399749755859375;-0.0015594482421875;9.79999997525738;981;1 A
10.3462339738783;-0.399658203125;-0.00156555175781251;9.80999997523213;982;1 A
10.356233973853;-0.399749755859375;-0.00156249999999999;9.81999997520688;983;1 A
10.3662339738278;-0.399749755859375;-0.001568603515625;9.82999997518164;984;1 A
10.3762339738025;-0.399749755859375;-0.00156249999999999;9.83999997515639;985;1 A
10.3862339737773;-0.399749755859375;-0.00156249999999999;9.84999997513114;986;1 A
10.396233973752;-0.399749755859375;-0.00156555175781251;9.85999997510589;987;1 A
10.4062339737268;-0.3997802734375;-0.001556396484375;9.86999997508065;988;1 A
10.4162339737015;-0.39971923828125;-0.00156249999999999;9.8799999750554;989;1 A
10.4262339736763;-0.3997802734375;-0.0015533447265625;9.88999997503015;990;1 A
10.436233973651;-0.3997802734375;-0.001556396484375;9.8999999750049;991;1 A
10.4462339736258;-0.399749755859375;-0.00156555175781251;9.90999997497966;992;1 A
10.4562339736005;-0.3997802734375;-0.001556396484375;9.91999997495441;993;1 A
10.4662339735753;-0.39971923828125;-0.0015594482421875;9.92999997492916;994;1 A
10.4762339735501;-0.39971923828125;-0.00155029296875001;9.93999997490391;995;1 A
10.4862339735248;-0.39971923828125;-0.0015533447265625;9.94999997487866;996;1 A
10.4962339734996;-0.39971923828125;-0.001556396484375;9.95999997485342;997;1 A
10.5062339734743;-0.399749755859375;-0.00155029296875001;9.96999997482817;998;1 A
10.5162339734491;-0.39971923828125;-0.0015533447265625;9.97999997480292;999;1 A
10.5262339734238;-0.399749755859375;-0.001544189453125;9.98999997477767;1000;1 A
