Time (s);WE(1).Potential (V);WE(1).Current (A);Corrected time (s);Index;Current range
11.346433971353;-0.499786376953125;-0.00346984863281249;0;1;1 A
11.3564339713278;-0.499786376953125;-0.002880859375;0.00999999997475243;2;1 A
11.3664339713025;-0.49981689453125;-0.00258789062500001;0.0199999999495049;3;1 A
11.3764339712773;-0.499755859375;-0.0024261474609375;0.0299999999242573;4;1 A
11.386433971252;-0.499847412109375;-0.0022918701171875;0.0399999998990097;5;1 A
11.3964339712268;-0.499755859375;-0.0022003173828125;0.0499999998737621;6;1 A
11.4064339712015;-0.499786376953125;-0.00214233398437499;0.0599999998485146;7;1 A
11.4164339711763;-0.499725341796875;-0.0020782470703125;0.069999999823267;8;1 A
11.426433971151;-0.499786376953125;-0.0020721435546875;0.0799999997980194;9;1 A
11.4364339711258;-0.49981689453125;-0.0020294189453125;0.0899999997727718;10;1 A
11.4464339711005;-0.49981689453125;-0.0019866943359375;0.0999999997475243;11;1 A
11.4564339710753;-0.49981689453125;-0.00194396972656249;0.109999999722277;12;1 A
11.46643397105;-0.49981689453125;-0.00191345214843749;0.119999999697029;13;1 A
11.4764339710248;-0.499786376953125;-0.00190124511718751;0.129999999671782;14;1 A
11.4864339709995;-0.49981689453125;-0.0018798828125;0.139999999646534;15;1 A
11.4964339709743;-0.499725341796875;-0.001861572265625;0.149999999621286;16;1 A
11.506433970949;-0.499786376953125;-0.00185241699218749;0.159999999596039;17;1 A
11.5164339709238;-0.49981689453125;-0.0018280029296875;0.169999999570791;18;1 A
11.5264339708986;-0.499786376953125;-0.0018280029296875;0.179999999545544;19;1 A
11.5364339708733;-0.499786376953125;-0.00180969238281251;0.189999999520296;20;1 A
11.5464339708481;-0.499755859375;-0.001800537109375;0.199999999495049;21;1 A
11.5564339708228;-0.49981689453125;-0.0018035888671875;0.209999999469801;22;1 A
11.5664339707976;-0.49981689453125;-0.00177612304687499;0.219999999444553;23;1 A
11.5764339707723;-0.499755859375;-0.00177001953125;0.229999999419306;24;1 A
11.5864339707471;-0.49981689453125;-0.0017547607421875;0.239999999394058;25;1 A
11.5964339707218;-0.499847412109375;-0.00174865722656251;0.249999999368811;26;1 A
11.6064339706966;-0.49981689453125;-0.00174865722656251;0.259999999343563;27;1 A
11.6164339706713;-0.4998779296875;-0.001739501953125;0.269999999318316;28;1 A
11.6264339706461;-0.49981689453125;-0.0017364501953125;0.279999999293068;29;1 A
11.6364339706208;-0.499786376953125;-0.001739501953125;0.28999999926782;30;1 A
11.6464339705956;-0.499786376953125;-0.0017120361328125;0.299999999242573;31;1 A
11.6564339705703;-0.499786376953125;-0.0017242431640625;0.309999999217325;32;1 A
11.6664339705451;-0.499786376953125;-0.00170288085937501;0.319999999192078;33;1 A
11.6764339705198;-0.499786376953125;-0.00171508789062499;0.32999999916683;34;1 A
11.6864339704946;-0.4998779296875;-0.00169982910156249;0.339999999141583;35;1 A
11.6964339704693;-0.499847412109375;-0.00169677734375;0.349999999116335;36;1 A
11.7064339704441;-0.499786376953125;-0.00170288085937501;0.359999999091087;37;1 A
11.7164339704188;-0.49981689453125;-0.0016815185546875;0.36999999906584;38;1 A
11.7264339703936;-0.499786376953125;-0.00168762207031251;0.379999999040592;39;1 A
11.7364339703684;-0.49981689453125;-0.001678466796875;0.389999999015345;40;1 A
11.7464339703431;-0.49981689453125;-0.00166931152343749;0.399999998990097;41;1 A
11.7564339703179;-0.499755859375;-0.00167236328125001;0.40999999896485;42;1 A
11.7664339702926;-0.499786376953125;-0.0016632080078125;0.419999998939602;43;1 A
11.7764339702674;-0.499847412109375;-0.00167236328125001;0.429999998914354;44;1 A
11.7864339702421;-0.49981689453125;-0.001666259765625;0.439999998889107;45;1 A
11.7964339702169;-0.49981689453125;-0.00166015625;0.449999998863859;46;1 A
11.8064339701916;-0.499786376953125;-0.00166015625;0.459999998838612;47;1 A
11.8164339701664;-0.499786376953125;-0.00165710449218751;0.469999998813364;48;1 A
11.8264339701411;-0.499755859375;-0.00165710449218751;0.479999998788116;49;1 A
11.8364339701159;-0.499725341796875;-0.0016510009765625;0.489999998762869;50;1 A
11.8464339700906;-0.49981689453125;-0.00164184570312501;0.499999998737621;51;1 A
11.8564339700654;-0.499786376953125;-0.0016510009765625;0.509999998712374;52;1 A
11.8664339700401;-0.499786376953125;-0.0016357421875;0.519999998687126;53;1 A
11.8764339700149;-0.499786376953125;-0.00164184570312501;0.529999998661879;54;1 A
11.8864339699896;-0.49981689453125;-0.0016357421875;0.539999998636631;55;1 A
11.8964339699644;-0.499786376953125;-0.001629638671875;0.549999998611383;56;1 A
11.9064339699391;-0.499755859375;-0.0016326904296875;0.559999998586136;57;1 A
11.9164339699139;-0.499786376953125;-0.00162353515624999;0.569999998560888;58;1 A
11.9264339698886;-0.499847412109375;-0.001629638671875;0.579999998535641;59;1 A
11.9364339698634;-0.499755859375;-0.00162353515624999;0.589999998510393;60;1 A
11.9464339698382;-0.49981689453125;-0.0016143798828125;0.599999998485146;61;1 A
11.9564339698129;-0.49981689453125;-0.00162353515624999;0.609999998459898;62;1 A
11.9664339697877;-0.49981689453125;-0.00161132812500001;0.61999999843465;63;1 A
11.9764339697624;-0.49981689453125;-0.0016204833984375;0.629999998409403;64;1 A
11.9864339697372;-0.499786376953125;-0.00161132812500001;0.639999998384155;65;1 A
11.9964339697119;-0.499786376953125;-0.00161132812500001;0.649999998358908;66;1 A
12.0064339696867;-0.499847412109375;-0.00161132812500001;0.65999999833366;67;1 A
12.0164339696614;-0.499786376953125;-0.0016021728515625;0.669999998308413;68;1 A
12.0264339696362;-0.49981689453125;-0.00161132812500001;0.679999998283165;69;1 A
12.0364339696109;-0.499786376953125;-0.001605224609375;0.689999998257917;70;1 A
12.0464339695857;-0.49981689453125;-0.0016021728515625;0.69999999823267;71;1 A
12.0564339695604;-0.499755859375;-0.001605224609375;0.709999998207422;72;1 A
12.0664339695352;-0.499847412109375;-0.00159912109375;0.719999998182175;73;1 A
12.0764339695099;-0.499786376953125;-0.00161132812500001;0.729999998156927;74;1 A
12.0864339694847;-0.49981689453125;-0.001605224609375;0.73999999813168;75;1 A
12.0964339694594;-0.49981689453125;-0.00159912109375;0.749999998106432;76;1 A
12.1064339694342;-0.499786376953125;-0.001605224609375;0.759999998081184;77;1 A
12.1164339694089;-0.499755859375;-0.00159301757812499;0.769999998055937;78;1 A
12.1264339693837;-0.499786376953125;-0.0016021728515625;0.779999998030689;79;1 A
12.1364339693584;-0.499786376953125;-0.00159606933593751;0.789999998005442;80;1 A
12.1464339693332;-0.499786376953125;-0.0015899658203125;0.799999997980194;81;1 A
12.156433969308;-0.499725341796875;-0.00159301757812499;0.809999997954947;82;1 A
12.1664339692827;-0.499847412109375;-0.0015869140625;0.819999997929699;83;1 A
12.1764339692575;-0.499755859375;-0.00159301757812499;0.829999997904451;84;1 A
12.1864339692322;-0.49981689453125;-0.00158081054687501;0.839999997879204;85;1 A
12.196433969207;-0.499786376953125;-0.0015838623046875;0.849999997853956;86;1 A
12.2064339691817;-0.499786376953125;-0.0015838623046875;0.859999997828709;87;1 A
12.2164339691565;-0.49981689453125;-0.00157470703125;0.869999997803461;88;1 A
12.2264339691312;-0.499786376953125;-0.0015869140625;0.879999997778214;89;1 A
12.236433969106;-0.49981689453125;-0.00158081054687501;0.889999997752966;90;1 A
12.2464339690807;-0.499847412109375;-0.00157470703125;0.899999997727718;91;1 A
12.2564339690555;-0.499847412109375;-0.00158081054687501;0.909999997702471;92;1 A
12.2664339690302;-0.499847412109375;-0.001568603515625;0.919999997677223;93;1 A
12.276433969005;-0.49981689453125;-0.0015838623046875;0.929999997651976;94;1 A
12.2864339689797;-0.499786376953125;-0.00157775878906249;0.939999997626728;95;1 A
12.2964339689545;-0.49981689453125;-0.00157470703125;0.949999997601481;96;1 A
12.3064339689292;-0.499786376953125;-0.00158081054687501;0.959999997576233;97;1 A
12.316433968904;-0.499755859375;-0.0015716552734375;0.969999997550985;98;1 A
12.3264339688787;-0.4998779296875;-0.00158081054687501;0.979999997525738;99;1 A
12.3364339688535;-0.499847412109375;-0.00157775878906249;0.98999999750049;100;1 A
12.3464339688283;-0.49981689453125;-0.00157470703125;0.999999997475243;101;1 A
12.356433968803;-0.499847412109375;-0.00157470703125;1.00999999745;102;1 A
12.3664339687778;-0.499755859375;-0.0015716552734375;1.01999999742475;103;1 A
12.3764339687525;-0.49981689453125;-0.00157470703125;1.0299999973995;104;1 A
12.3864339687273;-0.499786376953125;-0.00157470703125;1.03999999737425;105;1 A
12.396433968702;-0.499786376953125;-0.0015716552734375;1.049999997349;106;1 A
12.4064339686768;-0.499786376953125;-0.00157470703125;1.05999999732376;107;1 A
12.4164339686515;-0.499755859375;-0.001568603515625;1.06999999729851;108;1 A
12.4264339686263;-0.499847412109375;-0.00158081054687501;1.07999999727326;109;1 A
12.436433968601;-0.49981689453125;-0.00157775878906249;1.08999999724801;110;1 A
12.4464339685758;-0.49981689453125;-0.00157470703125;1.09999999722277;111;1 A
12.4564339685505;-0.499847412109375;-0.00158081054687501;1.10999999719752;112;1 A
12.4664339685253;-0.499755859375;-0.0015716552734375;1.11999999717227;113;1 A
12.4764339685;-0.49981689453125;-0.00158081054687501;1.12999999714702;114;1 A
12.4864339684748;-0.499786376953125;-0.00157775878906249;1.13999999712178;115;1 A
12.4964339684495;-0.499786376953125;-0.00157470703125;1.14999999709653;116;1 A
12.5064339684243;-0.49981689453125;-0.00157470703125;1.15999999707128;117;1 A
12.516433968399;-0.49981689453125;-0.0015716552734375;1.16999999704603;118;1 A
12.5264339683738;-0.499786376953125;-0.00158081054687501;1.17999999702079;119;1 A
12.5364339683485;-0.499755859375;-0.00157470703125;1.18999999699554;120;1 A
12.5464339683233;-0.4998779296875;-0.00157470703125;1.19999999697029;121;1 A
12.5564339682981;-0.49981689453125;-0.00158081054687501;1.20999999694504;122;1 A
12.5664339682728;-0.499786376953125;-0.0015716552734375;1.2199999969198;123;1 A
12.5764339682476;-0.499786376953125;-0.0015838623046875;1.22999999689455;124;1 A
12.5864339682223;-0.49981689453125;-0.00157775878906249;1.2399999968693;125;1 A
12.5964339681971;-0.49981689453125;-0.0015716552734375;1.24999999684405;126;1 A
12.6064339681718;-0.499786376953125;-0.0015838623046875;1.25999999681881;127;1 A
12.6164339681466;-0.499786376953125;-0.00157470703125;1.26999999679356;128;1 A
12.6264339681213;-0.499786376953125;-0.00158081054687501;1.27999999676831;129;1 A
12.6364339680961;-0.49981689453125;-0.00157775878906249;1.28999999674306;130;1 A
12.6464339680708;-0.49981689453125;-0.00158081054687501;1.29999999671782;131;1 A
12.6564339680456;-0.49981689453125;-0.00159301757812499;1.30999999669257;132;1 A
12.6664339680203;-0.499725341796875;-0.0015869140625;1.31999999666732;133;1 A
12.6764339679951;-0.49981689453125;-0.00159301757812499;1.32999999664207;134;1 A
12.6864339679698;-0.49981689453125;-0.0015869140625;1.33999999661683;135;1 A
12.6964339679446;-0.499755859375;-0.0015838623046875;1.34999999659158;136;1 A
12.7064339679193;-0.49981689453125;-0.0015838623046875;1.35999999656633;137;1 A
12.7164339678941;-0.49981689453125;-0.00158081054687501;1.36999999654108;138;1 A
12.7264339678688;-0.49981689453125;-0.00159301757812499;1.37999999651583;139;1 A
12.7364339678436;-0.499847412109375;-0.0015838623046875;1.38999999649059;140;1 A
12.7464339678183;-0.499755859375;-0.00158081054687501;1.39999999646534;141;1 A
12.7564339677931;-0.499786376953125;-0.0015869140625;1.40999999644009;142;1 A
12.7664339677679;-0.499786376953125;-0.00157775878906249;1.41999999641484;143;1 A
12.7764339677426;-0.499847412109375;-0.0015869140625;1.4299999963896;144;1 A
12.7864339677174;-0.499755859375;-0.00158081054687501;1.43999999636435;145;1 A
12.7964339676921;-0.499755859375;-0.0015838623046875;1.4499999963391;146;1 A
12.8064339676669;-0.499786376953125;-0.0015838623046875;1.45999999631385;147;1 A
12.8164339676416;-0.49981689453125;-0.00157470703125;1.46999999628861;148;1 A
12.8264339676164;-0.499786376953125;-0.00157775878906249;1.47999999626336;149;1 A
12.8364339675911;-0.49981689453125;-0.00157470703125;1.48999999623811;150;1 A
12.8464339675659;-0.499786376953125;-0.001568603515625;1.49999999621286;151;1 A
12.8564339675406;-0.499847412109375;-0.00157470703125;1.50999999618762;152;1 A
12.8664339675154;-0.49981689453125;-0.00157470703125;1.51999999616237;153;1 A
12.8764339674901;-0.499786376953125;-0.0015869140625;1.52999999613712;154;1 A
12.8864339674649;-0.499786376953125;-0.00157470703125;1.53999999611187;155;1 A
12.8964339674396;-0.499786376953125;-0.00157470703125;1.54999999608663;156;1 A
12.9064339674144;-0.499847412109375;-0.00157470703125;1.55999999606138;157;1 A
12.9164339673891;-0.4998779296875;-0.00156555175781251;1.56999999603613;158;1 A
12.9264339673639;-0.499786376953125;-0.00158081054687501;1.57999999601088;159;1 A
12.9364339673386;-0.499786376953125;-0.00157470703125;1.58999999598564;160;1 A
12.9464339673134;-0.499725341796875;-0.00157470703125;1.59999999596039;161;1 A
12.9564339672881;-0.499786376953125;-0.00158081054687501;1.60999999593514;162;1 A
12.9664339672629;-0.49981689453125;-0.00157470703125;1.61999999590989;163;1 A
12.9764339672377;-0.499786376953125;-0.0015869140625;1.62999999588465;164;1 A
12.9864339672124;-0.499847412109375;-0.00158081054687501;1.6399999958594;165;1 A
12.9964339671872;-0.499847412109375;-0.00158081054687501;1.64999999583415;166;1 A
13.0064339671619;-0.49981689453125;-0.0015838623046875;1.6599999958089;167;1 A
13.0164339671367;-0.499725341796875;-0.00157470703125;1.66999999578366;168;1 A
13.0264339671114;-0.49981689453125;-0.00158081054687501;1.67999999575841;169;1 A
13.0364339670862;-0.49981689453125;-0.0015716552734375;1.68999999573316;170;1 A
13.0464339670609;-0.499847412109375;-0.00157775878906249;1.69999999570791;171;1 A
13.0564339670357;-0.499786376953125;-0.00157775878906249;1.70999999568267;172;1 A
13.0664339670104;-0.499786376953125;-0.001568603515625;1.71999999565742;173;1 A
13.0764339669852;-0.49981689453125;-0.00158081054687501;1.72999999563217;174;1 A
13.0864339669599;-0.499786376953125;-0.0015716552734375;1.73999999560692;175;1 A
13.0964339669347;-0.49981689453125;-0.0015716552734375;1.74999999558167;176;1 A
13.1064339669094;-0.49981689453125;-0.0015716552734375;1.75999999555643;177;1 A
13.1164339668842;-0.499847412109375;-0.001568603515625;1.76999999553118;178;1 A
13.1264339668589;-0.499786376953125;-0.00158081054687501;1.77999999550593;179;1 A
13.1364339668337;-0.499786376953125;-0.00157470703125;1.78999999548068;180;1 A
13.1464339668084;-0.499847412109375;-0.00157470703125;1.79999999545544;181;1 A
13.1564339667832;-0.499786376953125;-0.00158081054687501;1.80999999543019;182;1 A
13.1664339667579;-0.49981689453125;-0.00157470703125;1.81999999540494;183;1 A
13.1764339667327;-0.499755859375;-0.0015838623046875;1.82999999537969;184;1 A
13.1864339667075;-0.499786376953125;-0.00157775878906249;1.83999999535445;185;1 A
13.1964339666822;-0.49981689453125;-0.00158081054687501;1.8499999953292;186;1 A
13.206433966657;-0.49981689453125;-0.00158081054687501;1.85999999530395;187;1 A
13.2164339666317;-0.49981689453125;-0.00157470703125;1.8699999952787;188;1 A
13.2264339666065;-0.499725341796875;-0.0015869140625;1.87999999525346;189;1 A
13.2364339665812;-0.499755859375;-0.00157775878906249;1.88999999522821;190;1 A
13.246433966556;-0.49981689453125;-0.00157775878906249;1.89999999520296;191;1 A
13.2564339665307;-0.499786376953125;-0.00157775878906249;1.90999999517771;192;1 A
13.2664339665055;-0.499755859375;-0.00157775878906249;1.91999999515247;193;1 A
13.2764339664802;-0.499847412109375;-0.0015838623046875;1.92999999512722;194;1 A
13.286433966455;-0.499786376953125;-0.0015899658203125;1.93999999510197;195;1 A
13.2964339664297;-0.499786376953125;-0.00157470703125;1.94999999507672;196;1 A
13.3064339664045;-0.49981689453125;-0.00157470703125;1.95999999505148;197;1 A
13.3164339663792;-0.499847412109375;-0.0015716552734375;1.96999999502623;198;1 A
13.326433966354;-0.499786376953125;-0.0015869140625;1.97999999500098;199;1 A
13.3364339663287;-0.499847412109375;-0.001568603515625;1.98999999497573;200;1 A
13.3464339663035;-0.499847412109375;-0.00156555175781251;1.99999999495049;201;1 A
13.3564339662782;-0.499786376953125;-0.00157470703125;2.00999999492524;202;1 A
13.366433966253;-0.49981689453125;-0.00156555175781251;2.01999999489999;203;1 A
13.3764339662278;-0.499755859375;-0.00158081054687501;2.02999999487474;204;1 A
13.3864339662025;-0.499786376953125;-0.0015716552734375;2.0399999948495;205;1 A
13.3964339661773;-0.499786376953125;-0.0015716552734375;2.04999999482425;206;1 A
13.406433966152;-0.499755859375;-0.0015716552734375;2.059999994799;207;1 A
13.4164339661268;-0.49981689453125;-0.00156249999999999;2.06999999477375;208;1 A
13.4264339661015;-0.499847412109375;-0.00157775878906249;2.0799999947485;209;1 A
13.4364339660763;-0.49981689453125;-0.00157470703125;2.08999999472326;210;1 A
13.446433966051;-0.49981689453125;-0.0015716552734375;2.09999999469801;211;1 A
13.4564339660258;-0.49981689453125;-0.00158081054687501;2.10999999467276;212;1 A
13.4664339660005;-0.499847412109375;-0.0015716552734375;2.11999999464751;213;1 A
13.4764339659753;-0.49981689453125;-0.00158081054687501;2.12999999462227;214;1 A
13.48643396595;-0.499786376953125;-0.0015716552734375;2.13999999459702;215;1 A
13.4964339659248;-0.499847412109375;-0.00157470703125;2.14999999457177;216;1 A
13.5064339658995;-0.49981689453125;-0.00157775878906249;2.15999999454652;217;1 A
13.5164339658743;-0.49981689453125;-0.001568603515625;2.16999999452128;218;1 A
13.526433965849;-0.499755859375;-0.0015838623046875;2.17999999449603;219;1 A
13.5364339658238;-0.49981689453125;-0.0015716552734375;2.18999999447078;220;1 A
13.5464339657985;-0.499786376953125;-0.001568603515625;2.19999999444553;221;1 A
13.5564339657733;-0.49981689453125;-0.001568603515625;2.20999999442029;222;1 A
13.566433965748;-0.499786376953125;-0.00156555175781251;2.21999999439504;223;1 A
13.5764339657228;-0.499847412109375;-0.00157470703125;2.22999999436979;224;1 A
13.5864339656976;-0.49981689453125;-0.001568603515625;2.23999999434454;225;1 A
13.5964339656723;-0.49981689453125;-0.00156555175781251;2.2499999943193;226;1 A
13.6064339656471;-0.499786376953125;-0.00157775878906249;2.25999999429405;227;1 A
13.6164339656218;-0.499755859375;-0.0015716552734375;2.2699999942688;228;1 A
13.6264339655966;-0.49981689453125;-0.00157775878906249;2.27999999424355;229;1 A
13.6364339655713;-0.49981689453125;-0.00156555175781251;2.28999999421831;230;1 A
13.6464339655461;-0.499786376953125;-0.00156249999999999;2.29999999419306;231;1 A
13.6564339655208;-0.49981689453125;-0.00156555175781251;2.30999999416781;232;1 A
13.6664339654956;-0.499786376953125;-0.00156555175781251;2.31999999414256;233;1 A
13.6764339654703;-0.499786376953125;-0.001568603515625;2.32999999411732;234;1 A
13.6864339654451;-0.499786376953125;-0.0015594482421875;2.33999999409207;235;1 A
13.6964339654198;-0.499847412109375;-0.00156249999999999;2.34999999406682;236;1 A
13.7064339653946;-0.49981689453125;-0.001568603515625;2.35999999404157;237;1 A
13.7164339653693;-0.499847412109375;-0.00156249999999999;2.36999999401633;238;1 A
13.7264339653441;-0.49981689453125;-0.0015716552734375;2.37999999399108;239;1 A
13.7364339653188;-0.4998779296875;-0.0015594482421875;2.38999999396583;240;1 A
13.7464339652936;-0.499786376953125;-0.001556396484375;2.39999999394058;241;1 A
13.7564339652683;-0.49981689453125;-0.00156555175781251;2.40999999391533;242;1 A
13.7664339652431;-0.49981689453125;-0.001556396484375;2.41999999389009;243;1 A
13.7764339652178;-0.499725341796875;-0.00156555175781251;2.42999999386484;244;1 A
13.7864339651926;-0.49981689453125;-0.0015533447265625;2.43999999383959;245;1 A
13.7964339651674;-0.499786376953125;-0.0015533447265625;2.44999999381434;246;1 A
13.8064339651421;-0.49981689453125;-0.001556396484375;2.4599999937891;247;1 A
13.8164339651169;-0.49981689453125;-0.00154724121093749;2.46999999376385;248;1 A
13.8264339650916;-0.499786376953125;-0.00156249999999999;2.4799999937386;249;1 A
13.8364339650664;-0.49981689453125;-0.0015533447265625;2.48999999371335;250;1 A
13.8464339650411;-0.499786376953125;-0.00154724121093749;2.49999999368811;251;1 A
13.8564339650159;-0.499786376953125;-0.001556396484375;2.50999999366286;252;1 A
13.8664339649906;-0.499786376953125;-0.00154724121093749;2.51999999363761;253;1 A
13.8764339649654;-0.49981689453125;-0.0015594482421875;2.52999999361236;254;1 A
13.8864339649401;-0.499755859375;-0.0015533447265625;2.53999999358712;255;1 A
13.8964339649149;-0.49981689453125;-0.0015594482421875;2.54999999356187;256;1 A
13.9064339648896;-0.49981689453125;-0.00156249999999999;2.55999999353662;257;1 A
13.9164339648644;-0.499786376953125;-0.0015533447265625;2.56999999351137;258;1 A
13.9264339648391;-0.49981689453125;-0.00156555175781251;2.57999999348613;259;1 A
13.9364339648139;-0.499786376953125;-0.001556396484375;2.58999999346088;260;1 A
13.9464339647886;-0.49981689453125;-0.0015533447265625;2.59999999343563;261;1 A
13.9564339647634;-0.499755859375;-0.0015533447265625;2.60999999341038;262;1 A
13.9664339647381;-0.499755859375;-0.00155029296875001;2.61999999338514;263;1 A
13.9764339647129;-0.499786376953125;-0.001556396484375;2.62999999335989;264;1 A
13.9864339646876;-0.49981689453125;-0.00155029296875001;2.63999999333464;265;1 A
13.9964339646624;-0.49981689453125;-0.0015411376953125;2.64999999330939;266;1 A
14.0064339646372;-0.499755859375;-0.00154724121093749;2.65999999328415;267;1 A
14.0164339646119;-0.499725341796875;-0.0015411376953125;2.6699999932589;268;1 A
14.0264339645867;-0.49981689453125;-0.00155029296875001;2.67999999323365;269;1 A
14.0364339645614;-0.49981689453125;-0.0015380859375;2.6899999932084;270;1 A
14.0464339645362;-0.499755859375;-0.0015411376953125;2.69999999318316;271;1 A
14.0564339645109;-0.499755859375;-0.001544189453125;2.70999999315791;272;1 A
14.0664339644857;-0.499755859375;-0.0015380859375;2.71999999313266;273;1 A
14.0764339644604;-0.499786376953125;-0.0015533447265625;2.72999999310741;274;1 A
14.0864339644352;-0.499786376953125;-0.0015411376953125;2.73999999308217;275;1 A
14.0964339644099;-0.499847412109375;-0.00154724121093749;2.74999999305692;276;1 A
14.1064339643847;-0.499847412109375;-0.00154724121093749;2.75999999303167;277;1 A
14.1164339643594;-0.49981689453125;-0.001544189453125;2.76999999300642;278;1 A
14.1264339643342;-0.49981689453125;-0.00155029296875001;2.77999999298117;279;1 A
14.1364339643089;-0.499786376953125;-0.0015380859375;2.78999999295593;280;1 A
14.1464339642837;-0.499847412109375;-0.00153503417968751;2.79999999293068;281;1 A
14.1564339642584;-0.499755859375;-0.0015411376953125;2.80999999290543;282;1 A
14.1664339642332;-0.499786376953125;-0.00153198242187499;2.81999999288018;283;1 A
14.1764339642079;-0.49981689453125;-0.0015411376953125;2.82999999285494;284;1 A
14.1864339641827;-0.499786376953125;-0.00153198242187499;2.83999999282969;285;1 A
14.1964339641574;-0.49981689453125;-0.00153503417968751;2.84999999280444;286;1 A
14.2064339641322;-0.499847412109375;-0.0015380859375;2.85999999277919;287;1 A
14.216433964107;-0.49981689453125;-0.0015289306640625;2.86999999275395;288;1 A
14.2264339640817;-0.499755859375;-0.001544189453125;2.8799999927287;289;1 A
14.2364339640565;-0.499847412109375;-0.00153198242187499;2.88999999270345;290;1 A
14.2464339640312;-0.499847412109375;-0.00153503417968751;2.8999999926782;291;1 A
14.256433964006;-0.499847412109375;-0.0015411376953125;2.90999999265296;292;1 A
14.2664339639807;-0.49981689453125;-0.0015289306640625;2.91999999262771;293;1 A
14.2764339639555;-0.49981689453125;-0.0015380859375;2.92999999260246;294;1 A
14.2864339639302;-0.49981689453125;-0.00153198242187499;2.93999999257721;295;1 A
14.296433963905;-0.499755859375;-0.0015289306640625;2.94999999255197;296;1 A
14.3064339638797;-0.49981689453125;-0.00153503417968751;2.95999999252672;297;1 A
14.3164339638545;-0.49981689453125;-0.00152587890625;2.96999999250147;298;1 A
14.3264339638292;-0.499847412109375;-0.0015411376953125;2.97999999247622;299;1 A
14.336433963804;-0.49981689453125;-0.00153503417968751;2.98999999245098;300;1 A
14.3464339637787;-0.499755859375;-0.00153198242187499;2.99999999242573;301;1 A
14.3564339637535;-0.499786376953125;-0.0015411376953125;3.00999999240048;302;1 A
14.3664339637282;-0.499786376953125;-0.0015411376953125;3.01999999237523;303;1 A
14.376433963703;-0.499755859375;-0.00154724121093749;3.02999999234999;304;1 A
14.3864339636777;-0.499755859375;-0.0015380859375;3.03999999232474;305;1 A
14.3964339636525;-0.499847412109375;-0.00153503417968751;3.04999999229949;306;1 A
14.4064339636273;-0.499786376953125;-0.0015411376953125;3.05999999227424;307;1 A
14.416433963602;-0.499786376953125;-0.0015380859375;3.069999992249;308;1 A
14.4264339635768;-0.49981689453125;-0.0015411376953125;3.07999999222375;309;1 A
14.4364339635515;-0.499786376953125;-0.00153503417968751;3.0899999921985;310;1 A
14.4464339635263;-0.499755859375;-0.00153198242187499;3.09999999217325;311;1 A
14.456433963501;-0.499847412109375;-0.00153503417968751;3.109999992148;312;1 A
14.4664339634758;-0.499725341796875;-0.00153198242187499;3.11999999212276;313;1 A
14.4764339634505;-0.49981689453125;-0.0015380859375;3.12999999209751;314;1 A
14.4864339634253;-0.49981689453125;-0.0015228271484375;3.13999999207226;315;1 A
14.4964339634;-0.499847412109375;-0.00152587890625;3.14999999204701;316;1 A
14.5064339633748;-0.499786376953125;-0.00153198242187499;3.15999999202177;317;1 A
14.5164339633495;-0.49981689453125;-0.00151977539062501;3.16999999199652;318;1 A
14.5264339633243;-0.499786376953125;-0.00153503417968751;3.17999999197127;319;1 A
14.536433963299;-0.49981689453125;-0.0015228271484375;3.18999999194602;320;1 A
14.5464339632738;-0.49981689453125;-0.0015533447265625;3.19999999192078;321;1 A
14.5564339632485;-0.499755859375;-0.0015380859375;3.20999999189553;322;1 A
14.5664339632233;-0.499786376953125;-0.0015289306640625;3.21999999187028;323;1 A
14.576433963198;-0.49981689453125;-0.0015380859375;3.22999999184503;324;1 A
14.5864339631728;-0.49981689453125;-0.00152587890625;3.23999999181979;325;1 A
14.5964339631475;-0.499847412109375;-0.00152587890625;3.24999999179454;326;1 A
14.6064339631223;-0.499755859375;-0.00153503417968751;3.25999999176929;327;1 A
14.6164339630971;-0.49981689453125;-0.00152587890625;3.26999999174404;328;1 A
14.6264339630718;-0.499786376953125;-0.0015411376953125;3.2799999917188;329;1 A
14.6364339630466;-0.49981689453125;-0.0015289306640625;3.28999999169355;330;1 A
14.6464339630213;-0.49981689453125;-0.0015289306640625;3.2999999916683;331;1 A
14.6564339629961;-0.499786376953125;-0.00153503417968751;3.30999999164305;332;1 A
14.6664339629708;-0.49981689453125;-0.0015289306640625;3.31999999161781;333;1 A
14.6764339629456;-0.499847412109375;-0.00153503417968751;3.32999999159256;334;1 A
14.6864339629203;-0.49981689453125;-0.00152587890625;3.33999999156731;335;1 A
14.6964339628951;-0.499725341796875;-0.0015289306640625;3.34999999154206;336;1 A
14.7064339628698;-0.49981689453125;-0.00152587890625;3.35999999151682;337;1 A
14.7164339628446;-0.499786376953125;-0.00151672363281249;3.36999999149157;338;1 A
14.7264339628193;-0.499725341796875;-0.0015289306640625;3.37999999146632;339;1 A
14.7364339627941;-0.499725341796875;-0.00151672363281249;3.38999999144107;340;1 A
14.7464339627688;-0.499755859375;-0.001513671875;3.39999999141583;341;1 A
14.7564339627436;-0.499786376953125;-0.0015228271484375;3.40999999139058;342;1 A
14.7664339627183;-0.499847412109375;-0.00151672363281249;3.41999999136533;343;1 A
14.7764339626931;-0.49981689453125;-0.00152587890625;3.42999999134008;344;1 A
14.7864339626678;-0.499786376953125;-0.001513671875;3.43999999131483;345;1 A
14.7964339626426;-0.499755859375;-0.00151977539062501;3.44999999128959;346;1 A
14.8064339626173;-0.499725341796875;-0.00152587890625;3.45999999126434;347;1 A
14.8164339625921;-0.499847412109375;-0.0015228271484375;3.46999999123909;348;1 A
14.8264339625669;-0.499786376953125;-0.0015289306640625;3.47999999121384;349;1 A
14.8364339625416;-0.499847412109375;-0.00151977539062501;3.4899999911886;350;1 A
14.8464339625164;-0.499755859375;-0.0015228271484375;3.49999999116335;351;1 A
14.8564339624911;-0.499786376953125;-0.00153198242187499;3.5099999911381;352;1 A
14.8664339624659;-0.499847412109375;-0.0015228271484375;3.51999999111285;353;1 A
14.8764339624406;-0.49981689453125;-0.00153503417968751;3.52999999108761;354;1 A
14.8864339624154;-0.499786376953125;-0.0015228271484375;3.53999999106236;355;1 A
14.8964339623901;-0.49981689453125;-0.0015228271484375;3.54999999103711;356;1 A
14.9064339623649;-0.49981689453125;-0.00153198242187499;3.55999999101186;357;1 A
14.9164339623396;-0.49981689453125;-0.00152587890625;3.56999999098662;358;1 A
14.9264339623144;-0.499786376953125;-0.00153198242187499;3.57999999096137;359;1 A
14.9364339622891;-0.499847412109375;-0.0015228271484375;3.58999999093612;360;1 A
14.9464339622639;-0.499755859375;-0.00151977539062501;3.59999999091087;361;1 A
14.9564339622386;-0.499725341796875;-0.00152587890625;3.60999999088563;362;1 A
14.9664339622134;-0.499786376953125;-0.00151977539062501;3.61999999086038;363;1 A
14.9764339621881;-0.499786376953125;-0.00152587890625;3.62999999083513;364;1 A
14.9864339621629;-0.49981689453125;-0.00151672363281249;3.63999999080988;365;1 A
14.9964339621376;-0.49981689453125;-0.00152587890625;3.64999999078464;366;1 A
15.0064339621124;-0.499847412109375;-0.0015533447265625;3.65999999075939;367;1 A
15.0164339620871;-0.499755859375;-0.00152587890625;3.66999999073414;368;1 A
15.0264339620619;-0.499786376953125;-0.00152587890625;3.67999999070889;369;1 A
15.0364339620367;-0.49981689453125;-0.00151672363281249;3.68999999068365;370;1 A
15.0464339620114;-0.49981689453125;-0.00151977539062501;3.6999999906584;371;1 A
15.0564339619862;-0.499786376953125;-0.00153198242187499;3.70999999063315;372;1 A
15.0664339619609;-0.499755859375;-0.00152587890625;3.7199999906079;373;1 A
15.0764339619357;-0.49981689453125;-0.00153198242187499;3.72999999058266;374;1 A
15.0864339619104;-0.49981689453125;-0.0015289306640625;3.73999999055741;375;1 A
15.0964339618852;-0.499786376953125;-0.0015228271484375;3.74999999053216;376;1 A
15.1064339618599;-0.499847412109375;-0.00153198242187499;3.75999999050691;377;1 A
15.1164339618347;-0.49981689453125;-0.00152587890625;3.76999999048167;378;1 A
15.1264339618094;-0.499786376953125;-0.0015380859375;3.77999999045642;379;1 A
15.1364339617842;-0.499755859375;-0.0015289306640625;3.78999999043117;380;1 A
15.1464339617589;-0.499847412109375;-0.00153198242187499;3.79999999040592;381;1 A
15.1564339617337;-0.499786376953125;-0.0015380859375;3.80999999038067;382;1 A
15.1664339617084;-0.49981689453125;-0.0015289306640625;3.81999999035543;383;1 A
15.1764339616832;-0.499725341796875;-0.0015380859375;3.82999999033018;384;1 A
15.1864339616579;-0.499755859375;-0.0015289306640625;3.83999999030493;385;1 A
15.1964339616327;-0.499847412109375;-0.00152587890625;3.84999999027968;386;1 A
15.2064339616074;-0.499755859375;-0.00153198242187499;3.85999999025444;387;1 A
15.2164339615822;-0.499755859375;-0.00152587890625;3.86999999022919;388;1 A
15.2264339615569;-0.499755859375;-0.00152587890625;3.87999999020394;389;1 A
15.2364339615317;-0.49981689453125;-0.001513671875;3.88999999017869;390;1 A
15.2464339615065;-0.499755859375;-0.00151977539062501;3.89999999015345;391;1 A
15.2564339614812;-0.499786376953125;-0.0015289306640625;3.9099999901282;392;1 A
15.266433961456;-0.499786376953125;-0.00151977539062501;3.91999999010295;393;1 A
15.2764339614307;-0.499786376953125;-0.0015289306640625;3.9299999900777;394;1 A
15.2864339614055;-0.49981689453125;-0.00151977539062501;3.93999999005246;395;1 A
15.2964339613802;-0.499786376953125;-0.00152587890625;3.94999999002721;396;1 A
15.306433961355;-0.499786376953125;-0.0015289306640625;3.95999999000196;397;1 A
15.3164339613297;-0.49981689453125;-0.0015228271484375;3.96999998997671;398;1 A
15.3264339613045;-0.499786376953125;-0.00153198242187499;3.97999998995147;399;1 A
15.3364339612792;-0.499847412109375;-0.0015228271484375;3.98999998992622;400;1 A
15.346433961254;-0.499847412109375;-0.0015228271484375;3.99999998990097;401;1 A
15.3564339612287;-0.499847412109375;-0.00153198242187499;4.00999998987572;402;1 A
15.3664339612035;-0.499786376953125;-0.00152587890625;4.01999998985048;403;1 A
15.3764339611782;-0.49981689453125;-0.00153503417968751;4.02999998982523;404;1 A
15.386433961153;-0.49981689453125;-0.0015228271484375;4.03999998979998;405;1 A
15.3964339611277;-0.49981689453125;-0.0015228271484375;4.04999998977473;406;1 A
15.4064339611025;-0.499847412109375;-0.00152587890625;4.05999998974949;407;1 A
15.4164339610772;-0.49981689453125;-0.0015228271484375;4.06999998972424;408;1 A
15.426433961052;-0.49981689453125;-0.00153503417968751;4.07999998969899;409;1 A
15.4364339610268;-0.49981689453125;-0.00151977539062501;4.08999998967374;410;1 A
15.4464339610015;-0.499847412109375;-0.0015228271484375;4.0999999896485;411;1 A
15.4564339609763;-0.499847412109375;-0.00152587890625;4.10999998962325;412;1 A
15.466433960951;-0.499786376953125;-0.00151672363281249;4.119999989598;413;1 A
15.4764339609258;-0.499786376953125;-0.0015289306640625;4.12999998957275;414;1 A
15.4864339609005;-0.499786376953125;-0.00151977539062501;4.1399999895475;415;1 A
15.4964339608753;-0.499847412109375;-0.0015228271484375;4.14999998952226;416;1 A
15.50643396085;-0.49981689453125;-0.0015289306640625;4.15999998949701;417;1 A
15.5164339608248;-0.499786376953125;-0.00151977539062501;4.16999998947176;418;1 A
15.5264339607995;-0.499847412109375;-0.00153198242187499;4.17999998944651;419;1 A
15.5364339607743;-0.49981689453125;-0.0015228271484375;4.18999998942127;420;1 A
15.546433960749;-0.499847412109375;-0.0015228271484375;4.19999998939602;421;1 A
15.5564339607238;-0.499786376953125;-0.0015289306640625;4.20999998937077;422;1 A
15.5664339606985;-0.499755859375;-0.00151977539062501;4.21999998934552;423;1 A
15.5764339606733;-0.499725341796875;-0.00153503417968751;4.22999998932028;424;1 A
15.586433960648;-0.499847412109375;-0.00151977539062501;4.23999998929503;425;1 A
15.5964339606228;-0.499786376953125;-0.00152587890625;4.24999998926978;426;1 A
15.6064339605975;-0.499786376953125;-0.00153503417968751;4.25999998924453;427;1 A
15.6164339605723;-0.499786376953125;-0.0015228271484375;4.26999998921929;428;1 A
15.626433960547;-0.49981689453125;-0.00153503417968751;4.27999998919404;429;1 A
15.6364339605218;-0.49981689453125;-0.00152587890625;4.28999998916879;430;1 A
15.6464339604966;-0.499755859375;-0.0015289306640625;4.29999998914354;431;1 A
15.6564339604713;-0.49981689453125;-0.00153198242187499;4.3099999891183;432;1 A
15.6664339604461;-0.49981689453125;-0.00151672363281249;4.31999998909305;433;1 A
15.6764339604208;-0.49981689453125;-0.00153503417968751;4.3299999890678;434;1 A
15.6864339603956;-0.499786376953125;-0.0015228271484375;4.33999998904255;435;1 A
15.6964339603703;-0.49981689453125;-0.00152587890625;4.34999998901731;436;1 A
15.7064339603451;-0.499786376953125;-0.00152587890625;4.35999998899206;437;1 A
15.7164339603198;-0.49981689453125;-0.00151977539062501;4.36999998896681;438;1 A
15.7264339602946;-0.49981689453125;-0.0015289306640625;4.37999998894156;439;1 A
15.7364339602693;-0.49981689453125;-0.001513671875;4.38999998891632;440;1 A
15.7464339602441;-0.49981689453125;-0.00151672363281249;4.39999998889107;441;1 A
15.7564339602188;-0.499786376953125;-0.0015289306640625;4.40999998886582;442;1 A
15.7664339601936;-0.499725341796875;-0.0015228271484375;4.41999998884057;443;1 A
15.7764339601683;-0.499755859375;-0.00153198242187499;4.42999998881533;444;1 A
15.7864339601431;-0.499755859375;-0.00151977539062501;4.43999998879008;445;1 A
15.7964339601178;-0.49981689453125;-0.00152587890625;4.44999998876483;446;1 A
15.8064339600926;-0.499786376953125;-0.0015289306640625;4.45999998873958;447;1 A
15.8164339600673;-0.499786376953125;-0.00151977539062501;4.46999998871433;448;1 A
15.8264339600421;-0.499847412109375;-0.0015289306640625;4.47999998868909;449;1 A
15.8364339600168;-0.49981689453125;-0.0015228271484375;4.48999998866384;450;1 A
15.8464339599916;-0.49981689453125;-0.0015289306640625;4.49999998863859;451;1 A
15.8564339599664;-0.499786376953125;-0.00153503417968751;4.50999998861334;452;1 A
15.8664339599411;-0.499755859375;-0.00153198242187499;4.5199999885881;453;1 A
15.8764339599159;-0.49981689453125;-0.0015380859375;4.52999998856285;454;1 A
15.8864339598906;-0.499786376953125;-0.00152587890625;4.5399999885376;455;1 A
15.8964339598654;-0.499786376953125;-0.00153503417968751;4.54999998851235;456;1 A
15.9064339598401;-0.49981689453125;-0.0015411376953125;4.55999998848711;457;1 A
15.9164339598149;-0.499908447265625;-0.0015289306640625;4.56999998846186;458;1 A
15.9264339597896;-0.499786376953125;-0.0015380859375;4.57999998843661;459;1 A
15.9364339597644;-0.49981689453125;-0.00152587890625;4.58999998841136;460;1 A
15.9464339597391;-0.49981689453125;-0.00152587890625;4.59999998838612;461;1 A
15.9564339597139;-0.49981689453125;-0.00153198242187499;4.60999998836087;462;1 A
15.9664339596886;-0.49981689453125;-0.00152587890625;4.61999998833562;463;1 A
15.9764339596634;-0.499786376953125;-0.00153198242187499;4.62999998831037;464;1 A
15.9864339596381;-0.499786376953125;-0.0015228271484375;4.63999998828513;465;1 A
15.9964339596129;-0.499786376953125;-0.00152587890625;4.64999998825988;466;1 A
16.0064339595876;-0.499847412109375;-0.0015380859375;4.65999998823463;467;1 A
16.0164339595624;-0.499847412109375;-0.00153198242187499;4.66999998820938;468;1 A
16.0264339595371;-0.499786376953125;-0.0015411376953125;4.67999998818414;469;1 A
16.0364339595119;-0.499847412109375;-0.0015289306640625;4.68999998815889;470;1 A
16.0464339594866;-0.499786376953125;-0.00153198242187499;4.69999998813364;471;1 A
16.0564339594614;-0.499786376953125;-0.0015380859375;4.70999998810839;472;1 A
16.0664339594362;-0.499755859375;-0.00153503417968751;4.71999998808315;473;1 A
16.0764339594109;-0.499755859375;-0.0015380859375;4.7299999880579;474;1 A
16.0864339593857;-0.49981689453125;-0.00153198242187499;4.73999998803265;475;1 A
16.0964339593604;-0.49981689453125;-0.00153503417968751;4.7499999880074;476;1 A
16.1064339593352;-0.4998779296875;-0.0015411376953125;4.75999998798216;477;1 A
16.1164339593099;-0.499755859375;-0.00153503417968751;4.76999998795691;478;1 A
16.1264339592847;-0.499847412109375;-0.0015411376953125;4.77999998793166;479;1 A
16.1364339592594;-0.49981689453125;-0.00153198242187499;4.78999998790641;480;1 A
16.1464339592342;-0.499755859375;-0.00153198242187499;4.79999998788116;481;1 A
16.1564339592089;-0.49981689453125;-0.00153198242187499;4.80999998785592;482;1 A
16.1664339591837;-0.49981689453125;-0.00152587890625;4.81999998783067;483;1 A
16.1764339591584;-0.49981689453125;-0.0015380859375;4.82999998780542;484;1 A
16.1864339591332;-0.499786376953125;-0.00152587890625;4.83999998778017;485;1 A
16.1964339591079;-0.499847412109375;-0.0015289306640625;4.84999998775493;486;1 A
16.2064339590827;-0.499786376953125;-0.00153198242187499;4.85999998772968;487;1 A
16.2164339590574;-0.4998779296875;-0.0015289306640625;4.86999998770443;488;1 A
16.2264339590322;-0.499847412109375;-0.00153198242187499;4.87999998767918;489;1 A
16.2364339590069;-0.499786376953125;-0.0015289306640625;4.88999998765394;490;1 A
16.2464339589817;-0.49981689453125;-0.00153198242187499;4.89999998762869;491;1 A
16.2564339589564;-0.49981689453125;-0.001544189453125;4.90999998760344;492;1 A
16.2664339589312;-0.49981689453125;-0.00153503417968751;4.91999998757819;493;1 A
16.276433958906;-0.49981689453125;-0.001544189453125;4.92999998755295;494;1 A
16.2864339588807;-0.49981689453125;-0.00153503417968751;4.9399999875277;495;1 A
16.2964339588555;-0.4998779296875;-0.0015380859375;4.94999998750245;496;1 A
16.3064339588302;-0.499755859375;-0.001544189453125;4.9599999874772;497;1 A
16.316433958805;-0.499786376953125;-0.0015380859375;4.96999998745196;498;1 A
16.3264339587797;-0.499786376953125;-0.0015533447265625;4.97999998742671;499;1 A
16.3364339587545;-0.49981689453125;-0.00153198242187499;4.98999998740146;500;1 A
16.3464339587292;-0.49981689453125;-0.0015380859375;4.99999998737621;501;1 A
16.356433958704;-0.499847412109375;-0.001544189453125;5.00999998735097;502;1 A
16.3664339586787;-0.49981689453125;-0.00153503417968751;5.01999998732572;503;1 A
16.3764339586535;-0.49981689453125;-0.00154724121093749;5.02999998730047;504;1 A
16.3864339586282;-0.499847412109375;-0.00153198242187499;5.03999998727522;505;1 A
16.396433958603;-0.499725341796875;-0.00153503417968751;5.04999998724998;506;1 A
16.4064339585777;-0.49981689453125;-0.0015380859375;5.05999998722473;507;1 A
16.4164339585525;-0.499786376953125;-0.00153503417968751;5.06999998719948;508;1 A
16.4264339585272;-0.49981689453125;-0.001544189453125;5.07999998717423;509;1 A
16.436433958502;-0.499755859375;-0.00153198242187499;5.08999998714899;510;1 A
16.4464339584767;-0.49981689453125;-0.0015380859375;5.09999998712374;511;1 A
16.4564339584515;-0.499755859375;-0.0015380859375;5.10999998709849;512;1 A
16.4664339584263;-0.499786376953125;-0.00153503417968751;5.11999998707324;513;1 A
16.476433958401;-0.499786376953125;-0.0015411376953125;5.129999987048;514;1 A
16.4864339583758;-0.499725341796875;-0.00153503417968751;5.13999998702275;515;1 A
16.4964339583505;-0.499755859375;-0.0015380859375;5.1499999869975;516;1 A
16.5064339583253;-0.49981689453125;-0.00154724121093749;5.15999998697225;517;1 A
16.5164339583;-0.499786376953125;-0.001544189453125;5.169999986947;518;1 A
16.5264339582748;-0.499786376953125;-0.0015533447265625;5.17999998692176;519;1 A
16.5364339582495;-0.49981689453125;-0.0015380859375;5.18999998689651;520;1 A
16.5464339582243;-0.49981689453125;-0.001544189453125;5.19999998687126;521;1 A
16.556433958199;-0.49981689453125;-0.00154724121093749;5.20999998684601;522;1 A
16.5664339581738;-0.499847412109375;-0.00154724121093749;5.21999998682077;523;1 A
16.5764339581485;-0.49981689453125;-0.001556396484375;5.22999998679552;524;1 A
16.5864339581233;-0.499786376953125;-0.001544189453125;5.23999998677027;525;1 A
16.596433958098;-0.49981689453125;-0.00154724121093749;5.24999998674502;526;1 A
16.6064339580728;-0.49981689453125;-0.0015594482421875;5.25999998671978;527;1 A
16.6164339580475;-0.49981689453125;-0.00154724121093749;5.26999998669453;528;1 A
16.6264339580223;-0.499786376953125;-0.00155029296875001;5.27999998666928;529;1 A
16.636433957997;-0.499786376953125;-0.0015380859375;5.28999998664403;530;1 A
16.6464339579718;-0.499786376953125;-0.0015380859375;5.29999998661879;531;1 A
16.6564339579465;-0.49981689453125;-0.001544189453125;5.30999998659354;532;1 A
16.6664339579213;-0.499847412109375;-0.00153503417968751;5.31999998656829;533;1 A
16.6764339578961;-0.499786376953125;-0.00154724121093749;5.32999998654304;534;1 A
16.6864339578708;-0.499786376953125;-0.00153503417968751;5.3399999865178;535;1 A
16.6964339578456;-0.499725341796875;-0.001544189453125;5.34999998649255;536;1 A
16.7064339578203;-0.49981689453125;-0.00154724121093749;5.3599999864673;537;1 A
16.7164339577951;-0.499847412109375;-0.001544189453125;5.36999998644205;538;1 A
16.7264339577698;-0.499755859375;-0.001556396484375;5.37999998641681;539;1 A
16.7364339577446;-0.499786376953125;-0.0015411376953125;5.38999998639156;540;1 A
16.7464339577193;-0.499755859375;-0.00155029296875001;5.39999998636631;541;1 A
16.7564339576941;-0.499755859375;-0.0015533447265625;5.40999998634106;542;1 A
16.7664339576688;-0.499755859375;-0.00155029296875001;5.41999998631582;543;1 A
16.7764339576436;-0.499786376953125;-0.0015533447265625;5.42999998629057;544;1 A
16.7864339576183;-0.499755859375;-0.001544189453125;5.43999998626532;545;1 A
16.7964339575931;-0.499908447265625;-0.00155029296875001;5.44999998624007;546;1 A
16.8064339575678;-0.49981689453125;-0.0015533447265625;5.45999998621483;547;1 A
16.8164339575426;-0.499755859375;-0.00155029296875001;5.46999998618958;548;1 A
16.8264339575173;-0.499786376953125;-0.0015594482421875;5.47999998616433;549;1 A
16.8364339574921;-0.499847412109375;-0.0015533447265625;5.48999998613908;550;1 A
16.8464339574668;-0.49981689453125;-0.0015533447265625;5.49999998611383;551;1 A
16.8564339574416;-0.499786376953125;-0.0015594482421875;5.50999998608859;552;1 A
16.8664339574163;-0.499786376953125;-0.00155029296875001;5.51999998606334;553;1 A
16.8764339573911;-0.49981689453125;-0.0015594482421875;5.52999998603809;554;1 A
16.8864339573659;-0.499786376953125;-0.00155029296875001;5.53999998601284;555;1 A
16.8964339573406;-0.49981689453125;-0.0015533447265625;5.5499999859876;556;1 A
16.9064339573154;-0.49981689453125;-0.0015533447265625;5.55999998596235;557;1 A
16.9164339572901;-0.499786376953125;-0.0015533447265625;5.5699999859371;558;1 A
16.9264339572649;-0.49981689453125;-0.0015594482421875;5.57999998591185;559;1 A
16.9364339572396;-0.499786376953125;-0.00154724121093749;5.58999998588661;560;1 A
16.9464339572144;-0.499786376953125;-0.0015533447265625;5.59999998586136;561;1 A
16.9564339571891;-0.499847412109375;-0.0015594482421875;5.60999998583611;562;1 A
16.9664339571639;-0.499847412109375;-0.001556396484375;5.61999998581086;563;1 A
16.9764339571386;-0.49981689453125;-0.00156555175781251;5.62999998578562;564;1 A
16.9864339571134;-0.499786376953125;-0.0015533447265625;5.63999998576037;565;1 A
16.9964339570881;-0.499847412109375;-0.00156249999999999;5.64999998573512;566;1 A
17.0064339570629;-0.49981689453125;-0.0015716552734375;5.65999998570987;567;1 A
17.0164339570376;-0.499725341796875;-0.00156555175781251;5.66999998568463;568;1 A
17.0264339570124;-0.49981689453125;-0.00157470703125;5.67999998565938;569;1 A
17.0364339569871;-0.499786376953125;-0.001568603515625;5.68999998563413;570;1 A
17.0464339569619;-0.49981689453125;-0.001568603515625;5.69999998560888;571;1 A
17.0564339569366;-0.499847412109375;-0.00157470703125;5.70999998558364;572;1 A
17.0664339569114;-0.499786376953125;-0.0015716552734375;5.71999998555839;573;1 A
17.0764339568861;-0.49981689453125;-0.0015838623046875;5.72999998553314;574;1 A
17.0864339568609;-0.499847412109375;-0.0015716552734375;5.73999998550789;575;1 A
17.0964339568357;-0.499786376953125;-0.00157470703125;5.74999998548265;576;1 A
17.1064339568104;-0.49981689453125;-0.00157775878906249;5.7599999854574;577;1 A
17.1164339567852;-0.499847412109375;-0.001568603515625;5.76999998543215;578;1 A
17.1264339567599;-0.499755859375;-0.00157470703125;5.7799999854069;579;1 A
17.1364339567347;-0.499786376953125;-0.00156555175781251;5.78999998538166;580;1 A
17.1464339567094;-0.499786376953125;-0.00156555175781251;5.79999998535641;581;1 A
17.1564339566842;-0.49981689453125;-0.0015716552734375;5.80999998533116;582;1 A
17.1664339566589;-0.499755859375;-0.0015716552734375;5.81999998530591;583;1 A
17.1764339566337;-0.499847412109375;-0.00157775878906249;5.82999998528066;584;1 A
17.1864339566084;-0.499786376953125;-0.00156555175781251;5.83999998525542;585;1 A
17.1964339565832;-0.499847412109375;-0.00157470703125;5.84999998523017;586;1 A
17.2064339565579;-0.499786376953125;-0.00158081054687501;5.85999998520492;587;1 A
17.2164339565327;-0.4998779296875;-0.00157470703125;5.86999998517967;588;1 A
17.2264339565074;-0.499786376953125;-0.0015899658203125;5.87999998515443;589;1 A
17.2364339564822;-0.499755859375;-0.00157775878906249;5.88999998512918;590;1 A
17.2464339564569;-0.49981689453125;-0.0015869140625;5.89999998510393;591;1 A
17.2564339564317;-0.499847412109375;-0.0015838623046875;5.90999998507868;592;1 A
17.2664339564064;-0.4998779296875;-0.0015869140625;5.91999998505344;593;1 A
17.2764339563812;-0.499847412109375;-0.0015899658203125;5.92999998502819;594;1 A
17.2864339563559;-0.499847412109375;-0.0015838623046875;5.93999998500294;595;1 A
17.2964339563307;-0.499847412109375;-0.0015899658203125;5.94999998497769;596;1 A
17.3064339563055;-0.49981689453125;-0.00159301757812499;5.95999998495245;597;1 A
17.3164339562802;-0.499786376953125;-0.0015869140625;5.9699999849272;598;1 A
17.326433956255;-0.499755859375;-0.00159606933593751;5.97999998490195;599;1 A
17.3364339562297;-0.499755859375;-0.0015869140625;5.9899999848767;600;1 A
17.3464339562045;-0.499755859375;-0.0015869140625;5.99999998485146;601;1 A
17.3564339561792;-0.499786376953125;-0.0015899658203125;6.00999998482621;602;1 A
17.366433956154;-0.499847412109375;-0.00159301757812499;6.01999998480096;603;1 A
17.3764339561287;-0.499786376953125;-0.00159912109375;6.02999998477571;604;1 A
17.3864339561035;-0.49981689453125;-0.0015869140625;6.03999998475047;605;1 A
17.3964339560782;-0.499786376953125;-0.0015869140625;6.04999998472522;606;1 A
17.406433956053;-0.499725341796875;-0.0015899658203125;6.05999998469997;607;1 A
17.4164339560277;-0.499786376953125;-0.0015838623046875;6.06999998467472;608;1 A
17.4264339560025;-0.49981689453125;-0.0015899658203125;6.07999998464948;609;1 A
17.4364339559772;-0.4998779296875;-0.0015838623046875;6.08999998462423;610;1 A
17.446433955952;-0.49981689453125;-0.0015899658203125;6.09999998459898;611;1 A
17.4564339559267;-0.499786376953125;-0.00159606933593751;6.10999998457373;612;1 A
17.4664339559015;-0.499755859375;-0.00159301757812499;6.11999998454849;613;1 A
17.4764339558762;-0.49981689453125;-0.0016021728515625;6.12999998452324;614;1 A
17.486433955851;-0.499725341796875;-0.0015899658203125;6.13999998449799;615;1 A
17.4964339558258;-0.49981689453125;-0.00159301757812499;6.14999998447274;616;1 A
17.5064339558005;-0.49981689453125;-0.00159912109375;6.1599999844475;617;1 A
17.5164339557753;-0.499786376953125;-0.00159606933593751;6.16999998442225;618;1 A
17.52643395575;-0.49981689453125;-0.00160827636718749;6.179999984397;619;1 A
17.5364339557248;-0.499847412109375;-0.00159606933593751;6.18999998437175;620;1 A
17.5464339556995;-0.499786376953125;-0.0016021728515625;6.1999999843465;621;1 A
17.5564339556743;-0.499755859375;-0.00161132812500001;6.20999998432126;622;1 A
17.566433955649;-0.49981689453125;-0.00160827636718749;6.21999998429601;623;1 A
17.5764339556238;-0.499786376953125;-0.00160827636718749;6.22999998427076;624;1 A
17.5864339555985;-0.499755859375;-0.00159606933593751;6.23999998424551;625;1 A
17.5964339555733;-0.499847412109375;-0.00159606933593751;6.24999998422027;626;1 A
17.606433955548;-0.499847412109375;-0.0016021728515625;6.25999998419502;627;1 A
17.6164339555228;-0.499755859375;-0.00159912109375;6.26999998416977;628;1 A
17.6264339554975;-0.499786376953125;-0.0016021728515625;6.27999998414452;629;1 A
17.6364339554723;-0.499786376953125;-0.0015899658203125;6.28999998411928;630;1 A
17.646433955447;-0.499786376953125;-0.00159912109375;6.29999998409403;631;1 A
17.6564339554218;-0.499786376953125;-0.00159912109375;6.30999998406878;632;1 A
17.6664339553965;-0.499786376953125;-0.00159606933593751;6.31999998404353;633;1 A
17.6764339553713;-0.49981689453125;-0.0016204833984375;6.32999998401829;634;1 A
17.686433955346;-0.499847412109375;-0.00159912109375;6.33999998399304;635;1 A
17.6964339553208;-0.49981689453125;-0.0016021728515625;6.34999998396779;636;1 A
17.7064339552956;-0.49981689453125;-0.001605224609375;6.35999998394254;637;1 A
17.7164339552703;-0.49981689453125;-0.00160827636718749;6.3699999839173;638;1 A
17.7264339552451;-0.499786376953125;-0.001617431640625;6.37999998389205;639;1 A
17.7364339552198;-0.499786376953125;-0.001605224609375;6.3899999838668;640;1 A
17.7464339551946;-0.49981689453125;-0.00160827636718749;6.39999998384155;641;1 A
17.7564339551693;-0.499786376953125;-0.0016143798828125;6.40999998381631;642;1 A
17.7664339551441;-0.499786376953125;-0.00161132812500001;6.41999998379106;643;1 A
17.7764339551188;-0.49981689453125;-0.00162658691406251;6.42999998376581;644;1 A
17.7864339550936;-0.499847412109375;-0.00161132812500001;6.43999998374056;645;1 A
17.7964339550683;-0.49981689453125;-0.00162353515624999;6.44999998371532;646;1 A
17.8064339550431;-0.499847412109375;-0.00162658691406251;6.45999998369007;647;1 A
17.8164339550178;-0.49981689453125;-0.001617431640625;6.46999998366482;648;1 A
17.8264339549926;-0.499786376953125;-0.00162353515624999;6.47999998363957;649;1 A
17.8364339549673;-0.499847412109375;-0.0016143798828125;6.48999998361433;650;1 A
17.8464339549421;-0.49981689453125;-0.0016143798828125;6.49999998358908;651;1 A
17.8564339549168;-0.49981689453125;-0.0016204833984375;6.50999998356383;652;1 A
17.8664339548916;-0.499755859375;-0.0016143798828125;6.51999998353858;653;1 A
17.8764339548663;-0.499786376953125;-0.00162353515624999;6.52999998351333;654;1 A
17.8864339548411;-0.49981689453125;-0.0016143798828125;6.53999998348809;655;1 A
17.8964339548158;-0.499847412109375;-0.001617431640625;6.54999998346284;656;1 A
17.9064339547906;-0.499847412109375;-0.001629638671875;6.55999998343759;657;1 A
17.9164339547654;-0.499847412109375;-0.00162658691406251;6.56999998341234;658;1 A
17.9264339547401;-0.49981689453125;-0.0016357421875;6.5799999833871;659;1 A
17.9364339547149;-0.499786376953125;-0.001617431640625;6.58999998336185;660;1 A
17.9464339546896;-0.499786376953125;-0.00162658691406251;6.5999999833366;661;1 A
17.9564339546644;-0.499786376953125;-0.001629638671875;6.60999998331135;662;1 A
17.9664339546391;-0.499847412109375;-0.00162353515624999;6.61999998328611;663;1 A
17.9764339546139;-0.499786376953125;-0.0016326904296875;6.62999998326086;664;1 A
17.9864339545886;-0.499786376953125;-0.0016204833984375;6.63999998323561;665;1 A
17.9964339545634;-0.49981689453125;-0.001629638671875;6.64999998321036;666;1 A
18.0064339545381;-0.49981689453125;-0.0016357421875;6.65999998318512;667;1 A
18.0164339545129;-0.49981689453125;-0.0016326904296875;6.66999998315987;668;1 A
18.0264339544876;-0.49981689453125;-0.0016326904296875;6.67999998313462;669;1 A
18.0364339544624;-0.499755859375;-0.001629638671875;6.68999998310937;670;1 A
18.0464339544371;-0.49981689453125;-0.0016326904296875;6.69999998308413;671;1 A
18.0564339544119;-0.499755859375;-0.00163879394531249;6.70999998305888;672;1 A
18.0664339543866;-0.499847412109375;-0.0016326904296875;6.71999998303363;673;1 A
18.0764339543614;-0.499786376953125;-0.00163879394531249;6.72999998300838;674;1 A
18.0864339543361;-0.49981689453125;-0.00162658691406251;6.73999998298314;675;1 A
18.0964339543109;-0.499755859375;-0.0016326904296875;6.74999998295789;676;1 A
18.1064339542856;-0.499786376953125;-0.0016326904296875;6.75999998293264;677;1 A
18.1164339542604;-0.49981689453125;-0.0016326904296875;6.76999998290739;678;1 A
18.1264339542352;-0.49981689453125;-0.00163879394531249;6.77999998288215;679;1 A
18.1364339542099;-0.49981689453125;-0.001629638671875;6.7899999828569;680;1 A
18.1464339541847;-0.499755859375;-0.0016357421875;6.79999998283165;681;1 A
18.1564339541594;-0.499847412109375;-0.00164184570312501;6.8099999828064;682;1 A
18.1664339541342;-0.499755859375;-0.0016357421875;6.81999998278116;683;1 A
18.1764339541089;-0.499755859375;-0.00164794921875;6.82999998275591;684;1 A
18.1864339540837;-0.499786376953125;-0.001629638671875;6.83999998273066;685;1 A
18.1964339540584;-0.499847412109375;-0.00163879394531249;6.84999998270541;686;1 A
18.2064339540332;-0.499786376953125;-0.00163879394531249;6.85999998268016;687;1 A
18.2164339540079;-0.49981689453125;-0.00164184570312501;6.86999998265492;688;1 A
18.2264339539827;-0.499786376953125;-0.00164794921875;6.87999998262967;689;1 A
18.2364339539574;-0.499725341796875;-0.00163879394531249;6.88999998260442;690;1 A
18.2464339539322;-0.49981689453125;-0.00164184570312501;6.89999998257917;691;1 A
18.2564339539069;-0.499847412109375;-0.00164794921875;6.90999998255393;692;1 A
18.2664339538817;-0.499725341796875;-0.00163879394531249;6.91999998252868;693;1 A
18.2764339538564;-0.499786376953125;-0.00164794921875;6.92999998250343;694;1 A
18.2864339538312;-0.499847412109375;-0.00163879394531249;6.93999998247818;695;1 A
18.2964339538059;-0.49981689453125;-0.00164184570312501;6.94999998245294;696;1 A
18.3064339537807;-0.49981689453125;-0.00164184570312501;6.95999998242769;697;1 A
18.3164339537554;-0.499786376953125;-0.0016326904296875;6.96999998240244;698;1 A
18.3264339537302;-0.49981689453125;-0.00163879394531249;6.97999998237719;699;1 A
18.336433953705;-0.49981689453125;-0.001629638671875;6.98999998235195;700;1 A
18.3464339536797;-0.49981689453125;-0.0016326904296875;6.9999999823267;701;1 A
18.3564339536545;-0.499847412109375;-0.00163879394531249;7.00999998230145;702;1 A
18.3664339536292;-0.499725341796875;-0.00163879394531249;7.0199999822762;703;1 A
18.376433953604;-0.499786376953125;-0.00164184570312501;7.02999998225096;704;1 A
18.3864339535787;-0.499786376953125;-0.001629638671875;7.03999998222571;705;1 A
18.3964339535535;-0.499755859375;-0.0016357421875;7.04999998220046;706;1 A
18.4064339535282;-0.499755859375;-0.0016448974609375;7.05999998217521;707;1 A
18.416433953503;-0.499847412109375;-0.00164184570312501;7.06999998214997;708;1 A
18.4264339534777;-0.49981689453125;-0.00163879394531249;7.07999998212472;709;1 A
18.4364339534525;-0.499847412109375;-0.0016357421875;7.08999998209947;710;1 A
18.4464339534272;-0.499755859375;-0.00164184570312501;7.09999998207422;711;1 A
18.456433953402;-0.49981689453125;-0.00164184570312501;7.10999998204898;712;1 A
18.4664339533767;-0.49981689453125;-0.0016326904296875;7.11999998202373;713;1 A
18.4764339533515;-0.499847412109375;-0.0016357421875;7.12999998199848;714;1 A
18.4864339533262;-0.499786376953125;-0.00162658691406251;7.13999998197323;715;1 A
18.496433953301;-0.499755859375;-0.0016326904296875;7.14999998194799;716;1 A
18.5064339532757;-0.499847412109375;-0.00164184570312501;7.15999998192274;717;1 A
18.5164339532505;-0.49981689453125;-0.0016326904296875;7.16999998189749;718;1 A
18.5264339532253;-0.49981689453125;-0.00163879394531249;7.17999998187224;719;1 A
18.5364339532;-0.499786376953125;-0.00162353515624999;7.189999981847;720;1 A
18.5464339531748;-0.49981689453125;-0.0016326904296875;7.19999998182175;721;1 A
18.5564339531495;-0.49981689453125;-0.0016326904296875;7.2099999817965;722;1 A
18.5664339531243;-0.499847412109375;-0.001629638671875;7.21999998177125;723;1 A
18.576433953099;-0.4998779296875;-0.0016357421875;7.229999981746;724;1 A
18.5864339530738;-0.499786376953125;-0.00162658691406251;7.23999998172076;725;1 A
18.5964339530485;-0.499786376953125;-0.001629638671875;7.24999998169551;726;1 A
18.6064339530233;-0.499786376953125;-0.00162658691406251;7.25999998167026;727;1 A
18.616433952998;-0.499847412109375;-0.001629638671875;7.26999998164501;728;1 A
18.6264339529728;-0.499786376953125;-0.0016326904296875;7.27999998161977;729;1 A
18.6364339529475;-0.499786376953125;-0.00162353515624999;7.28999998159452;730;1 A
18.6464339529223;-0.49981689453125;-0.001629638671875;7.29999998156927;731;1 A
18.656433952897;-0.4998779296875;-0.0016326904296875;7.30999998154402;732;1 A
18.6664339528718;-0.49981689453125;-0.001629638671875;7.31999998151878;733;1 A
18.6764339528465;-0.499847412109375;-0.00163879394531249;7.32999998149353;734;1 A
18.6864339528213;-0.499786376953125;-0.00162658691406251;7.33999998146828;735;1 A
18.696433952796;-0.499755859375;-0.0016357421875;7.34999998144303;736;1 A
18.7064339527708;-0.49981689453125;-0.00163879394531249;7.35999998141779;737;1 A
18.7164339527455;-0.499755859375;-0.0016357421875;7.36999998139254;738;1 A
18.7264339527203;-0.49981689453125;-0.00163879394531249;7.37999998136729;739;1 A
18.7364339526951;-0.499786376953125;-0.001629638671875;7.38999998134204;740;1 A
18.7464339526698;-0.499786376953125;-0.0016357421875;7.3999999813168;741;1 A
18.7564339526446;-0.49981689453125;-0.00163879394531249;7.40999998129155;742;1 A
18.7664339526193;-0.499786376953125;-0.0016326904296875;7.4199999812663;743;1 A
18.7764339525941;-0.49981689453125;-0.00164184570312501;7.42999998124105;744;1 A
18.7864339525688;-0.49981689453125;-0.00162658691406251;7.43999998121581;745;1 A
18.7964339525436;-0.499847412109375;-0.001629638671875;7.44999998119056;746;1 A
18.8064339525183;-0.49981689453125;-0.0016357421875;7.45999998116531;747;1 A
18.8164339524931;-0.499786376953125;-0.001629638671875;7.46999998114006;748;1 A
18.8264339524678;-0.499786376953125;-0.0016326904296875;7.47999998111482;749;1 A
18.8364339524426;-0.49981689453125;-0.00162353515624999;7.48999998108957;750;1 A
18.8464339524173;-0.499755859375;-0.00162658691406251;7.49999998106432;751;1 A
18.8564339523921;-0.499786376953125;-0.001629638671875;7.50999998103907;752;1 A
18.8664339523668;-0.49981689453125;-0.00162353515624999;7.51999998101383;753;1 A
18.8764339523416;-0.499755859375;-0.0016326904296875;7.52999998098858;754;1 A
18.8864339523163;-0.499786376953125;-0.00162353515624999;7.53999998096333;755;1 A
18.8964339522911;-0.499786376953125;-0.00162353515624999;7.54999998093808;756;1 A
18.9064339522658;-0.49981689453125;-0.00162658691406251;7.55999998091283;757;1 A
18.9164339522406;-0.49981689453125;-0.00162658691406251;7.56999998088759;758;1 A
18.9264339522153;-0.499786376953125;-0.0016357421875;7.57999998086234;759;1 A
18.9364339521901;-0.499786376953125;-0.00162658691406251;7.58999998083709;760;1 A
18.9464339521649;-0.49981689453125;-0.0016357421875;7.59999998081184;761;1 A
18.9564339521396;-0.499755859375;-0.00163879394531249;7.6099999807866;762;1 A
18.9664339521144;-0.499847412109375;-0.0016326904296875;7.61999998076135;763;1 A
18.9764339520891;-0.499847412109375;-0.00163879394531249;7.6299999807361;764;1 A
18.9864339520639;-0.4998779296875;-0.001629638671875;7.63999998071085;765;1 A
18.9964339520386;-0.499755859375;-0.0016326904296875;7.64999998068561;766;1 A
19.0064339520134;-0.49981689453125;-0.0016357421875;7.65999998066036;767;1 A
19.0164339519881;-0.49981689453125;-0.00162658691406251;7.66999998063511;768;1 A
19.0264339519629;-0.49981689453125;-0.0016326904296875;7.67999998060986;769;1 A
19.0364339519376;-0.499786376953125;-0.001617431640625;7.68999998058462;770;1 A
19.0464339519124;-0.499847412109375;-0.00162658691406251;7.69999998055937;771;1 A
19.0564339518871;-0.49981689453125;-0.0016326904296875;7.70999998053412;772;1 A
19.0664339518619;-0.499847412109375;-0.00162353515624999;7.71999998050887;773;1 A
19.0764339518366;-0.499847412109375;-0.00162658691406251;7.72999998048363;774;1 A
19.0864339518114;-0.49981689453125;-0.0016204833984375;7.73999998045838;775;1 A
19.0964339517861;-0.499786376953125;-0.00162658691406251;7.74999998043313;776;1 A
19.1064339517609;-0.49981689453125;-0.00162658691406251;7.75999998040788;777;1 A
19.1164339517356;-0.499755859375;-0.00162353515624999;7.76999998038264;778;1 A
19.1264339517104;-0.499786376953125;-0.0016326904296875;7.77999998035739;779;1 A
19.1364339516851;-0.49981689453125;-0.00162353515624999;7.78999998033214;780;1 A
19.1464339516599;-0.499786376953125;-0.00162658691406251;7.79999998030689;781;1 A
19.1564339516347;-0.499725341796875;-0.001629638671875;7.80999998028165;782;1 A
19.1664339516094;-0.49981689453125;-0.0016204833984375;7.8199999802564;783;1 A
19.1764339515842;-0.499786376953125;-0.0016326904296875;7.82999998023115;784;1 A
19.1864339515589;-0.49981689453125;-0.0016204833984375;7.8399999802059;785;1 A
19.1964339515337;-0.49981689453125;-0.001629638671875;7.84999998018066;786;1 A
19.2064339515084;-0.499755859375;-0.0016326904296875;7.85999998015541;787;1 A
19.2164339514832;-0.499786376953125;-0.001629638671875;7.86999998013016;788;1 A
19.2264339514579;-0.499786376953125;-0.0016357421875;7.87999998010491;789;1 A
19.2364339514327;-0.49981689453125;-0.00162658691406251;7.88999998007966;790;1 A
19.2464339514074;-0.499786376953125;-0.0016326904296875;7.89999998005442;791;1 A
19.2564339513822;-0.49981689453125;-0.001629638671875;7.90999998002917;792;1 A
19.2664339513569;-0.49981689453125;-0.001629638671875;7.91999998000392;793;1 A
19.2764339513317;-0.499847412109375;-0.001629638671875;7.92999997997867;794;1 A
19.2864339513064;-0.499786376953125;-0.001617431640625;7.93999997995343;795;1 A
19.2964339512812;-0.49981689453125;-0.0016204833984375;7.94999997992818;796;1 A
19.3064339512559;-0.49981689453125;-0.001617431640625;7.95999997990293;797;1 A
19.3164339512307;-0.499847412109375;-0.0016143798828125;7.96999997987768;798;1 A
19.3264339512054;-0.499755859375;-0.00162353515624999;7.97999997985244;799;1 A
19.3364339511802;-0.499786376953125;-0.0016143798828125;7.98999997982719;800;1 A
19.3464339511549;-0.499786376953125;-0.0016204833984375;7.99999997980194;801;1 A
19.3564339511297;-0.49981689453125;-0.00162658691406251;8.00999997977669;802;1 A
19.3664339511045;-0.499786376953125;-0.00162658691406251;8.01999997975145;803;1 A
19.3764339510792;-0.499786376953125;-0.0016357421875;8.0299999797262;804;1 A
19.386433951054;-0.49981689453125;-0.001617431640625;8.03999997970095;805;1 A
19.3964339510287;-0.499786376953125;-0.00162658691406251;8.0499999796757;806;1 A
19.4064339510035;-0.499847412109375;-0.00162658691406251;8.05999997965046;807;1 A
19.4164339509782;-0.49981689453125;-0.0016204833984375;8.06999997962521;808;1 A
19.426433950953;-0.499786376953125;-0.001629638671875;8.07999997959996;809;1 A
19.4364339509277;-0.49981689453125;-0.001617431640625;8.08999997957471;810;1 A
19.4464339509025;-0.49981689453125;-0.00162658691406251;8.09999997954947;811;1 A
19.4564339508772;-0.499786376953125;-0.00162658691406251;8.10999997952422;812;1 A
19.466433950852;-0.499786376953125;-0.0016143798828125;8.11999997949897;813;1 A
19.4764339508267;-0.49981689453125;-0.00162658691406251;8.12999997947372;814;1 A
19.4864339508015;-0.499755859375;-0.001617431640625;8.13999997944848;815;1 A
19.4964339507762;-0.499786376953125;-0.00162353515624999;8.14999997942323;816;1 A
19.506433950751;-0.499786376953125;-0.00162353515624999;8.15999997939798;817;1 A
19.5164339507257;-0.49981689453125;-0.0016204833984375;8.16999997937273;818;1 A
19.5264339507005;-0.499755859375;-0.00162353515624999;8.17999997934749;819;1 A
19.5364339506752;-0.49981689453125;-0.00160827636718749;8.18999997932224;820;1 A
19.54643395065;-0.499786376953125;-0.0016143798828125;8.19999997929699;821;1 A
19.5564339506248;-0.499786376953125;-0.001617431640625;8.20999997927174;822;1 A
19.5664339505995;-0.499786376953125;-0.00160827636718749;8.2199999792465;823;1 A
19.5764339505743;-0.499755859375;-0.0016143798828125;8.22999997922125;824;1 A
19.586433950549;-0.499847412109375;-0.0016021728515625;8.239999979196;825;1 A
19.5964339505238;-0.499786376953125;-0.00160827636718749;8.24999997917075;826;1 A
19.6064339504985;-0.499786376953125;-0.0016204833984375;8.2599999791455;827;1 A
19.6164339504733;-0.499786376953125;-0.00160827636718749;8.26999997912026;828;1 A
19.626433950448;-0.499786376953125;-0.0016143798828125;8.27999997909501;829;1 A
19.6364339504228;-0.499755859375;-0.00160827636718749;8.28999997906976;830;1 A
19.6464339503975;-0.499786376953125;-0.00161132812500001;8.29999997904451;831;1 A
19.6564339503723;-0.499786376953125;-0.00161132812500001;8.30999997901927;832;1 A
19.666433950347;-0.499786376953125;-0.00160827636718749;8.31999997899402;833;1 A
19.6764339503218;-0.499725341796875;-0.001617431640625;8.32999997896877;834;1 A
19.6864339502965;-0.499755859375;-0.001605224609375;8.33999997894352;835;1 A
19.6964339502713;-0.499786376953125;-0.00161132812500001;8.34999997891828;836;1 A
19.706433950246;-0.499786376953125;-0.00161132812500001;8.35999997889303;837;1 A
19.7164339502208;-0.499847412109375;-0.00160827636718749;8.36999997886778;838;1 A
19.7264339501955;-0.49981689453125;-0.00161132812500001;8.37999997884253;839;1 A
19.7364339501703;-0.49981689453125;-0.0016021728515625;8.38999997881729;840;1 A
19.746433950145;-0.49981689453125;-0.00160827636718749;8.39999997879204;841;1 A
19.7564339501198;-0.49981689453125;-0.001605224609375;8.40999997876679;842;1 A
19.7664339500946;-0.499755859375;-0.001605224609375;8.41999997874154;843;1 A
19.7764339500693;-0.499755859375;-0.00161132812500001;8.4299999787163;844;1 A
19.7864339500441;-0.499755859375;-0.00159301757812499;8.43999997869105;845;1 A
19.7964339500188;-0.499755859375;-0.00159912109375;8.4499999786658;846;1 A
19.8064339499936;-0.499755859375;-0.0016021728515625;8.45999997864055;847;1 A
19.8164339499683;-0.499786376953125;-0.00159606933593751;8.46999997861531;848;1 A
19.8264339499431;-0.49981689453125;-0.001605224609375;8.47999997859006;849;1 A
19.8364339499178;-0.49981689453125;-0.00159606933593751;8.48999997856481;850;1 A
19.8464339498926;-0.499755859375;-0.00160827636718749;8.49999997853956;851;1 A
19.8564339498673;-0.499786376953125;-0.0016143798828125;8.50999997851432;852;1 A
19.8664339498421;-0.499786376953125;-0.001605224609375;8.51999997848907;853;1 A
19.8764339498168;-0.499847412109375;-0.00161132812500001;8.52999997846382;854;1 A
19.8864339497916;-0.49981689453125;-0.0016021728515625;8.53999997843857;855;1 A
19.8964339497663;-0.499786376953125;-0.00160827636718749;8.54999997841333;856;1 A
19.9064339497411;-0.49981689453125;-0.001605224609375;8.55999997838808;857;1 A
19.9164339497158;-0.499786376953125;-0.0016021728515625;8.56999997836283;858;1 A
19.9264339496906;-0.4998779296875;-0.00160827636718749;8.57999997833758;859;1 A
19.9364339496653;-0.499847412109375;-0.0016021728515625;8.58999997831233;860;1 A
19.9464339496401;-0.499755859375;-0.00160827636718749;8.59999997828709;861;1 A
19.9564339496148;-0.499786376953125;-0.00161132812500001;8.60999997826184;862;1 A
19.9664339495896;-0.4998779296875;-0.001605224609375;8.61999997823659;863;1 A
19.9764339495644;-0.499786376953125;-0.00160827636718749;8.62999997821134;864;1 A
19.9864339495391;-0.49981689453125;-0.0016021728515625;8.6399999781861;865;1 A
19.9964339495139;-0.499755859375;-0.00161132812500001;8.64999997816085;866;1 A
20.0064339494886;-0.4998779296875;-0.00160827636718749;8.6599999781356;867;1 A
20.0164339494634;-0.4998779296875;-0.0016021728515625;8.66999997811035;868;1 A
20.0264339494381;-0.499786376953125;-0.00159912109375;8.67999997808511;869;1 A
20.0364339494129;-0.49981689453125;-0.00159606933593751;8.68999997805986;870;1 A
20.0464339493876;-0.499786376953125;-0.0016021728515625;8.69999997803461;871;1 A
20.0564339493624;-0.499786376953125;-0.00159912109375;8.70999997800936;872;1 A
20.0664339493371;-0.49981689453125;-0.00159912109375;8.71999997798412;873;1 A
20.0764339493119;-0.499786376953125;-0.001605224609375;8.72999997795887;874;1 A
20.0864339492866;-0.499847412109375;-0.0016021728515625;8.73999997793362;875;1 A
20.0964339492614;-0.499786376953125;-0.001605224609375;8.74999997790837;876;1 A
20.1064339492361;-0.499786376953125;-0.001605224609375;8.75999997788313;877;1 A
20.1164339492109;-0.499786376953125;-0.001605224609375;8.76999997785788;878;1 A
20.1264339491856;-0.499786376953125;-0.00160827636718749;8.77999997783263;879;1 A
20.1364339491604;-0.49981689453125;-0.0016021728515625;8.78999997780738;880;1 A
20.1464339491351;-0.499786376953125;-0.00160827636718749;8.79999997778214;881;1 A
20.1564339491099;-0.499786376953125;-0.001605224609375;8.80999997775689;882;1 A
20.1664339490846;-0.499786376953125;-0.0016021728515625;8.81999997773164;883;1 A
20.1764339490594;-0.499847412109375;-0.00161132812500001;8.82999997770639;884;1 A
20.1864339490342;-0.499755859375;-0.00159912109375;8.83999997768115;885;1 A
20.1964339490089;-0.499725341796875;-0.00160827636718749;8.8499999776559;886;1 A
20.2064339489837;-0.499755859375;-0.001605224609375;8.85999997763065;887;1 A
20.2164339489584;-0.499847412109375;-0.0016021728515625;8.8699999776054;888;1 A
20.2264339489332;-0.49981689453125;-0.0016021728515625;8.87999997758016;889;1 A
20.2364339489079;-0.49981689453125;-0.0015869140625;8.88999997755491;890;1 A
20.2464339488827;-0.49981689453125;-0.001605224609375;8.89999997752966;891;1 A
20.2564339488574;-0.499786376953125;-0.00160827636718749;8.90999997750441;892;1 A
20.2664339488322;-0.49981689453125;-0.0016021728515625;8.91999997747916;893;1 A
20.2764339488069;-0.49981689453125;-0.00160827636718749;8.92999997745392;894;1 A
20.2864339487817;-0.499755859375;-0.0016021728515625;8.93999997742867;895;1 A
20.2964339487564;-0.499786376953125;-0.001605224609375;8.94999997740342;896;1 A
20.3064339487312;-0.499786376953125;-0.001605224609375;8.95999997737817;897;1 A
20.3164339487059;-0.49981689453125;-0.0016021728515625;8.96999997735293;898;1 A
20.3264339486807;-0.499786376953125;-0.00161132812500001;8.97999997732768;899;1 A
20.3364339486554;-0.499786376953125;-0.0016021728515625;8.98999997730243;900;1 A
20.3464339486302;-0.49981689453125;-0.0016143798828125;8.99999997727718;901;1 A
20.3564339486049;-0.499786376953125;-0.001617431640625;9.00999997725194;902;1 A
20.3664339485797;-0.499786376953125;-0.00160827636718749;9.01999997722669;903;1 A
20.3764339485544;-0.49981689453125;-0.001617431640625;9.02999997720144;904;1 A
20.3864339485292;-0.499786376953125;-0.00160827636718749;9.03999997717619;905;1 A
20.396433948504;-0.49981689453125;-0.001629638671875;9.04999997715095;906;1 A
20.4064339484787;-0.499847412109375;-0.0016204833984375;9.0599999771257;907;1 A
20.4164339484535;-0.499786376953125;-0.0016143798828125;9.06999997710045;908;1 A
20.4264339484282;-0.499908447265625;-0.0016204833984375;9.0799999770752;909;1 A
20.436433948403;-0.499755859375;-0.00160827636718749;9.08999997704996;910;1 A
20.4464339483777;-0.499786376953125;-0.001617431640625;9.09999997702471;911;1 A
20.4564339483525;-0.499755859375;-0.001617431640625;9.10999997699946;912;1 A
20.4664339483272;-0.499786376953125;-0.001617431640625;9.11999997697421;913;1 A
20.476433948302;-0.499725341796875;-0.00162658691406251;9.12999997694897;914;1 A
20.4864339482767;-0.499786376953125;-0.00160827636718749;9.13999997692372;915;1 A
20.4964339482515;-0.499786376953125;-0.001617431640625;9.14999997689847;916;1 A
20.5064339482262;-0.49981689453125;-0.0016143798828125;9.15999997687322;917;1 A
20.516433948201;-0.499755859375;-0.00161132812500001;9.16999997684798;918;1 A
20.5264339481757;-0.499786376953125;-0.001617431640625;9.17999997682273;919;1 A
20.5364339481505;-0.499847412109375;-0.00161132812500001;9.18999997679748;920;1 A
20.5464339481252;-0.49981689453125;-0.0016204833984375;9.19999997677223;921;1 A
20.5564339481;-0.499847412109375;-0.001617431640625;9.20999997674699;922;1 A
20.5664339480747;-0.49981689453125;-0.0016143798828125;9.21999997672174;923;1 A
20.5764339480495;-0.499786376953125;-0.00162353515624999;9.22999997669649;924;1 A
20.5864339480243;-0.499786376953125;-0.00160827636718749;9.23999997667124;925;1 A
20.596433947999;-0.499847412109375;-0.00162353515624999;9.249999976646;926;1 A
20.6064339479738;-0.499786376953125;-0.001617431640625;9.25999997662075;927;1 A
20.6164339479485;-0.499847412109375;-0.0016143798828125;9.2699999765955;928;1 A
20.6264339479233;-0.499786376953125;-0.0016204833984375;9.27999997657025;929;1 A
20.636433947898;-0.499786376953125;-0.00161132812500001;9.289999976545;930;1 A
20.6464339478728;-0.499786376953125;-0.00162353515624999;9.29999997651976;931;1 A
20.6564339478475;-0.499725341796875;-0.00162353515624999;9.30999997649451;932;1 A
20.6664339478223;-0.499786376953125;-0.0016143798828125;9.31999997646926;933;1 A
20.676433947797;-0.499786376953125;-0.00162353515624999;9.32999997644401;934;1 A
20.6864339477718;-0.499725341796875;-0.0016143798828125;9.33999997641877;935;1 A
20.6964339477465;-0.499786376953125;-0.0016204833984375;9.34999997639352;936;1 A
20.7064339477213;-0.499725341796875;-0.001617431640625;9.35999997636827;937;1 A
20.716433947696;-0.49981689453125;-0.00161132812500001;9.36999997634302;938;1 A
20.7264339476708;-0.499725341796875;-0.0016143798828125;9.37999997631778;939;1 A
20.7364339476455;-0.499755859375;-0.00160827636718749;9.38999997629253;940;1 A
20.7464339476203;-0.499786376953125;-0.0016143798828125;9.39999997626728;941;1 A
20.756433947595;-0.499786376953125;-0.0016143798828125;9.40999997624203;942;1 A
20.7664339475698;-0.499786376953125;-0.00161132812500001;9.41999997621679;943;1 A
20.7764339475445;-0.499847412109375;-0.0016143798828125;9.42999997619154;944;1 A
20.7864339475193;-0.49981689453125;-0.001605224609375;9.43999997616629;945;1 A
20.7964339474941;-0.49981689453125;-0.001617431640625;9.44999997614104;946;1 A
20.8064339474688;-0.499755859375;-0.001617431640625;9.4599999761158;947;1 A
20.8164339474436;-0.49981689453125;-0.0016143798828125;9.46999997609055;948;1 A
20.8264339474183;-0.499786376953125;-0.0016204833984375;9.4799999760653;949;1 A
20.8364339473931;-0.499755859375;-0.001605224609375;9.48999997604005;950;1 A
20.8464339473678;-0.499786376953125;-0.0016204833984375;9.49999997601481;951;1 A
20.8564339473426;-0.499755859375;-0.001617431640625;9.50999997598956;952;1 A
20.8664339473173;-0.499847412109375;-0.0016143798828125;9.51999997596431;953;1 A
20.8764339472921;-0.499755859375;-0.00162658691406251;9.52999997593906;954;1 A
20.8864339472668;-0.499786376953125;-0.00161132812500001;9.53999997591382;955;1 A
20.8964339472416;-0.49981689453125;-0.00162353515624999;9.54999997588857;956;1 A
20.9064339472163;-0.49981689453125;-0.0016204833984375;9.55999997586332;957;1 A
20.9164339471911;-0.49981689453125;-0.0016143798828125;9.56999997583807;958;1 A
20.9264339471658;-0.49981689453125;-0.00162353515624999;9.57999997581283;959;1 A
20.9364339471406;-0.499786376953125;-0.00161132812500001;9.58999997578758;960;1 A
20.9464339471153;-0.499786376953125;-0.001617431640625;9.59999997576233;961;1 A
20.9564339470901;-0.499725341796875;-0.0016204833984375;9.60999997573708;962;1 A
20.9664339470648;-0.499847412109375;-0.00160827636718749;9.61999997571183;963;1 A
20.9764339470396;-0.49981689453125;-0.0016143798828125;9.62999997568659;964;1 A
20.9864339470143;-0.499755859375;-0.001605224609375;9.63999997566134;965;1 A
20.9964339469891;-0.499847412109375;-0.0016143798828125;9.64999997563609;966;1 A
21.0064339469639;-0.499786376953125;-0.0016143798828125;9.65999997561084;967;1 A
21.0164339469386;-0.49981689453125;-0.0016021728515625;9.6699999755856;968;1 A
21.0264339469134;-0.499847412109375;-0.00161132812500001;9.67999997556035;969;1 A
21.0364339468881;-0.499755859375;-0.001605224609375;9.6899999755351;970;1 A
21.0464339468629;-0.499786376953125;-0.0016143798828125;9.69999997550985;971;1 A
21.0564339468376;-0.499847412109375;-0.00161132812500001;9.70999997548461;972;1 A
21.0664339468124;-0.499847412109375;-0.00160827636718749;9.71999997545936;973;1 A
21.0764339467871;-0.49981689453125;-0.001617431640625;9.72999997543411;974;1 A
21.0864339467619;-0.49981689453125;-0.001605224609375;9.73999997540886;975;1 A
21.0964339467366;-0.499786376953125;-0.0016143798828125;9.74999997538362;976;1 A
21.1064339467114;-0.499786376953125;-0.0016143798828125;9.75999997535837;977;1 A
21.1164339466861;-0.49981689453125;-0.0016143798828125;9.76999997533312;978;1 A
21.1264339466609;-0.499847412109375;-0.0016204833984375;9.77999997530787;979;1 A
21.1364339466356;-0.499786376953125;-0.00160827636718749;9.78999997528263;980;1 A
21.1464339466104;-0.499755859375;-0.001617431640625;9.79999997525738;981;1 A
21.1564339465851;-0.499847412109375;-0.001617431640625;9.80999997523213;982;1 A
21.1664339465599;-0.499786376953125;-0.00161132812500001;9.81999997520688;983;1 A
21.1764339465346;-0.499755859375;-0.0016204833984375;9.82999997518164;984;1 A
21.1864339465094;-0.499786376953125;-0.001605224609375;9.83999997515639;985;1 A
21.1964339464841;-0.499786376953125;-0.001617431640625;9.84999997513114;986;1 A
21.2064339464589;-0.499786376953125;-0.0016143798828125;9.85999997510589;987;1 A
21.2164339464337;-0.499786376953125;-0.00160827636718749;9.86999997508065;988;1 A
21.2264339464084;-0.49981689453125;-0.00161132812500001;9.8799999750554;989;1 A
21.2364339463832;-0.49981689453125;-0.00159606933593751;9.88999997503015;990;1 A
21.2464339463579;-0.499786376953125;-0.00161132812500001;9.8999999750049;991;1 A
21.2564339463327;-0.499755859375;-0.00160827636718749;9.90999997497966;992;1 A
21.2664339463074;-0.49981689453125;-0.0016021728515625;9.91999997495441;993;1 A
21.2764339462822;-0.499847412109375;-0.001605224609375;9.92999997492916;994;1 A
21.2864339462569;-0.49981689453125;-0.0016021728515625;9.93999997490391;995;1 A
21.2964339462317;-0.499755859375;-0.00161132812500001;9.94999997487866;996;1 A
21.3064339462064;-0.49981689453125;-0.00161132812500001;9.95999997485342;997;1 A
21.3164339461812;-0.49981689453125;-0.0016021728515625;9.96999997482817;998;1 A
21.3264339461559;-0.49981689453125;-0.00161132812500001;9.97999997480292;999;1 A
21.3364339461307;-0.49981689453125;-0.00159606933593751;9.98999997477767;1000;1 A
