Time (s);WE(1).Potential (V);WE(1).Current (A);Corrected time (s);Index;Current range
23.0217369418757;-0.599761962890625;-0.008636474609375;0;1;1 A
23.0317369418505;-0.599761962890625;-0.006396484375;0.00999999997475243;2;1 A
23.0417369418252;-0.59979248046875;-0.0053253173828125;0.0199999999495049;3;1 A
23.0517369418;-0.5997314453125;-0.0046966552734375;0.0299999999242573;4;1 A
23.0617369417747;-0.599700927734375;-0.00423278808593749;0.0399999998990097;5;1 A
23.0717369417495;-0.5997314453125;-0.0039398193359375;0.0499999998737621;6;1 A
23.0817369417242;-0.5997314453125;-0.00368652343750001;0.0599999998485146;7;1 A
23.091736941699;-0.599700927734375;-0.0034912109375;0.069999999823267;8;1 A
23.1017369416737;-0.59967041015625;-0.0033416748046875;0.0799999997980194;9;1 A
23.1117369416485;-0.5997314453125;-0.00318603515625;0.0899999997727718;10;1 A
23.1217369416232;-0.5997314453125;-0.003094482421875;0.0999999997475243;11;1 A
23.131736941598;-0.5997314453125;-0.00299682617187499;0.109999999722277;12;1 A
23.1417369415727;-0.599761962890625;-0.00290832519531251;0.119999999697029;13;1 A
23.1517369415475;-0.5997314453125;-0.00284729003906251;0.129999999671782;14;1 A
23.1617369415222;-0.5997314453125;-0.0027618408203125;0.139999999646534;15;1 A
23.171736941497;-0.599761962890625;-0.00272521972656251;0.149999999621286;16;1 A
23.1817369414717;-0.59979248046875;-0.002667236328125;0.159999999596039;17;1 A
23.1917369414465;-0.599761962890625;-0.00261840820312501;0.169999999570791;18;1 A
23.2017369414212;-0.599761962890625;-0.00258789062500001;0.179999999545544;19;1 A
23.211736941396;-0.599761962890625;-0.00252685546875001;0.189999999520296;20;1 A
23.2217369413708;-0.599700927734375;-0.00250854492187499;0.199999999495049;21;1 A
23.2317369413455;-0.599761962890625;-0.0024749755859375;0.209999999469801;22;1 A
23.2417369413203;-0.599761962890625;-0.00242919921875;0.219999999444553;23;1 A
23.251736941295;-0.59979248046875;-0.0024078369140625;0.229999999419306;24;1 A
23.2617369412698;-0.599700927734375;-0.00235900878906251;0.239999999394058;25;1 A
23.2717369412445;-0.599761962890625;-0.00235595703124999;0.249999999368811;26;1 A
23.2817369412193;-0.5997314453125;-0.00232543945312499;0.259999999343563;27;1 A
23.291736941194;-0.599700927734375;-0.002301025390625;0.269999999318316;28;1 A
23.3017369411688;-0.599761962890625;-0.002288818359375;0.279999999293068;29;1 A
23.3117369411435;-0.599761962890625;-0.0022552490234375;0.28999999926782;30;1 A
23.3217369411183;-0.599761962890625;-0.00225219726562501;0.299999999242573;31;1 A
23.331736941093;-0.599761962890625;-0.0022308349609375;0.309999999217325;32;1 A
23.3417369410678;-0.599761962890625;-0.00220336914062499;0.319999999192078;33;1 A
23.3517369410425;-0.599700927734375;-0.0022003173828125;0.32999999916683;34;1 A
23.3617369410173;-0.59979248046875;-0.002166748046875;0.339999999141583;35;1 A
23.371736940992;-0.5997314453125;-0.0021697998046875;0.349999999116335;36;1 A
23.3817369409668;-0.59979248046875;-0.002154541015625;0.359999999091087;37;1 A
23.3917369409415;-0.599761962890625;-0.00213623046875;0.36999999906584;38;1 A
23.4017369409163;-0.5997314453125;-0.0021331787109375;0.379999999040592;39;1 A
23.411736940891;-0.5997314453125;-0.0021026611328125;0.389999999015345;40;1 A
23.4217369408658;-0.599761962890625;-0.00211181640624999;0.399999998990097;41;1 A
23.4317369408406;-0.59979248046875;-0.0021026611328125;0.40999999896485;42;1 A
23.4417369408153;-0.5997314453125;-0.00208740234375;0.419999998939602;43;1 A
23.4517369407901;-0.5997314453125;-0.0020904541015625;0.429999998914354;44;1 A
23.4617369407648;-0.5997314453125;-0.00205383300781251;0.439999998889107;45;1 A
23.4717369407396;-0.59979248046875;-0.00206298828125;0.449999998863859;46;1 A
23.4817369407143;-0.59979248046875;-0.00205383300781251;0.459999998838612;47;1 A
23.4917369406891;-0.599761962890625;-0.002032470703125;0.469999998813364;48;1 A
23.5017369406638;-0.59979248046875;-0.00203857421875001;0.479999998788116;49;1 A
23.5117369406386;-0.5997314453125;-0.00200500488281249;0.489999998762869;50;1 A
23.5217369406133;-0.599700927734375;-0.00201416015625;0.499999998737621;51;1 A
23.5317369405881;-0.5997314453125;-0.00200805664062501;0.509999998712374;52;1 A
23.5417369405628;-0.599700927734375;-0.00199279785156251;0.519999998687126;53;1 A
23.5517369405376;-0.59979248046875;-0.0019989013671875;0.529999998661879;54;1 A
23.5617369405123;-0.5997314453125;-0.00196533203125;0.539999998636631;55;1 A
23.5717369404871;-0.5997314453125;-0.00197753906250001;0.549999998611383;56;1 A
23.5817369404618;-0.599761962890625;-0.00196533203125;0.559999998586136;57;1 A
23.5917369404366;-0.599761962890625;-0.001953125;0.569999998560888;58;1 A
23.6017369404113;-0.5997314453125;-0.00195922851562499;0.579999998535641;59;1 A
23.6117369403861;-0.59979248046875;-0.00194091796875;0.589999998510393;60;1 A
23.6217369403608;-0.59979248046875;-0.00194702148437501;0.599999998485146;61;1 A
23.6317369403356;-0.5997314453125;-0.001934814453125;0.609999998459898;62;1 A
23.6417369403104;-0.599761962890625;-0.00192871093749999;0.61999999843465;63;1 A
23.6517369402851;-0.599700927734375;-0.001934814453125;0.629999998409403;64;1 A
23.6617369402599;-0.599761962890625;-0.001910400390625;0.639999998384155;65;1 A
23.6717369402346;-0.599761962890625;-0.0019256591796875;0.649999998358908;66;1 A
23.6817369402094;-0.599761962890625;-0.0019195556640625;0.65999999833366;67;1 A
23.6917369401841;-0.5997314453125;-0.00191650390625001;0.669999998308413;68;1 A
23.7017369401589;-0.5997314453125;-0.0019195556640625;0.679999998283165;69;1 A
23.7117369401336;-0.5997314453125;-0.0018890380859375;0.689999998257917;70;1 A
23.7217369401084;-0.5997314453125;-0.001904296875;0.69999999823267;71;1 A
23.7317369400831;-0.5997314453125;-0.00189208984375;0.709999998207422;72;1 A
23.7417369400579;-0.5997314453125;-0.0018798828125;0.719999998182175;73;1 A
23.7517369400326;-0.599700927734375;-0.0018890380859375;0.729999998156927;74;1 A
23.7617369400074;-0.5997314453125;-0.0018646240234375;0.73999999813168;75;1 A
23.7717369399821;-0.599822998046875;-0.0018768310546875;0.749999998106432;76;1 A
23.7817369399569;-0.599700927734375;-0.0018768310546875;0.759999998081184;77;1 A
23.7917369399316;-0.5997314453125;-0.0018646240234375;0.769999998055937;78;1 A
23.8017369399064;-0.5997314453125;-0.00187072753906251;0.779999998030689;79;1 A
23.8117369398811;-0.5997314453125;-0.0018463134765625;0.789999998005442;80;1 A
23.8217369398559;-0.5997314453125;-0.00185546875000001;0.799999997980194;81;1 A
23.8317369398306;-0.5997314453125;-0.00185546875000001;0.809999997954947;82;1 A
23.8417369398054;-0.5997314453125;-0.0018463134765625;0.819999997929699;83;1 A
23.8517369397802;-0.599761962890625;-0.00185546875000001;0.829999997904451;84;1 A
23.8617369397549;-0.599761962890625;-0.0018310546875;0.839999997879204;85;1 A
23.8717369397297;-0.599761962890625;-0.00184326171875;0.849999997853956;86;1 A
23.8817369397044;-0.5997314453125;-0.00184020996093751;0.859999997828709;87;1 A
23.8917369396792;-0.599761962890625;-0.0018341064453125;0.869999997803461;88;1 A
23.9017369396539;-0.59967041015625;-0.0018463134765625;0.879999997778214;89;1 A
23.9117369396287;-0.5997314453125;-0.00182495117187501;0.889999997752966;90;1 A
23.9217369396034;-0.599761962890625;-0.00183715820312499;0.899999997727718;91;1 A
23.9317369395782;-0.5997314453125;-0.00183715820312499;0.909999997702471;92;1 A
23.9417369395529;-0.59979248046875;-0.00182189941406249;0.919999997677223;93;1 A
23.9517369395277;-0.599700927734375;-0.0018280029296875;0.929999997651976;94;1 A
23.9617369395024;-0.599761962890625;-0.001800537109375;0.939999997626728;95;1 A
23.9717369394772;-0.599761962890625;-0.00182495117187501;0.949999997601481;96;1 A
23.9817369394519;-0.599761962890625;-0.00181884765625;0.959999997576233;97;1 A
23.9917369394267;-0.5997314453125;-0.00180664062499999;0.969999997550985;98;1 A
24.0017369394014;-0.5997314453125;-0.00181884765625;0.979999997525738;99;1 A
24.0117369393762;-0.599761962890625;-0.00179138183593749;0.98999999750049;100;1 A
24.0217369393509;-0.59979248046875;-0.0018035888671875;0.999999997475243;101;1 A
24.0317369393257;-0.5997314453125;-0.001800537109375;1.00999999745;102;1 A
24.0417369393004;-0.599761962890625;-0.00179138183593749;1.01999999742475;103;1 A
24.0517369392752;-0.59979248046875;-0.001800537109375;1.0299999973995;104;1 A
24.06173693925;-0.5997314453125;-0.00177917480468751;1.03999999737425;105;1 A
24.0717369392247;-0.5997314453125;-0.0017974853515625;1.049999997349;106;1 A
24.0817369391995;-0.599761962890625;-0.00179138183593749;1.05999999732376;107;1 A
24.0917369391742;-0.599761962890625;-0.00177612304687499;1.06999999729851;108;1 A
24.101736939149;-0.599761962890625;-0.00179443359375001;1.07999999727326;109;1 A
24.1117369391237;-0.599761962890625;-0.00176391601562501;1.08999999724801;110;1 A
24.1217369390985;-0.5997314453125;-0.00177917480468751;1.09999999722277;111;1 A
24.1317369390732;-0.599761962890625;-0.00177612304687499;1.10999999719752;112;1 A
24.141736939048;-0.5997314453125;-0.0017730712890625;1.11999999717227;113;1 A
24.1517369390227;-0.5997314453125;-0.00177917480468751;1.12999999714702;114;1 A
24.1617369389975;-0.599700927734375;-0.00176086425781249;1.13999999712178;115;1 A
24.1717369389722;-0.5997314453125;-0.0017730712890625;1.14999999709653;116;1 A
24.181736938947;-0.599761962890625;-0.00177001953125;1.15999999707128;117;1 A
24.1917369389217;-0.599761962890625;-0.00176086425781249;1.16999999704603;118;1 A
24.2017369388965;-0.5997314453125;-0.00177001953125;1.17999999702079;119;1 A
24.2117369388712;-0.599700927734375;-0.00174560546874999;1.18999999699554;120;1 A
24.221736938846;-0.599761962890625;-0.00176391601562501;1.19999999697029;121;1 A
24.2317369388207;-0.59979248046875;-0.0017578125;1.20999999694504;122;1 A
24.2417369387955;-0.599761962890625;-0.001751708984375;1.2199999969198;123;1 A
24.2517369387703;-0.599761962890625;-0.00176391601562501;1.22999999689455;124;1 A
24.261736938745;-0.5997314453125;-0.0017364501953125;1.2399999968693;125;1 A
24.2717369387198;-0.599761962890625;-0.001751708984375;1.24999999684405;126;1 A
24.2817369386945;-0.599761962890625;-0.0017425537109375;1.25999999681881;127;1 A
24.2917369386693;-0.59979248046875;-0.0017364501953125;1.26999999679356;128;1 A
24.301736938644;-0.59979248046875;-0.00174560546874999;1.27999999676831;129;1 A
24.3117369386188;-0.599761962890625;-0.001727294921875;1.28999999674306;130;1 A
24.3217369385935;-0.5997314453125;-0.00174560546874999;1.29999999671782;131;1 A
24.3317369385683;-0.599761962890625;-0.001739501953125;1.30999999669257;132;1 A
24.341736938543;-0.599761962890625;-0.00173339843750001;1.31999999666732;133;1 A
24.3517369385178;-0.5997314453125;-0.00174560546874999;1.32999999664207;134;1 A
24.3617369384925;-0.59979248046875;-0.00171813964843751;1.33999999661683;135;1 A
24.3717369384673;-0.5997314453125;-0.0017364501953125;1.34999999659158;136;1 A
24.381736938442;-0.599761962890625;-0.00173034667968749;1.35999999656633;137;1 A
24.3917369384168;-0.599700927734375;-0.0017364501953125;1.36999999654108;138;1 A
24.4017369383915;-0.59979248046875;-0.001739501953125;1.37999999651583;139;1 A
24.4117369383663;-0.599761962890625;-0.0017120361328125;1.38999999649059;140;1 A
24.421736938341;-0.599761962890625;-0.00173034667968749;1.39999999646534;141;1 A
24.4317369383158;-0.599822998046875;-0.001727294921875;1.40999999644009;142;1 A
24.4417369382905;-0.599700927734375;-0.00171813964843751;1.41999999641484;143;1 A
24.4517369382653;-0.5997314453125;-0.0017242431640625;1.4299999963896;144;1 A
24.4617369382401;-0.5997314453125;-0.001708984375;1.43999999636435;145;1 A
24.4717369382148;-0.599761962890625;-0.00172119140625;1.4499999963391;146;1 A
24.4817369381896;-0.599761962890625;-0.00171813964843751;1.45999999631385;147;1 A
24.4917369381643;-0.5997314453125;-0.00171508789062499;1.46999999628861;148;1 A
24.5017369381391;-0.599761962890625;-0.00171813964843751;1.47999999626336;149;1 A
24.5117369381138;-0.599761962890625;-0.00169982910156249;1.48999999623811;150;1 A
24.5217369380886;-0.59979248046875;-0.00171508789062499;1.49999999621286;151;1 A
24.5317369380633;-0.599700927734375;-0.0017120361328125;1.50999999618762;152;1 A
24.5417369380381;-0.599761962890625;-0.00170288085937501;1.51999999616237;153;1 A
24.5517369380128;-0.599761962890625;-0.0017120361328125;1.52999999613712;154;1 A
24.5617369379876;-0.5997314453125;-0.001690673828125;1.53999999611187;155;1 A
24.5717369379623;-0.599700927734375;-0.00170288085937501;1.54999999608663;156;1 A
24.5817369379371;-0.5997314453125;-0.00169982910156249;1.55999999606138;157;1 A
24.5917369379118;-0.599700927734375;-0.00169677734375;1.56999999603613;158;1 A
24.6017369378866;-0.599761962890625;-0.00170288085937501;1.57999999601088;159;1 A
24.6117369378613;-0.599761962890625;-0.00168457031249999;1.58999999598564;160;1 A
24.6217369378361;-0.5997314453125;-0.0017059326171875;1.59999999596039;161;1 A
24.6317369378108;-0.599700927734375;-0.00170288085937501;1.60999999593514;162;1 A
24.6417369377856;-0.5997314453125;-0.001690673828125;1.61999999590989;163;1 A
24.6517369377603;-0.59979248046875;-0.00170288085937501;1.62999999588465;164;1 A
24.6617369377351;-0.5997314453125;-0.00168457031249999;1.6399999958594;165;1 A
24.6717369377099;-0.5997314453125;-0.00169982910156249;1.64999999583415;166;1 A
24.6817369376846;-0.599700927734375;-0.001690673828125;1.6599999958089;167;1 A
24.6917369376594;-0.599761962890625;-0.001690673828125;1.66999999578366;168;1 A
24.7017369376341;-0.599761962890625;-0.0016937255859375;1.67999999575841;169;1 A
24.7117369376089;-0.5997314453125;-0.0016754150390625;1.68999999573316;170;1 A
24.7217369375836;-0.5997314453125;-0.00169677734375;1.69999999570791;171;1 A
24.7317369375584;-0.5997314453125;-0.00168762207031251;1.70999999568267;172;1 A
24.7417369375331;-0.59979248046875;-0.00168457031249999;1.71999999565742;173;1 A
24.7517369375079;-0.599822998046875;-0.0016937255859375;1.72999999563217;174;1 A
24.7617369374826;-0.599761962890625;-0.001678466796875;1.73999999560692;175;1 A
24.7717369374574;-0.599700927734375;-0.001690673828125;1.74999999558167;176;1 A
24.7817369374321;-0.5997314453125;-0.00168457031249999;1.75999999555643;177;1 A
24.7917369374069;-0.59979248046875;-0.0016815185546875;1.76999999553118;178;1 A
24.8017369373816;-0.5997314453125;-0.00168762207031251;1.77999999550593;179;1 A
24.8117369373564;-0.599761962890625;-0.001666259765625;1.78999999548068;180;1 A
24.8217369373311;-0.599761962890625;-0.0016815185546875;1.79999999545544;181;1 A
24.8317369373059;-0.59979248046875;-0.001678466796875;1.80999999543019;182;1 A
24.8417369372806;-0.599761962890625;-0.00166931152343749;1.81999999540494;183;1 A
24.8517369372554;-0.599761962890625;-0.0016815185546875;1.82999999537969;184;1 A
24.8617369372301;-0.5997314453125;-0.0016632080078125;1.83999999535445;185;1 A
24.8717369372049;-0.5997314453125;-0.001678466796875;1.8499999953292;186;1 A
24.8817369371797;-0.599700927734375;-0.001678466796875;1.85999999530395;187;1 A
24.8917369371544;-0.59979248046875;-0.00167236328125001;1.8699999952787;188;1 A
24.9017369371292;-0.5997314453125;-0.00168457031249999;1.87999999525346;189;1 A
24.9117369371039;-0.5997314453125;-0.0016632080078125;1.88999999522821;190;1 A
24.9217369370787;-0.5997314453125;-0.00168457031249999;1.89999999520296;191;1 A
24.9317369370534;-0.599761962890625;-0.0016754150390625;1.90999999517771;192;1 A
24.9417369370282;-0.59967041015625;-0.00166931152343749;1.91999999515247;193;1 A
24.9517369370029;-0.599761962890625;-0.0016815185546875;1.92999999512722;194;1 A
24.9617369369777;-0.599761962890625;-0.00166015625;1.93999999510197;195;1 A
24.9717369369524;-0.599700927734375;-0.001678466796875;1.94999999507672;196;1 A
24.9817369369272;-0.599700927734375;-0.00167236328125001;1.95999999505148;197;1 A
24.9917369369019;-0.59979248046875;-0.00167236328125001;1.96999999502623;198;1 A
25.0017369368767;-0.59979248046875;-0.0016754150390625;1.97999999500098;199;1 A
25.0117369368514;-0.599761962890625;-0.00165710449218751;1.98999999497573;200;1 A
25.0217369368262;-0.59979248046875;-0.00167236328125001;1.99999999495049;201;1 A
25.0317369368009;-0.5997314453125;-0.00166931152343749;2.00999999492524;202;1 A
25.0417369367757;-0.599700927734375;-0.0016632080078125;2.01999999489999;203;1 A
25.0517369367504;-0.59979248046875;-0.00167236328125001;2.02999999487474;204;1 A
25.0617369367252;-0.59979248046875;-0.00165710449218751;2.0399999948495;205;1 A
25.0717369366999;-0.599761962890625;-0.001666259765625;2.04999999482425;206;1 A
25.0817369366747;-0.599700927734375;-0.00166015625;2.059999994799;207;1 A
25.0917369366495;-0.5997314453125;-0.00166015625;2.06999999477375;208;1 A
25.1017369366242;-0.5997314453125;-0.001678466796875;2.0799999947485;209;1 A
25.111736936599;-0.599700927734375;-0.0016510009765625;2.08999999472326;210;1 A
25.1217369365737;-0.5997314453125;-0.00166931152343749;2.09999999469801;211;1 A
25.1317369365485;-0.599761962890625;-0.00166931152343749;2.10999999467276;212;1 A
25.1417369365232;-0.59979248046875;-0.00166015625;2.11999999464751;213;1 A
25.151736936498;-0.59979248046875;-0.00167236328125001;2.12999999462227;214;1 A
25.1617369364727;-0.59967041015625;-0.0016510009765625;2.13999999459702;215;1 A
25.1717369364475;-0.599761962890625;-0.0016632080078125;2.14999999457177;216;1 A
25.1817369364222;-0.5997314453125;-0.00166015625;2.15999999454652;217;1 A
25.191736936397;-0.599700927734375;-0.00165405273437499;2.16999999452128;218;1 A
25.2017369363717;-0.599761962890625;-0.00166931152343749;2.17999999449603;219;1 A
25.2117369363465;-0.599761962890625;-0.00164794921875;2.18999999447078;220;1 A
25.2217369363212;-0.59967041015625;-0.0016632080078125;2.19999999444553;221;1 A
25.231736936296;-0.5997314453125;-0.00165710449218751;2.20999999442029;222;1 A
25.2417369362707;-0.599822998046875;-0.0016510009765625;2.21999999439504;223;1 A
25.2517369362455;-0.599761962890625;-0.00166015625;2.22999999436979;224;1 A
25.2617369362202;-0.599761962890625;-0.0016448974609375;2.23999999434454;225;1 A
25.271736936195;-0.59979248046875;-0.0016632080078125;2.2499999943193;226;1 A
25.2817369361698;-0.59967041015625;-0.001666259765625;2.25999999429405;227;1 A
25.2917369361445;-0.599761962890625;-0.0016510009765625;2.2699999942688;228;1 A
25.3017369361193;-0.5997314453125;-0.0016632080078125;2.27999999424355;229;1 A
25.311736936094;-0.59979248046875;-0.00164794921875;2.28999999421831;230;1 A
25.3217369360688;-0.599761962890625;-0.00165405273437499;2.29999999419306;231;1 A
25.3317369360435;-0.5997314453125;-0.00165710449218751;2.30999999416781;232;1 A
25.3417369360183;-0.5997314453125;-0.0016510009765625;2.31999999414256;233;1 A
25.351736935993;-0.599700927734375;-0.0016632080078125;2.32999999411732;234;1 A
25.3617369359678;-0.59979248046875;-0.0016448974609375;2.33999999409207;235;1 A
25.3717369359425;-0.59979248046875;-0.00165710449218751;2.34999999406682;236;1 A
25.3817369359173;-0.599761962890625;-0.00166015625;2.35999999404157;237;1 A
25.391736935892;-0.59979248046875;-0.00165405273437499;2.36999999401633;238;1 A
25.4017369358668;-0.5997314453125;-0.00165710449218751;2.37999999399108;239;1 A
25.4117369358415;-0.5997314453125;-0.00164184570312501;2.38999999396583;240;1 A
25.4217369358163;-0.5997314453125;-0.00165405273437499;2.39999999394058;241;1 A
25.431736935791;-0.5997314453125;-0.0016510009765625;2.40999999391533;242;1 A
25.4417369357658;-0.599761962890625;-0.0016448974609375;2.41999999389009;243;1 A
25.4517369357405;-0.5997314453125;-0.0016510009765625;2.42999999386484;244;1 A
25.4617369357153;-0.59979248046875;-0.0016326904296875;2.43999999383959;245;1 A
25.47173693569;-0.59979248046875;-0.00165405273437499;2.44999999381434;246;1 A
25.4817369356648;-0.5997314453125;-0.0016448974609375;2.4599999937891;247;1 A
25.4917369356396;-0.599761962890625;-0.00163879394531249;2.46999999376385;248;1 A
25.5017369356143;-0.5997314453125;-0.00164184570312501;2.4799999937386;249;1 A
25.5117369355891;-0.599761962890625;-0.00162658691406251;2.48999999371335;250;1 A
25.5217369355638;-0.599700927734375;-0.00164184570312501;2.49999999368811;251;1 A
25.5317369355386;-0.5997314453125;-0.00164184570312501;2.50999999366286;252;1 A
25.5417369355133;-0.599822998046875;-0.0016357421875;2.51999999363761;253;1 A
25.5517369354881;-0.5997314453125;-0.00164794921875;2.52999999361236;254;1 A
25.5617369354628;-0.599761962890625;-0.00162658691406251;2.53999999358712;255;1 A
25.5717369354376;-0.59979248046875;-0.00163879394531249;2.54999999356187;256;1 A
25.5817369354123;-0.59979248046875;-0.00163879394531249;2.55999999353662;257;1 A
25.5917369353871;-0.59979248046875;-0.001629638671875;2.56999999351137;258;1 A
25.6017369353618;-0.599761962890625;-0.0016448974609375;2.57999999348613;259;1 A
25.6117369353366;-0.5997314453125;-0.00162353515624999;2.58999999346088;260;1 A
25.6217369353113;-0.59979248046875;-0.00163879394531249;2.59999999343563;261;1 A
25.6317369352861;-0.59979248046875;-0.0016357421875;2.60999999341038;262;1 A
25.6417369352608;-0.599761962890625;-0.0016204833984375;2.61999999338514;263;1 A
25.6517369352356;-0.5997314453125;-0.00163879394531249;2.62999999335989;264;1 A
25.6617369352103;-0.599822998046875;-0.0016204833984375;2.63999999333464;265;1 A
25.6717369351851;-0.59979248046875;-0.0016326904296875;2.64999999330939;266;1 A
25.6817369351598;-0.599761962890625;-0.0016326904296875;2.65999999328415;267;1 A
25.6917369351346;-0.59979248046875;-0.00162658691406251;2.6699999932589;268;1 A
25.7017369351094;-0.599761962890625;-0.0016326904296875;2.67999999323365;269;1 A
25.7117369350841;-0.599761962890625;-0.0016143798828125;2.6899999932084;270;1 A
25.7217369350589;-0.599700927734375;-0.00162658691406251;2.69999999318316;271;1 A
25.7317369350336;-0.599700927734375;-0.0016204833984375;2.70999999315791;272;1 A
25.7417369350084;-0.5997314453125;-0.0016143798828125;2.71999999313266;273;1 A
25.7517369349831;-0.599761962890625;-0.00162353515624999;2.72999999310741;274;1 A
25.7617369349579;-0.599761962890625;-0.0016021728515625;2.73999999308217;275;1 A
25.7717369349326;-0.5997314453125;-0.0016204833984375;2.74999999305692;276;1 A
25.7817369349074;-0.599700927734375;-0.0016143798828125;2.75999999303167;277;1 A
25.7917369348821;-0.59979248046875;-0.00161132812500001;2.76999999300642;278;1 A
25.8017369348569;-0.599700927734375;-0.001617431640625;2.77999999298117;279;1 A
25.8117369348316;-0.599761962890625;-0.00159301757812499;2.78999999295593;280;1 A
25.8217369348064;-0.599700927734375;-0.0016204833984375;2.79999999293068;281;1 A
25.8317369347811;-0.5997314453125;-0.0016204833984375;2.80999999290543;282;1 A
25.8417369347559;-0.5997314453125;-0.0016143798828125;2.81999999288018;283;1 A
25.8517369347306;-0.599761962890625;-0.0016204833984375;2.82999999285494;284;1 A
25.8617369347054;-0.599761962890625;-0.00159912109375;2.83999999282969;285;1 A
25.8717369346801;-0.599761962890625;-0.0016143798828125;2.84999999280444;286;1 A
25.8817369346549;-0.5997314453125;-0.00161132812500001;2.85999999277919;287;1 A
25.8917369346296;-0.599761962890625;-0.00159606933593751;2.86999999275395;288;1 A
25.9017369346044;-0.599761962890625;-0.00161132812500001;2.8799999927287;289;1 A
25.9117369345792;-0.599700927734375;-0.00159301757812499;2.88999999270345;290;1 A
25.9217369345539;-0.599761962890625;-0.00160827636718749;2.8999999926782;291;1 A
25.9317369345287;-0.59979248046875;-0.0016021728515625;2.90999999265296;292;1 A
25.9417369345034;-0.599761962890625;-0.00159301757812499;2.91999999262771;293;1 A
25.9517369344782;-0.59979248046875;-0.00160827636718749;2.92999999260246;294;1 A
25.9617369344529;-0.5997314453125;-0.0015899658203125;2.93999999257721;295;1 A
25.9717369344277;-0.59967041015625;-0.0016021728515625;2.94999999255197;296;1 A
25.9817369344024;-0.5997314453125;-0.00159606933593751;2.95999999252672;297;1 A
25.9917369343772;-0.5997314453125;-0.00159301757812499;2.96999999250147;298;1 A
26.0017369343519;-0.599761962890625;-0.00159606933593751;2.97999999247622;299;1 A
26.0117369343267;-0.59979248046875;-0.00157775878906249;2.98999999245098;300;1 A
26.0217369343014;-0.5997314453125;-0.0016021728515625;2.99999999242573;301;1 A
26.0317369342762;-0.599761962890625;-0.0015899658203125;3.00999999240048;302;1 A
26.0417369342509;-0.5997314453125;-0.00158081054687501;3.01999999237523;303;1 A
26.0517369342257;-0.5997314453125;-0.00159912109375;3.02999999234999;304;1 A
26.0617369342004;-0.5997314453125;-0.0015838623046875;3.03999999232474;305;1 A
26.0717369341752;-0.599700927734375;-0.00159912109375;3.04999999229949;306;1 A
26.0817369341499;-0.599761962890625;-0.0015899658203125;3.05999999227424;307;1 A
26.0917369341247;-0.599761962890625;-0.0015899658203125;3.069999992249;308;1 A
26.1017369340994;-0.599761962890625;-0.00159301757812499;3.07999999222375;309;1 A
26.1117369340742;-0.599761962890625;-0.001568603515625;3.0899999921985;310;1 A
26.121736934049;-0.599761962890625;-0.0015838623046875;3.09999999217325;311;1 A
26.1317369340237;-0.5997314453125;-0.00158081054687501;3.109999992148;312;1 A
26.1417369339985;-0.599761962890625;-0.00157470703125;3.11999999212276;313;1 A
26.1517369339732;-0.5997314453125;-0.0015869140625;3.12999999209751;314;1 A
26.161736933948;-0.59967041015625;-0.001568603515625;3.13999999207226;315;1 A
26.1717369339227;-0.5997314453125;-0.0015869140625;3.14999999204701;316;1 A
26.1817369338975;-0.599761962890625;-0.00157775878906249;3.15999999202177;317;1 A
26.1917369338722;-0.5997314453125;-0.00157470703125;3.16999999199652;318;1 A
26.201736933847;-0.59979248046875;-0.00157775878906249;3.17999999197127;319;1 A
26.2117369338217;-0.599761962890625;-0.00156249999999999;3.18999999194602;320;1 A
26.2217369337965;-0.59967041015625;-0.0015838623046875;3.19999999192078;321;1 A
26.2317369337712;-0.5997314453125;-0.00157470703125;3.20999999189553;322;1 A
26.241736933746;-0.5997314453125;-0.001568603515625;3.21999999187028;323;1 A
26.2517369337207;-0.599700927734375;-0.00157470703125;3.22999999184503;324;1 A
26.2617369336955;-0.599761962890625;-0.001556396484375;3.23999999181979;325;1 A
26.2717369336702;-0.5997314453125;-0.00157470703125;3.24999999179454;326;1 A
26.281736933645;-0.599700927734375;-0.0015716552734375;3.25999999176929;327;1 A
26.2917369336197;-0.5997314453125;-0.0015594482421875;3.26999999174404;328;1 A
26.3017369335945;-0.59979248046875;-0.001568603515625;3.2799999917188;329;1 A
26.3117369335693;-0.599761962890625;-0.00155029296875001;3.28999999169355;330;1 A
26.321736933544;-0.5997314453125;-0.001568603515625;3.2999999916683;331;1 A
26.3317369335188;-0.59979248046875;-0.00156249999999999;3.30999999164305;332;1 A
26.3417369334935;-0.599761962890625;-0.0015594482421875;3.31999999161781;333;1 A
26.3517369334683;-0.5997314453125;-0.00156555175781251;3.32999999159256;334;1 A
26.361736933443;-0.59979248046875;-0.001544189453125;3.33999999156731;335;1 A
26.3717369334178;-0.599761962890625;-0.00156555175781251;3.34999999154206;336;1 A
26.3817369333925;-0.599761962890625;-0.0015594482421875;3.35999999151682;337;1 A
26.3917369333673;-0.59979248046875;-0.001556396484375;3.36999999149157;338;1 A
26.401736933342;-0.599761962890625;-0.00156555175781251;3.37999999146632;339;1 A
26.4117369333168;-0.599761962890625;-0.00155029296875001;3.38999999144107;340;1 A
26.4217369332915;-0.59979248046875;-0.001568603515625;3.39999999141583;341;1 A
26.4317369332663;-0.599822998046875;-0.00156249999999999;3.40999999139058;342;1 A
26.441736933241;-0.599761962890625;-0.00155029296875001;3.41999999136533;343;1 A
26.4517369332158;-0.5997314453125;-0.00156249999999999;3.42999999134008;344;1 A
26.4617369331905;-0.5997314453125;-0.001544189453125;3.43999999131483;345;1 A
26.4717369331653;-0.599761962890625;-0.0015594482421875;3.44999999128959;346;1 A
26.48173693314;-0.5997314453125;-0.001556396484375;3.45999999126434;347;1 A
26.4917369331148;-0.5997314453125;-0.00155029296875001;3.46999999123909;348;1 A
26.5017369330895;-0.5997314453125;-0.00156555175781251;3.47999999121384;349;1 A
26.5117369330643;-0.59979248046875;-0.001544189453125;3.4899999911886;350;1 A
26.5217369330391;-0.599761962890625;-0.0015594482421875;3.49999999116335;351;1 A
26.5317369330138;-0.59967041015625;-0.0015594482421875;3.5099999911381;352;1 A
26.5417369329886;-0.599761962890625;-0.0015533447265625;3.51999999111285;353;1 A
26.5517369329633;-0.599761962890625;-0.00156555175781251;3.52999999108761;354;1 A
26.5617369329381;-0.599761962890625;-0.001544189453125;3.53999999106236;355;1 A
26.5717369329128;-0.599761962890625;-0.00156249999999999;3.54999999103711;356;1 A
26.5817369328876;-0.599761962890625;-0.0015533447265625;3.55999999101186;357;1 A
26.5917369328623;-0.599761962890625;-0.00155029296875001;3.56999999098662;358;1 A
26.6017369328371;-0.599700927734375;-0.001556396484375;3.57999999096137;359;1 A
26.6117369328118;-0.599700927734375;-0.0015380859375;3.58999999093612;360;1 A
26.6217369327866;-0.5997314453125;-0.0015594482421875;3.59999999091087;361;1 A
26.6317369327613;-0.599761962890625;-0.0015533447265625;3.60999999088563;362;1 A
26.6417369327361;-0.5997314453125;-0.00154724121093749;3.61999999086038;363;1 A
26.6517369327108;-0.59979248046875;-0.00156555175781251;3.62999999083513;364;1 A
26.6617369326856;-0.5997314453125;-0.001544189453125;3.63999999080988;365;1 A
26.6717369326603;-0.59979248046875;-0.0015594482421875;3.64999999078464;366;1 A
26.6817369326351;-0.59979248046875;-0.0015411376953125;3.65999999075939;367;1 A
26.6917369326098;-0.5997314453125;-0.0015411376953125;3.66999999073414;368;1 A
26.7017369325846;-0.5997314453125;-0.00154724121093749;3.67999999070889;369;1 A
26.7117369325593;-0.5997314453125;-0.00153198242187499;3.68999999068365;370;1 A
26.7217369325341;-0.599700927734375;-0.00155029296875001;3.6999999906584;371;1 A
26.7317369325089;-0.5997314453125;-0.0015411376953125;3.70999999063315;372;1 A
26.7417369324836;-0.599761962890625;-0.0015380859375;3.7199999906079;373;1 A
26.7517369324584;-0.5997314453125;-0.00154724121093749;3.72999999058266;374;1 A
26.7617369324331;-0.59979248046875;-0.0015289306640625;3.73999999055741;375;1 A
26.7717369324079;-0.59979248046875;-0.001544189453125;3.74999999053216;376;1 A
26.7817369323826;-0.5997314453125;-0.0015411376953125;3.75999999050691;377;1 A
26.7917369323574;-0.59979248046875;-0.00153503417968751;3.76999999048167;378;1 A
26.8017369323321;-0.5997314453125;-0.00154724121093749;3.77999999045642;379;1 A
26.8117369323069;-0.59967041015625;-0.0015228271484375;3.78999999043117;380;1 A
26.8217369322816;-0.599700927734375;-0.00154724121093749;3.79999999040592;381;1 A
26.8317369322564;-0.5997314453125;-0.0015411376953125;3.80999999038067;382;1 A
26.8417369322311;-0.5997314453125;-0.00153503417968751;3.81999999035543;383;1 A
26.8517369322059;-0.599822998046875;-0.00154724121093749;3.82999999033018;384;1 A
26.8617369321806;-0.599761962890625;-0.0015289306640625;3.83999999030493;385;1 A
26.8717369321554;-0.5997314453125;-0.001544189453125;3.84999999027968;386;1 A
26.8817369321301;-0.599761962890625;-0.0015411376953125;3.85999999025444;387;1 A
26.8917369321049;-0.59979248046875;-0.00153198242187499;3.86999999022919;388;1 A
26.9017369320796;-0.5997314453125;-0.001544189453125;3.87999999020394;389;1 A
26.9117369320544;-0.5997314453125;-0.0015289306640625;3.88999999017869;390;1 A
26.9217369320291;-0.59979248046875;-0.001544189453125;3.89999999015345;391;1 A
26.9317369320039;-0.599761962890625;-0.0015380859375;3.9099999901282;392;1 A
26.9417369319787;-0.5997314453125;-0.00153198242187499;3.91999999010295;393;1 A
26.9517369319534;-0.599761962890625;-0.0015411376953125;3.9299999900777;394;1 A
26.9617369319282;-0.5997314453125;-0.0015228271484375;3.93999999005246;395;1 A
26.9717369319029;-0.5997314453125;-0.001544189453125;3.94999999002721;396;1 A
26.9817369318777;-0.5997314453125;-0.00153503417968751;3.95999999000196;397;1 A
26.9917369318524;-0.599761962890625;-0.0015228271484375;3.96999998997671;398;1 A
27.0017369318272;-0.59979248046875;-0.0015380859375;3.97999998995147;399;1 A
27.0117369318019;-0.599761962890625;-0.00151977539062501;3.98999998992622;400;1 A
27.0217369317767;-0.5997314453125;-0.001544189453125;3.99999998990097;401;1 A
27.0317369317514;-0.59967041015625;-0.0015380859375;4.00999998987572;402;1 A
27.0417369317262;-0.5997314453125;-0.0015289306640625;4.01999998985048;403;1 A
27.0517369317009;-0.599822998046875;-0.0015380859375;4.02999998982523;404;1 A
27.0617369316757;-0.59979248046875;-0.00151672363281249;4.03999998979998;405;1 A
27.0717369316504;-0.599761962890625;-0.0015380859375;4.04999998977473;406;1 A
27.0817369316252;-0.5997314453125;-0.00153198242187499;4.05999998974949;407;1 A
27.0917369315999;-0.599761962890625;-0.00152587890625;4.06999998972424;408;1 A
27.1017369315747;-0.599822998046875;-0.0015380859375;4.07999998969899;409;1 A
27.1117369315494;-0.599761962890625;-0.0015228271484375;4.08999998967374;410;1 A
27.1217369315242;-0.59979248046875;-0.0015411376953125;4.0999999896485;411;1 A
27.1317369314989;-0.5997314453125;-0.00153503417968751;4.10999998962325;412;1 A
27.1417369314737;-0.59979248046875;-0.0015289306640625;4.119999989598;413;1 A
27.1517369314485;-0.59979248046875;-0.001544189453125;4.12999998957275;414;1 A
27.1617369314232;-0.5997314453125;-0.00151977539062501;4.1399999895475;415;1 A
27.171736931398;-0.599761962890625;-0.00153503417968751;4.14999998952226;416;1 A
27.1817369313727;-0.59979248046875;-0.00152587890625;4.15999998949701;417;1 A
27.1917369313475;-0.599761962890625;-0.0015228271484375;4.16999998947176;418;1 A
27.2017369313222;-0.599761962890625;-0.00153198242187499;4.17999998944651;419;1 A
27.211736931297;-0.599761962890625;-0.0015106201171875;4.18999998942127;420;1 A
27.2217369312717;-0.5997314453125;-0.0015289306640625;4.19999998939602;421;1 A
27.2317369312465;-0.599761962890625;-0.00152587890625;4.20999998937077;422;1 A
27.2417369312212;-0.5997314453125;-0.001513671875;4.21999998934552;423;1 A
27.251736931196;-0.5997314453125;-0.0015289306640625;4.22999998932028;424;1 A
27.2617369311707;-0.599761962890625;-0.001513671875;4.23999998929503;425;1 A
27.2717369311455;-0.5997314453125;-0.00153198242187499;4.24999998926978;426;1 A
27.2817369311202;-0.599700927734375;-0.00151977539062501;4.25999998924453;427;1 A
27.291736931095;-0.5997314453125;-0.00151672363281249;4.26999998921929;428;1 A
27.3017369310697;-0.5997314453125;-0.0015289306640625;4.27999998919404;429;1 A
27.3117369310445;-0.59979248046875;-0.00150451660156251;4.28999998916879;430;1 A
27.3217369310192;-0.5997314453125;-0.00152587890625;4.29999998914354;431;1 A
27.331736930994;-0.599761962890625;-0.00151672363281249;4.3099999891183;432;1 A
27.3417369309688;-0.599761962890625;-0.00151977539062501;4.31999998909305;433;1 A
27.3517369309435;-0.599761962890625;-0.00152587890625;4.3299999890678;434;1 A
27.3617369309183;-0.5997314453125;-0.00150146484374999;4.33999998904255;435;1 A
27.371736930893;-0.599700927734375;-0.00152587890625;4.34999998901731;436;1 A
27.3817369308678;-0.5997314453125;-0.00151977539062501;4.35999998899206;437;1 A
27.3917369308425;-0.5997314453125;-0.001513671875;4.36999998896681;438;1 A
27.4017369308173;-0.59979248046875;-0.0015228271484375;4.37999998894156;439;1 A
27.411736930792;-0.599761962890625;-0.00150146484374999;4.38999998891632;440;1 A
27.4217369307668;-0.599761962890625;-0.00151977539062501;4.39999998889107;441;1 A
27.4317369307415;-0.599822998046875;-0.001513671875;4.40999998886582;442;1 A
27.4417369307163;-0.5997314453125;-0.00150451660156251;4.41999998884057;443;1 A
27.451736930691;-0.5997314453125;-0.0015106201171875;4.42999998881533;444;1 A
27.4617369306658;-0.599761962890625;-0.0014984130859375;4.43999998879008;445;1 A
27.4717369306405;-0.599700927734375;-0.001513671875;4.44999998876483;446;1 A
27.4817369306153;-0.59979248046875;-0.00150451660156251;4.45999998873958;447;1 A
27.49173693059;-0.5997314453125;-0.00150146484374999;4.46999998871433;448;1 A
27.5017369305648;-0.5997314453125;-0.001513671875;4.47999998868909;449;1 A
27.5117369305395;-0.599761962890625;-0.001495361328125;4.48999998866384;450;1 A
27.5217369305143;-0.599761962890625;-0.001513671875;4.49999998863859;451;1 A
27.531736930489;-0.5997314453125;-0.001507568359375;4.50999998861334;452;1 A
27.5417369304638;-0.599761962890625;-0.00150146484374999;4.5199999885881;453;1 A
27.5517369304386;-0.599761962890625;-0.0015106201171875;4.52999998856285;454;1 A
27.5617369304133;-0.59979248046875;-0.00148925781250001;4.5399999885376;455;1 A
27.5717369303881;-0.599761962890625;-0.001507568359375;4.54999998851235;456;1 A
27.5817369303628;-0.599700927734375;-0.00150146484374999;4.55999998848711;457;1 A
27.5917369303376;-0.59979248046875;-0.0014923095703125;4.56999998846186;458;1 A
27.6017369303123;-0.599700927734375;-0.00150451660156251;4.57999998843661;459;1 A
27.6117369302871;-0.599700927734375;-0.00148620605468749;4.58999998841136;460;1 A
27.6217369302618;-0.599761962890625;-0.00150451660156251;4.59999998838612;461;1 A
27.6317369302366;-0.59967041015625;-0.00150451660156251;4.60999998836087;462;1 A
27.6417369302113;-0.59979248046875;-0.00148925781250001;4.61999998833562;463;1 A
27.6517369301861;-0.599761962890625;-0.00150146484374999;4.62999998831037;464;1 A
27.6617369301608;-0.5997314453125;-0.0014801025390625;4.63999998828513;465;1 A
27.6717369301356;-0.599761962890625;-0.0014984130859375;4.64999998825988;466;1 A
27.6817369301103;-0.599761962890625;-0.001495361328125;4.65999998823463;467;1 A
27.6917369300851;-0.599761962890625;-0.001483154296875;4.66999998820938;468;1 A
27.7017369300598;-0.59979248046875;-0.001495361328125;4.67999998818414;469;1 A
27.7117369300346;-0.5997314453125;-0.00147399902343751;4.68999998815889;470;1 A
27.7217369300093;-0.599761962890625;-0.0014923095703125;4.69999998813364;471;1 A
27.7317369299841;-0.5997314453125;-0.0014923095703125;4.70999998810839;472;1 A
27.7417369299588;-0.599761962890625;-0.00148620605468749;4.71999998808315;473;1 A
27.7517369299336;-0.599761962890625;-0.0014984130859375;4.7299999880579;474;1 A
27.7617369299084;-0.599822998046875;-0.00147705078125;4.73999998803265;475;1 A
27.7717369298831;-0.5997314453125;-0.0014923095703125;4.7499999880074;476;1 A
27.7817369298579;-0.599761962890625;-0.00148620605468749;4.75999998798216;477;1 A
27.7917369298326;-0.5997314453125;-0.00147705078125;4.76999998795691;478;1 A
27.8017369298074;-0.59979248046875;-0.00148620605468749;4.77999998793166;479;1 A
27.8117369297821;-0.59979248046875;-0.00147094726562499;4.78999998790641;480;1 A
27.8217369297569;-0.599761962890625;-0.001495361328125;4.79999998788116;481;1 A
27.8317369297316;-0.5997314453125;-0.00148620605468749;4.80999998785592;482;1 A
27.8417369297064;-0.5997314453125;-0.0014801025390625;4.81999998783067;483;1 A
27.8517369296811;-0.59979248046875;-0.0014923095703125;4.82999998780542;484;1 A
27.8617369296559;-0.59979248046875;-0.00147399902343751;4.83999998778017;485;1 A
27.8717369296306;-0.599761962890625;-0.001495361328125;4.84999998775493;486;1 A
27.8817369296054;-0.5997314453125;-0.0014923095703125;4.85999998772968;487;1 A
27.8917369295801;-0.59979248046875;-0.001483154296875;4.86999998770443;488;1 A
27.9017369295549;-0.599822998046875;-0.00148620605468749;4.87999998767918;489;1 A
27.9117369295296;-0.599700927734375;-0.0014678955078125;4.88999998765394;490;1 A
27.9217369295044;-0.599761962890625;-0.00148925781250001;4.89999998762869;491;1 A
27.9317369294791;-0.599700927734375;-0.001483154296875;4.90999998760344;492;1 A
27.9417369294539;-0.5997314453125;-0.00147705078125;4.91999998757819;493;1 A
27.9517369294286;-0.59979248046875;-0.001483154296875;4.92999998755295;494;1 A
27.9617369294034;-0.599822998046875;-0.0014678955078125;4.9399999875277;495;1 A
27.9717369293782;-0.599761962890625;-0.00148925781250001;4.94999998750245;496;1 A
27.9817369293529;-0.599761962890625;-0.00148620605468749;4.9599999874772;497;1 A
27.9917369293277;-0.59979248046875;-0.00147705078125;4.96999998745196;498;1 A
28.0017369293024;-0.599761962890625;-0.001483154296875;4.97999998742671;499;1 A
28.0117369292772;-0.599761962890625;-0.0014678955078125;4.98999998740146;500;1 A
28.0217369292519;-0.59979248046875;-0.00148925781250001;4.99999998737621;501;1 A
28.0317369292267;-0.599761962890625;-0.0014801025390625;5.00999998735097;502;1 A
28.0417369292014;-0.599761962890625;-0.00147094726562499;5.01999998732572;503;1 A
28.0517369291762;-0.599761962890625;-0.0014801025390625;5.02999998730047;504;1 A
28.0617369291509;-0.599700927734375;-0.0014678955078125;5.03999998727522;505;1 A
28.0717369291257;-0.59979248046875;-0.00148620605468749;5.04999998724998;506;1 A
28.0817369291004;-0.599761962890625;-0.00147705078125;5.05999998722473;507;1 A
28.0917369290752;-0.5997314453125;-0.00147705078125;5.06999998719948;508;1 A
28.1017369290499;-0.5997314453125;-0.001483154296875;5.07999998717423;509;1 A
28.1117369290247;-0.59979248046875;-0.0014678955078125;5.08999998714899;510;1 A
28.1217369289994;-0.599761962890625;-0.00148620605468749;5.09999998712374;511;1 A
28.1317369289742;-0.599700927734375;-0.00147705078125;5.10999998709849;512;1 A
28.1417369289489;-0.599761962890625;-0.00146484375;5.11999998707324;513;1 A
28.1517369289237;-0.599700927734375;-0.00147705078125;5.129999987048;514;1 A
28.1617369288984;-0.599700927734375;-0.00145874023437501;5.13999998702275;515;1 A
28.1717369288732;-0.599761962890625;-0.0014801025390625;5.1499999869975;516;1 A
28.181736928848;-0.599761962890625;-0.00147094726562499;5.15999998697225;517;1 A
28.1917369288227;-0.5997314453125;-0.0014617919921875;5.169999986947;518;1 A
28.2017369287975;-0.599761962890625;-0.00147705078125;5.17999998692176;519;1 A
28.2117369287722;-0.599761962890625;-0.0014617919921875;5.18999998689651;520;1 A
28.221736928747;-0.5997314453125;-0.001483154296875;5.19999998687126;521;1 A
28.2317369287217;-0.599761962890625;-0.00147705078125;5.20999998684601;522;1 A
28.2417369286965;-0.599761962890625;-0.00147094726562499;5.21999998682077;523;1 A
28.2517369286712;-0.5997314453125;-0.00147705078125;5.22999998679552;524;1 A
28.261736928646;-0.599822998046875;-0.0014617919921875;5.23999998677027;525;1 A
28.2717369286207;-0.59979248046875;-0.00147705078125;5.24999998674502;526;1 A
28.2817369285955;-0.5997314453125;-0.0014678955078125;5.25999998671978;527;1 A
28.2917369285702;-0.5997314453125;-0.00145874023437501;5.26999998669453;528;1 A
28.301736928545;-0.599761962890625;-0.00147399902343751;5.27999998666928;529;1 A
28.3117369285197;-0.599761962890625;-0.00145568847656249;5.28999998664403;530;1 A
28.3217369284945;-0.599761962890625;-0.00147705078125;5.29999998661879;531;1 A
28.3317369284692;-0.599700927734375;-0.00147399902343751;5.30999998659354;532;1 A
28.341736928444;-0.599700927734375;-0.00146484375;5.31999998656829;533;1 A
28.3517369284187;-0.599700927734375;-0.00147399902343751;5.32999998654304;534;1 A
28.3617369283935;-0.59979248046875;-0.00145263671875;5.3399999865178;535;1 A
28.3717369283683;-0.599761962890625;-0.00147705078125;5.34999998649255;536;1 A
28.381736928343;-0.599700927734375;-0.0014678955078125;5.3599999864673;537;1 A
28.3917369283178;-0.5997314453125;-0.00145874023437501;5.36999998644205;538;1 A
28.4017369282925;-0.599761962890625;-0.00147094726562499;5.37999998641681;539;1 A
28.4117369282673;-0.599761962890625;-0.0014495849609375;5.38999998639156;540;1 A
28.421736928242;-0.5997314453125;-0.00147094726562499;5.39999998636631;541;1 A
28.4317369282168;-0.599700927734375;-0.0014678955078125;5.40999998634106;542;1 A
28.4417369281915;-0.5997314453125;-0.0014617919921875;5.41999998631582;543;1 A
28.4517369281663;-0.59979248046875;-0.00147094726562499;5.42999998629057;544;1 A
28.461736928141;-0.599761962890625;-0.00145874023437501;5.43999998626532;545;1 A
28.4717369281158;-0.599761962890625;-0.00147705078125;5.44999998624007;546;1 A
28.4817369280905;-0.59979248046875;-0.0014678955078125;5.45999998621483;547;1 A
28.4917369280653;-0.599822998046875;-0.0014617919921875;5.46999998618958;548;1 A
28.50173692804;-0.599761962890625;-0.00147094726562499;5.47999998616433;549;1 A
28.5117369280148;-0.599761962890625;-0.00145568847656249;5.48999998613908;550;1 A
28.5217369279895;-0.599700927734375;-0.001483154296875;5.49999998611383;551;1 A
28.5317369279643;-0.5997314453125;-0.0014678955078125;5.50999998608859;552;1 A
28.541736927939;-0.599700927734375;-0.0014617919921875;5.51999998606334;553;1 A
28.5517369279138;-0.599761962890625;-0.00147399902343751;5.52999998603809;554;1 A
28.5617369278885;-0.599761962890625;-0.00145568847656249;5.53999998601284;555;1 A
28.5717369278633;-0.59979248046875;-0.00147399902343751;5.5499999859876;556;1 A
28.5817369278381;-0.5997314453125;-0.0014678955078125;5.55999998596235;557;1 A
28.5917369278128;-0.59979248046875;-0.0014617919921875;5.5699999859371;558;1 A
28.6017369277876;-0.59979248046875;-0.00147094726562499;5.57999998591185;559;1 A
28.6117369277623;-0.59979248046875;-0.00145263671875;5.58999998588661;560;1 A
28.6217369277371;-0.5997314453125;-0.00147094726562499;5.59999998586136;561;1 A
28.6317369277118;-0.5997314453125;-0.00146484375;5.60999998583611;562;1 A
28.6417369276866;-0.599761962890625;-0.00145874023437501;5.61999998581086;563;1 A
28.6517369276613;-0.5997314453125;-0.00147094726562499;5.62999998578562;564;1 A
28.6617369276361;-0.5997314453125;-0.0014495849609375;5.63999998576037;565;1 A
28.6717369276108;-0.5997314453125;-0.0014678955078125;5.64999998573512;566;1 A
28.6817369275856;-0.599761962890625;-0.00146484375;5.65999998570987;567;1 A
28.6917369275603;-0.59967041015625;-0.00145568847656249;5.66999998568463;568;1 A
28.7017369275351;-0.599700927734375;-0.00147094726562499;5.67999998565938;569;1 A
28.7117369275098;-0.5997314453125;-0.0014495849609375;5.68999998563413;570;1 A
28.7217369274846;-0.59979248046875;-0.00147094726562499;5.69999998560888;571;1 A
28.7317369274593;-0.599761962890625;-0.0014617919921875;5.70999998558364;572;1 A
28.7417369274341;-0.599761962890625;-0.00145874023437501;5.71999998555839;573;1 A
28.7517369274088;-0.599700927734375;-0.00146484375;5.72999998553314;574;1 A
28.7617369273836;-0.59979248046875;-0.00145263671875;5.73999998550789;575;1 A
28.7717369273583;-0.59979248046875;-0.00147094726562499;5.74999998548265;576;1 A
28.7817369273331;-0.5997314453125;-0.0014617919921875;5.7599999854574;577;1 A
28.7917369273079;-0.5997314453125;-0.00145263671875;5.76999998543215;578;1 A
28.8017369272826;-0.59979248046875;-0.00147094726562499;5.7799999854069;579;1 A
28.8117369272574;-0.599761962890625;-0.0014495849609375;5.78999998538166;580;1 A
28.8217369272321;-0.599761962890625;-0.00147399902343751;5.79999998535641;581;1 A
28.8317369272069;-0.599761962890625;-0.00147094726562499;5.80999998533116;582;1 A
28.8417369271816;-0.5997314453125;-0.0014617919921875;5.81999998530591;583;1 A
28.8517369271564;-0.59979248046875;-0.00147094726562499;5.82999998528066;584;1 A
28.8617369271311;-0.599761962890625;-0.00145263671875;5.83999998525542;585;1 A
28.8717369271059;-0.599761962890625;-0.00147094726562499;5.84999998523017;586;1 A
28.8817369270806;-0.5997314453125;-0.00146484375;5.85999998520492;587;1 A
28.8917369270554;-0.599761962890625;-0.00145263671875;5.86999998517967;588;1 A
28.9017369270301;-0.599700927734375;-0.0014678955078125;5.87999998515443;589;1 A
28.9117369270049;-0.599700927734375;-0.0014495849609375;5.88999998512918;590;1 A
28.9217369269796;-0.59979248046875;-0.00147094726562499;5.89999998510393;591;1 A
28.9317369269544;-0.59979248046875;-0.0014617919921875;5.90999998507868;592;1 A
28.9417369269291;-0.599761962890625;-0.0014617919921875;5.91999998505344;593;1 A
28.9517369269039;-0.59979248046875;-0.00147094726562499;5.92999998502819;594;1 A
28.9617369268786;-0.599822998046875;-0.0014495849609375;5.93999998500294;595;1 A
28.9717369268534;-0.59979248046875;-0.00147094726562499;5.94999998497769;596;1 A
28.9817369268281;-0.599761962890625;-0.0014678955078125;5.95999998495245;597;1 A
28.9917369268029;-0.599761962890625;-0.0014617919921875;5.9699999849272;598;1 A
29.0017369267777;-0.59979248046875;-0.0014678955078125;5.97999998490195;599;1 A
29.0117369267524;-0.599700927734375;-0.00145263671875;5.9899999848767;600;1 A
29.0217369267272;-0.5997314453125;-0.00147399902343751;5.99999998485146;601;1 A
29.0317369267019;-0.599761962890625;-0.0014678955078125;6.00999998482621;602;1 A
29.0417369266767;-0.59979248046875;-0.00145874023437501;6.01999998480096;603;1 A
29.0517369266514;-0.599700927734375;-0.00147094726562499;6.02999998477571;604;1 A
29.0617369266262;-0.5997314453125;-0.00145874023437501;6.03999998475047;605;1 A
29.0717369266009;-0.59979248046875;-0.00147705078125;6.04999998472522;606;1 A
29.0817369265757;-0.599761962890625;-0.0014678955078125;6.05999998469997;607;1 A
29.0917369265504;-0.599700927734375;-0.00145874023437501;6.06999998467472;608;1 A
29.1017369265252;-0.599700927734375;-0.0014678955078125;6.07999998464948;609;1 A
29.1117369264999;-0.599700927734375;-0.00145568847656249;6.08999998462423;610;1 A
29.1217369264747;-0.599761962890625;-0.00147705078125;6.09999998459898;611;1 A
29.1317369264494;-0.599761962890625;-0.00147094726562499;6.10999998457373;612;1 A
29.1417369264242;-0.5997314453125;-0.00146484375;6.11999998454849;613;1 A
29.1517369263989;-0.5997314453125;-0.0014678955078125;6.12999998452324;614;1 A
29.1617369263737;-0.5997314453125;-0.00145263671875;6.13999998449799;615;1 A
29.1717369263484;-0.59979248046875;-0.00147399902343751;6.14999998447274;616;1 A
29.1817369263232;-0.59979248046875;-0.00146484375;6.1599999844475;617;1 A
29.1917369262979;-0.599700927734375;-0.00145874023437501;6.16999998442225;618;1 A
29.2017369262727;-0.59979248046875;-0.00147094726562499;6.179999984397;619;1 A
29.2117369262475;-0.59979248046875;-0.0014495849609375;6.18999998437175;620;1 A
29.2217369262222;-0.5997314453125;-0.00147705078125;6.1999999843465;621;1 A
29.231736926197;-0.59979248046875;-0.00147094726562499;6.20999998432126;622;1 A
29.2417369261717;-0.5997314453125;-0.00146484375;6.21999998429601;623;1 A
29.2517369261465;-0.5997314453125;-0.00147399902343751;6.22999998427076;624;1 A
29.2617369261212;-0.59979248046875;-0.00145874023437501;6.23999998424551;625;1 A
29.271736926096;-0.599761962890625;-0.00147399902343751;6.24999998422027;626;1 A
29.2817369260707;-0.5997314453125;-0.00147094726562499;6.25999998419502;627;1 A
29.2917369260455;-0.599822998046875;-0.00146484375;6.26999998416977;628;1 A
29.3017369260202;-0.599700927734375;-0.00147705078125;6.27999998414452;629;1 A
29.311736925995;-0.599761962890625;-0.0014617919921875;6.28999998411928;630;1 A
29.3217369259697;-0.5997314453125;-0.001483154296875;6.29999998409403;631;1 A
29.3317369259445;-0.599700927734375;-0.00147399902343751;6.30999998406878;632;1 A
29.3417369259192;-0.599761962890625;-0.0014678955078125;6.31999998404353;633;1 A
29.351736925894;-0.59979248046875;-0.00147399902343751;6.32999998401829;634;1 A
29.3617369258687;-0.59979248046875;-0.00146484375;6.33999998399304;635;1 A
29.3717369258435;-0.5997314453125;-0.0014801025390625;6.34999998396779;636;1 A
29.3817369258182;-0.599700927734375;-0.00147399902343751;6.35999998394254;637;1 A
29.391736925793;-0.59979248046875;-0.00146484375;6.3699999839173;638;1 A
29.4017369257678;-0.599761962890625;-0.00147399902343751;6.37999998389205;639;1 A
29.4117369257425;-0.599761962890625;-0.00145874023437501;6.3899999838668;640;1 A
29.4217369257173;-0.5997314453125;-0.00148620605468749;6.39999998384155;641;1 A
29.431736925692;-0.5997314453125;-0.00147399902343751;6.40999998381631;642;1 A
29.4417369256668;-0.599761962890625;-0.0014678955078125;6.41999998379106;643;1 A
29.4517369256415;-0.599822998046875;-0.00147705078125;6.42999998376581;644;1 A
29.4617369256163;-0.599761962890625;-0.0014617919921875;6.43999998374056;645;1 A
29.471736925591;-0.599761962890625;-0.001483154296875;6.44999998371532;646;1 A
29.4817369255658;-0.59967041015625;-0.00147705078125;6.45999998369007;647;1 A
29.4917369255405;-0.59979248046875;-0.0014678955078125;6.46999998366482;648;1 A
29.5017369255153;-0.5997314453125;-0.0014801025390625;6.47999998363957;649;1 A
29.51173692549;-0.5997314453125;-0.00145568847656249;6.48999998361433;650;1 A
29.5217369254648;-0.599700927734375;-0.0014801025390625;6.49999998358908;651;1 A
29.5317369254395;-0.599700927734375;-0.00147094726562499;6.50999998356383;652;1 A
29.5417369254143;-0.5997314453125;-0.00146484375;6.51999998353858;653;1 A
29.551736925389;-0.599700927734375;-0.0014801025390625;6.52999998351333;654;1 A
29.5617369253638;-0.5997314453125;-0.0014617919921875;6.53999998348809;655;1 A
29.5717369253385;-0.59979248046875;-0.001483154296875;6.54999998346284;656;1 A
29.5817369253133;-0.5997314453125;-0.00147705078125;6.55999998343759;657;1 A
29.591736925288;-0.599639892578125;-0.00147399902343751;6.56999998341234;658;1 A
29.6017369252628;-0.5997314453125;-0.0014801025390625;6.5799999833871;659;1 A
29.6117369252376;-0.5997314453125;-0.00146484375;6.58999998336185;660;1 A
29.6217369252123;-0.5997314453125;-0.00148925781250001;6.5999999833366;661;1 A
29.6317369251871;-0.5997314453125;-0.0014801025390625;6.60999998331135;662;1 A
29.6417369251618;-0.599700927734375;-0.00147094726562499;6.61999998328611;663;1 A
29.6517369251366;-0.5997314453125;-0.00147705078125;6.62999998326086;664;1 A
29.6617369251113;-0.599761962890625;-0.0014678955078125;6.63999998323561;665;1 A
29.6717369250861;-0.59979248046875;-0.00148925781250001;6.64999998321036;666;1 A
29.6817369250608;-0.599761962890625;-0.0014801025390625;6.65999998318512;667;1 A
29.6917369250356;-0.59979248046875;-0.00147705078125;6.66999998315987;668;1 A
29.7017369250103;-0.599761962890625;-0.00148925781250001;6.67999998313462;669;1 A
29.7117369249851;-0.599761962890625;-0.0014678955078125;6.68999998310937;670;1 A
29.7217369249598;-0.5997314453125;-0.0014923095703125;6.69999998308413;671;1 A
29.7317369249346;-0.5997314453125;-0.00147399902343751;6.70999998305888;672;1 A
29.7417369249093;-0.5997314453125;-0.00147705078125;6.71999998303363;673;1 A
29.7517369248841;-0.5997314453125;-0.001483154296875;6.72999998300838;674;1 A
29.7617369248588;-0.599761962890625;-0.00147399902343751;6.73999998298314;675;1 A
29.7717369248336;-0.599822998046875;-0.00148925781250001;6.74999998295789;676;1 A
29.7817369248083;-0.599761962890625;-0.00148620605468749;6.75999998293264;677;1 A
29.7917369247831;-0.599761962890625;-0.0014801025390625;6.76999998290739;678;1 A
29.8017369247578;-0.59979248046875;-0.00148620605468749;6.77999998288215;679;1 A
29.8117369247326;-0.599761962890625;-0.00147094726562499;6.7899999828569;680;1 A
29.8217369247074;-0.5997314453125;-0.0014923095703125;6.79999998283165;681;1 A
29.8317369246821;-0.599761962890625;-0.0014801025390625;6.8099999828064;682;1 A
29.8417369246569;-0.599761962890625;-0.0014678955078125;6.81999998278116;683;1 A
29.8517369246316;-0.59967041015625;-0.0014801025390625;6.82999998275591;684;1 A
29.8617369246064;-0.5997314453125;-0.00147094726562499;6.83999998273066;685;1 A
29.8717369245811;-0.5997314453125;-0.00148925781250001;6.84999998270541;686;1 A
29.8817369245559;-0.59979248046875;-0.00148620605468749;6.85999998268016;687;1 A
29.8917369245306;-0.599761962890625;-0.00147399902343751;6.86999998265492;688;1 A
29.9017369245054;-0.5997314453125;-0.00148620605468749;6.87999998262967;689;1 A
29.9117369244801;-0.59979248046875;-0.0014678955078125;6.88999998260442;690;1 A
29.9217369244549;-0.59967041015625;-0.001495361328125;6.89999998257917;691;1 A
29.9317369244296;-0.5997314453125;-0.0014801025390625;6.90999998255393;692;1 A
29.9417369244044;-0.5997314453125;-0.00147705078125;6.91999998252868;693;1 A
29.9517369243791;-0.599761962890625;-0.0014923095703125;6.92999998250343;694;1 A
29.9617369243539;-0.599761962890625;-0.00147399902343751;6.93999998247818;695;1 A
29.9717369243286;-0.599761962890625;-0.00148925781250001;6.94999998245294;696;1 A
29.9817369243034;-0.599761962890625;-0.00148620605468749;6.95999998242769;697;1 A
29.9917369242781;-0.599761962890625;-0.0014801025390625;6.96999998240244;698;1 A
30.0017369242529;-0.59979248046875;-0.00148925781250001;6.97999998237719;699;1 A
30.0117369242276;-0.599761962890625;-0.00147399902343751;6.98999998235195;700;1 A
30.0217369242024;-0.599700927734375;-0.001495361328125;6.9999999823267;701;1 A
30.0317369241772;-0.5997314453125;-0.00148925781250001;7.00999998230145;702;1 A
30.0417369241519;-0.599761962890625;-0.00147705078125;7.0199999822762;703;1 A
30.0517369241267;-0.5997314453125;-0.0014923095703125;7.02999998225096;704;1 A
30.0617369241014;-0.5997314453125;-0.00147399902343751;7.03999998222571;705;1 A
30.0717369240762;-0.599761962890625;-0.0014984130859375;7.04999998220046;706;1 A
30.0817369240509;-0.599761962890625;-0.00148925781250001;7.05999998217521;707;1 A
30.0917369240257;-0.599761962890625;-0.0014801025390625;7.06999998214997;708;1 A
30.1017369240004;-0.5997314453125;-0.0014923095703125;7.07999998212472;709;1 A
30.1117369239752;-0.599700927734375;-0.00147399902343751;7.08999998209947;710;1 A
30.1217369239499;-0.599761962890625;-0.00150146484374999;7.09999998207422;711;1 A
30.1317369239247;-0.59979248046875;-0.00148925781250001;7.10999998204898;712;1 A
30.1417369238994;-0.599761962890625;-0.00148620605468749;7.11999998202373;713;1 A
30.1517369238742;-0.599822998046875;-0.001495361328125;7.12999998199848;714;1 A
30.1617369238489;-0.599761962890625;-0.0014801025390625;7.13999998197323;715;1 A
30.1717369238237;-0.5997314453125;-0.00150146484374999;7.14999998194799;716;1 A
30.1817369237984;-0.599761962890625;-0.0014984130859375;7.15999998192274;717;1 A
30.1917369237732;-0.599700927734375;-0.00148925781250001;7.16999998189749;718;1 A
30.2017369237479;-0.5997314453125;-0.001495361328125;7.17999998187224;719;1 A
30.2117369237227;-0.599700927734375;-0.001483154296875;7.189999981847;720;1 A
30.2217369236974;-0.5997314453125;-0.00150146484374999;7.19999998182175;721;1 A
30.2317369236722;-0.599761962890625;-0.001495361328125;7.2099999817965;722;1 A
30.241736923647;-0.5997314453125;-0.00148620605468749;7.21999998177125;723;1 A
30.2517369236217;-0.5997314453125;-0.0014984130859375;7.229999981746;724;1 A
30.2617369235965;-0.5997314453125;-0.001483154296875;7.23999998172076;725;1 A
30.2717369235712;-0.599700927734375;-0.00150146484374999;7.24999998169551;726;1 A
30.281736923546;-0.599761962890625;-0.00150146484374999;7.25999998167026;727;1 A
30.2917369235207;-0.5997314453125;-0.00148925781250001;7.26999998164501;728;1 A
30.3017369234955;-0.5997314453125;-0.001495361328125;7.27999998161977;729;1 A
30.3117369234702;-0.5997314453125;-0.0014801025390625;7.28999998159452;730;1 A
30.321736923445;-0.5997314453125;-0.0014984130859375;7.29999998156927;731;1 A
30.3317369234197;-0.59979248046875;-0.0014984130859375;7.30999998154402;732;1 A
30.3417369233945;-0.59979248046875;-0.00148925781250001;7.31999998151878;733;1 A
30.3517369233692;-0.59979248046875;-0.00150146484374999;7.32999998149353;734;1 A
30.361736923344;-0.59979248046875;-0.001483154296875;7.33999998146828;735;1 A
30.3717369233187;-0.5997314453125;-0.001507568359375;7.34999998144303;736;1 A
30.3817369232935;-0.599761962890625;-0.0014984130859375;7.35999998141779;737;1 A
30.3917369232682;-0.599700927734375;-0.00148925781250001;7.36999998139254;738;1 A
30.401736923243;-0.599761962890625;-0.001507568359375;7.37999998136729;739;1 A
30.4117369232177;-0.5997314453125;-0.00148925781250001;7.38999998134204;740;1 A
30.4217369231925;-0.5997314453125;-0.0015106201171875;7.3999999813168;741;1 A
30.4317369231673;-0.59979248046875;-0.00150146484374999;7.40999998129155;742;1 A
30.441736923142;-0.599700927734375;-0.0014984130859375;7.4199999812663;743;1 A
30.4517369231168;-0.59979248046875;-0.00150451660156251;7.42999998124105;744;1 A
30.4617369230915;-0.599700927734375;-0.001483154296875;7.43999998121581;745;1 A
30.4717369230663;-0.5997314453125;-0.00150146484374999;7.44999998119056;746;1 A
30.481736923041;-0.5997314453125;-0.0014984130859375;7.45999998116531;747;1 A
30.4917369230158;-0.599761962890625;-0.0014923095703125;7.46999998114006;748;1 A
30.5017369229905;-0.5997314453125;-0.00150451660156251;7.47999998111482;749;1 A
30.5117369229653;-0.599822998046875;-0.00148925781250001;7.48999998108957;750;1 A
30.52173692294;-0.5997314453125;-0.001507568359375;7.49999998106432;751;1 A
30.5317369229148;-0.5997314453125;-0.00150146484374999;7.50999998103907;752;1 A
30.5417369228895;-0.5997314453125;-0.0014923095703125;7.51999998101383;753;1 A
30.5517369228643;-0.599761962890625;-0.00150146484374999;7.52999998098858;754;1 A
30.561736922839;-0.599700927734375;-0.00148925781250001;7.53999998096333;755;1 A
30.5717369228138;-0.599700927734375;-0.00150451660156251;7.54999998093808;756;1 A
30.5817369227885;-0.5997314453125;-0.0014984130859375;7.55999998091283;757;1 A
30.5917369227633;-0.59979248046875;-0.00148925781250001;7.56999998088759;758;1 A
30.601736922738;-0.599761962890625;-0.00150451660156251;7.57999998086234;759;1 A
30.6117369227128;-0.599700927734375;-0.00148620605468749;7.58999998083709;760;1 A
30.6217369226875;-0.5997314453125;-0.001513671875;7.59999998081184;761;1 A
30.6317369226623;-0.599761962890625;-0.00150451660156251;7.6099999807866;762;1 A
30.6417369226371;-0.599700927734375;-0.00150146484374999;7.61999998076135;763;1 A
30.6517369226118;-0.5997314453125;-0.00150451660156251;7.6299999807361;764;1 A
30.6617369225866;-0.59979248046875;-0.0014923095703125;7.63999998071085;765;1 A
30.6717369225613;-0.599761962890625;-0.00151672363281249;7.64999998068561;766;1 A
30.6817369225361;-0.599761962890625;-0.0015106201171875;7.65999998066036;767;1 A
30.6917369225108;-0.5997314453125;-0.00150146484374999;7.66999998063511;768;1 A
30.7017369224856;-0.599761962890625;-0.0015106201171875;7.67999998060986;769;1 A
30.7117369224603;-0.599761962890625;-0.0014923095703125;7.68999998058462;770;1 A
30.7217369224351;-0.59979248046875;-0.00151672363281249;7.69999998055937;771;1 A
30.7317369224098;-0.599761962890625;-0.00150451660156251;7.70999998053412;772;1 A
30.7417369223846;-0.59979248046875;-0.00150146484374999;7.71999998050887;773;1 A
30.7517369223593;-0.59979248046875;-0.0015106201171875;7.72999998048363;774;1 A
30.7617369223341;-0.59967041015625;-0.0014923095703125;7.73999998045838;775;1 A
30.7717369223088;-0.599700927734375;-0.001513671875;7.74999998043313;776;1 A
30.7817369222836;-0.599761962890625;-0.001507568359375;7.75999998040788;777;1 A
30.7917369222583;-0.599761962890625;-0.001507568359375;7.76999998038264;778;1 A
30.8017369222331;-0.599761962890625;-0.001513671875;7.77999998035739;779;1 A
30.8117369222078;-0.599761962890625;-0.0014984130859375;7.78999998033214;780;1 A
30.8217369221826;-0.599761962890625;-0.00152587890625;7.79999998030689;781;1 A
30.8317369221573;-0.5997314453125;-0.0015106201171875;7.80999998028165;782;1 A
30.8417369221321;-0.599761962890625;-0.001507568359375;7.8199999802564;783;1 A
30.8517369221069;-0.599761962890625;-0.00151977539062501;7.82999998023115;784;1 A
30.8617369220816;-0.599700927734375;-0.001507568359375;7.8399999802059;785;1 A
30.8717369220564;-0.599761962890625;-0.00152587890625;7.84999998018066;786;1 A
30.8817369220311;-0.5997314453125;-0.00151977539062501;7.85999998015541;787;1 A
30.8917369220059;-0.59967041015625;-0.00151672363281249;7.86999998013016;788;1 A
30.9017369219806;-0.599761962890625;-0.00152587890625;7.87999998010491;789;1 A
30.9117369219554;-0.5997314453125;-0.001513671875;7.88999998007966;790;1 A
30.9217369219301;-0.599761962890625;-0.0015380859375;7.89999998005442;791;1 A
30.9317369219049;-0.599761962890625;-0.00152587890625;7.90999998002917;792;1 A
30.9417369218796;-0.5997314453125;-0.0015228271484375;7.91999998000392;793;1 A
30.9517369218544;-0.5997314453125;-0.00153503417968751;7.92999997997867;794;1 A
30.9617369218291;-0.59979248046875;-0.00151977539062501;7.93999997995343;795;1 A
30.9717369218039;-0.599761962890625;-0.0015380859375;7.94999997992818;796;1 A
30.9817369217786;-0.599761962890625;-0.00153198242187499;7.95999997990293;797;1 A
30.9917369217534;-0.599761962890625;-0.00153198242187499;7.96999997987768;798;1 A
31.0017369217281;-0.59979248046875;-0.00153503417968751;7.97999997985244;799;1 A
31.0117369217029;-0.599761962890625;-0.00152587890625;7.98999997982719;800;1 A
31.0217369216776;-0.5997314453125;-0.00154724121093749;7.99999997980194;801;1 A
31.0317369216524;-0.599700927734375;-0.0015411376953125;8.00999997977669;802;1 A
31.0417369216271;-0.599761962890625;-0.00153503417968751;8.01999997975145;803;1 A
31.0517369216019;-0.599700927734375;-0.00155029296875001;8.0299999797262;804;1 A
31.0617369215767;-0.5997314453125;-0.00153503417968751;8.03999997970095;805;1 A
31.0717369215514;-0.599761962890625;-0.00155029296875001;8.0499999796757;806;1 A
31.0817369215262;-0.599761962890625;-0.001544189453125;8.05999997965046;807;1 A
31.0917369215009;-0.599761962890625;-0.001544189453125;8.06999997962521;808;1 A
31.1017369214757;-0.5997314453125;-0.001556396484375;8.07999997959996;809;1 A
31.1117369214504;-0.5997314453125;-0.00153503417968751;8.08999997957471;810;1 A
31.1217369214252;-0.599761962890625;-0.001556396484375;8.09999997954947;811;1 A
31.1317369213999;-0.5997314453125;-0.0015533447265625;8.10999997952422;812;1 A
31.1417369213747;-0.5997314453125;-0.0015533447265625;8.11999997949897;813;1 A
31.1517369213494;-0.5997314453125;-0.00156249999999999;8.12999997947372;814;1 A
31.1617369213242;-0.59979248046875;-0.001544189453125;8.13999997944848;815;1 A
31.1717369212989;-0.5997314453125;-0.0015716552734375;8.14999997942323;816;1 A
31.1817369212737;-0.5997314453125;-0.0015594482421875;8.15999997939798;817;1 A
31.1917369212484;-0.599761962890625;-0.0015594482421875;8.16999997937273;818;1 A
31.2017369212232;-0.599700927734375;-0.0015716552734375;8.17999997934749;819;1 A
31.2117369211979;-0.5997314453125;-0.001556396484375;8.18999997932224;820;1 A
31.2217369211727;-0.599761962890625;-0.00158081054687501;8.19999997929699;821;1 A
31.2317369211474;-0.599700927734375;-0.0015716552734375;8.20999997927174;822;1 A
31.2417369211222;-0.599761962890625;-0.001568603515625;8.2199999792465;823;1 A
31.2517369210969;-0.5997314453125;-0.00157470703125;8.22999997922125;824;1 A
31.2617369210717;-0.5997314453125;-0.00156249999999999;8.239999979196;825;1 A
31.2717369210465;-0.59979248046875;-0.0015899658203125;8.24999997917075;826;1 A
31.2817369210212;-0.599761962890625;-0.0015838623046875;8.2599999791455;827;1 A
31.291736920996;-0.5997314453125;-0.00157470703125;8.26999997912026;828;1 A
31.3017369209707;-0.599761962890625;-0.0015838623046875;8.27999997909501;829;1 A
31.3117369209455;-0.599761962890625;-0.001568603515625;8.28999997906976;830;1 A
31.3217369209202;-0.599761962890625;-0.0015869140625;8.29999997904451;831;1 A
31.331736920895;-0.599700927734375;-0.0015869140625;8.30999997901927;832;1 A
31.3417369208697;-0.5997314453125;-0.00157470703125;8.31999997899402;833;1 A
31.3517369208445;-0.5997314453125;-0.0015869140625;8.32999997896877;834;1 A
31.3617369208192;-0.599700927734375;-0.00157470703125;8.33999997894352;835;1 A
31.371736920794;-0.5997314453125;-0.00159606933593751;8.34999997891828;836;1 A
31.3817369207687;-0.599700927734375;-0.0015869140625;8.35999997889303;837;1 A
31.3917369207435;-0.599761962890625;-0.0015899658203125;8.36999997886778;838;1 A
31.4017369207182;-0.599761962890625;-0.00159301757812499;8.37999997884253;839;1 A
31.411736920693;-0.59979248046875;-0.0015838623046875;8.38999997881729;840;1 A
31.4217369206677;-0.5997314453125;-0.00160827636718749;8.39999997879204;841;1 A
31.4317369206425;-0.59979248046875;-0.00159912109375;8.40999997876679;842;1 A
31.4417369206172;-0.599761962890625;-0.00159606933593751;8.41999997874154;843;1 A
31.451736920592;-0.599761962890625;-0.00160827636718749;8.4299999787163;844;1 A
31.4617369205668;-0.5997314453125;-0.00159301757812499;8.43999997869105;845;1 A
31.4717369205415;-0.59979248046875;-0.0016143798828125;8.4499999786658;846;1 A
31.4817369205163;-0.599761962890625;-0.0016021728515625;8.45999997864055;847;1 A
31.491736920491;-0.5997314453125;-0.00159912109375;8.46999997861531;848;1 A
31.5017369204658;-0.59979248046875;-0.001605224609375;8.47999997859006;849;1 A
31.5117369204405;-0.5997314453125;-0.00159301757812499;8.48999997856481;850;1 A
31.5217369204153;-0.599761962890625;-0.0016204833984375;8.49999997853956;851;1 A
31.53173692039;-0.599700927734375;-0.00161132812500001;8.50999997851432;852;1 A
31.5417369203648;-0.599761962890625;-0.001605224609375;8.51999997848907;853;1 A
31.5517369203395;-0.5997314453125;-0.0016143798828125;8.52999997846382;854;1 A
31.5617369203143;-0.59979248046875;-0.00159606933593751;8.53999997843857;855;1 A
31.571736920289;-0.599700927734375;-0.0016204833984375;8.54999997841333;856;1 A
31.5817369202638;-0.599700927734375;-0.0016143798828125;8.55999997838808;857;1 A
31.5917369202385;-0.59979248046875;-0.00161132812500001;8.56999997836283;858;1 A
31.6017369202133;-0.5997314453125;-0.00162353515624999;8.57999997833758;859;1 A
31.611736920188;-0.59979248046875;-0.00160827636718749;8.58999997831233;860;1 A
31.6217369201628;-0.59979248046875;-0.001629638671875;8.59999997828709;861;1 A
31.6317369201375;-0.59979248046875;-0.0016204833984375;8.60999997826184;862;1 A
31.6417369201123;-0.599700927734375;-0.001617431640625;8.61999997823659;863;1 A
31.651736920087;-0.5997314453125;-0.0016204833984375;8.62999997821134;864;1 A
31.6617369200618;-0.599700927734375;-0.0016143798828125;8.6399999781861;865;1 A
31.6717369200366;-0.599761962890625;-0.0016357421875;8.64999997816085;866;1 A
31.6817369200113;-0.599761962890625;-0.00162658691406251;8.6599999781356;867;1 A
31.6917369199861;-0.5997314453125;-0.00162353515624999;8.66999997811035;868;1 A
31.7017369199608;-0.5997314453125;-0.0016326904296875;8.67999997808511;869;1 A
31.7117369199356;-0.599761962890625;-0.0016204833984375;8.68999997805986;870;1 A
31.7217369199103;-0.599761962890625;-0.00163879394531249;8.69999997803461;871;1 A
31.7317369198851;-0.599761962890625;-0.001629638671875;8.70999997800936;872;1 A
31.7417369198598;-0.599761962890625;-0.0016204833984375;8.71999997798412;873;1 A
31.7517369198346;-0.5997314453125;-0.0016326904296875;8.72999997795887;874;1 A
31.7617369198093;-0.5997314453125;-0.001629638671875;8.73999997793362;875;1 A
31.7717369197841;-0.599761962890625;-0.00164184570312501;8.74999997790837;876;1 A
31.7817369197588;-0.599761962890625;-0.00163879394531249;8.75999997788313;877;1 A
31.7917369197336;-0.59979248046875;-0.001629638671875;8.76999997785788;878;1 A
31.8017369197083;-0.599761962890625;-0.00164184570312501;8.77999997783263;879;1 A
31.8117369196831;-0.599761962890625;-0.001629638671875;8.78999997780738;880;1 A
31.8217369196578;-0.599700927734375;-0.0016510009765625;8.79999997778214;881;1 A
31.8317369196326;-0.599822998046875;-0.00164184570312501;8.80999997775689;882;1 A
31.8417369196073;-0.5997314453125;-0.00163879394531249;8.81999997773164;883;1 A
31.8517369195821;-0.5997314453125;-0.0016448974609375;8.82999997770639;884;1 A
31.8617369195568;-0.5997314453125;-0.0016357421875;8.83999997768115;885;1 A
31.8717369195316;-0.599700927734375;-0.00165405273437499;8.8499999776559;886;1 A
31.8817369195064;-0.599761962890625;-0.00164794921875;8.85999997763065;887;1 A
31.8917369194811;-0.59979248046875;-0.00164184570312501;8.8699999776054;888;1 A
31.9017369194559;-0.599761962890625;-0.00165405273437499;8.87999997758016;889;1 A
31.9117369194306;-0.599700927734375;-0.00163879394531249;8.88999997755491;890;1 A
31.9217369194054;-0.599761962890625;-0.00165710449218751;8.89999997752966;891;1 A
31.9317369193801;-0.599761962890625;-0.00165405273437499;8.90999997750441;892;1 A
31.9417369193549;-0.599700927734375;-0.0016510009765625;8.91999997747916;893;1 A
31.9517369193296;-0.599761962890625;-0.00165710449218751;8.92999997745392;894;1 A
31.9617369193044;-0.599822998046875;-0.00164184570312501;8.93999997742867;895;1 A
31.9717369192791;-0.59979248046875;-0.00165710449218751;8.94999997740342;896;1 A
31.9817369192539;-0.599761962890625;-0.00164794921875;8.95999997737817;897;1 A
31.9917369192286;-0.5997314453125;-0.0016448974609375;8.96999997735293;898;1 A
32.0017369192034;-0.599761962890625;-0.0016510009765625;8.97999997732768;899;1 A
32.0117369191781;-0.5997314453125;-0.00163879394531249;8.98999997730243;900;1 A
32.0217369191529;-0.5997314453125;-0.00166015625;8.99999997727718;901;1 A
32.0317369191276;-0.59979248046875;-0.00164794921875;9.00999997725194;902;1 A
32.0417369191024;-0.5997314453125;-0.00164794921875;9.01999997722669;903;1 A
32.0517369190771;-0.5997314453125;-0.00165405273437499;9.02999997720144;904;1 A
32.0617369190519;-0.599700927734375;-0.00164184570312501;9.03999997717619;905;1 A
32.0717369190266;-0.599761962890625;-0.001666259765625;9.04999997715095;906;1 A
32.0817369190014;-0.599761962890625;-0.00165405273437499;9.0599999771257;907;1 A
32.0917369189762;-0.59979248046875;-0.0016510009765625;9.06999997710045;908;1 A
32.1017369189509;-0.599700927734375;-0.00165405273437499;9.0799999770752;909;1 A
32.1117369189257;-0.599761962890625;-0.00163879394531249;9.08999997704996;910;1 A
32.1217369189004;-0.599700927734375;-0.00166015625;9.09999997702471;911;1 A
32.1317369188752;-0.5997314453125;-0.00164794921875;9.10999997699946;912;1 A
32.1417369188499;-0.599761962890625;-0.00164794921875;9.11999997697421;913;1 A
32.1517369188247;-0.599761962890625;-0.00165405273437499;9.12999997694897;914;1 A
32.1617369187994;-0.599761962890625;-0.0016448974609375;9.13999997692372;915;1 A
32.1717369187742;-0.599822998046875;-0.0016632080078125;9.14999997689847;916;1 A
32.1817369187489;-0.599761962890625;-0.00166015625;9.15999997687322;917;1 A
32.1917369187237;-0.599761962890625;-0.00165405273437499;9.16999997684798;918;1 A
32.2017369186984;-0.59979248046875;-0.0016632080078125;9.17999997682273;919;1 A
32.2117369186732;-0.59979248046875;-0.0016448974609375;9.18999997679748;920;1 A
32.2217369186479;-0.59979248046875;-0.001666259765625;9.19999997677223;921;1 A
32.2317369186227;-0.5997314453125;-0.00165405273437499;9.20999997674699;922;1 A
32.2417369185974;-0.5997314453125;-0.0016510009765625;9.21999997672174;923;1 A
32.2517369185722;-0.5997314453125;-0.00165710449218751;9.22999997669649;924;1 A
32.2617369185469;-0.59979248046875;-0.0016448974609375;9.23999997667124;925;1 A
32.2717369185217;-0.59979248046875;-0.00166015625;9.249999976646;926;1 A
32.2817369184964;-0.5997314453125;-0.00164794921875;9.25999997662075;927;1 A
32.2917369184712;-0.599761962890625;-0.0016448974609375;9.2699999765955;928;1 A
32.301736918446;-0.599761962890625;-0.00165710449218751;9.27999997657025;929;1 A
32.3117369184207;-0.59979248046875;-0.00164794921875;9.289999976545;930;1 A
32.3217369183955;-0.599761962890625;-0.00166015625;9.29999997651976;931;1 A
32.3317369183702;-0.59979248046875;-0.0016510009765625;9.30999997649451;932;1 A
32.341736918345;-0.5997314453125;-0.0016448974609375;9.31999997646926;933;1 A
32.3517369183197;-0.599761962890625;-0.00165710449218751;9.32999997644401;934;1 A
32.3617369182945;-0.599761962890625;-0.00164184570312501;9.33999997641877;935;1 A
32.3717369182692;-0.59979248046875;-0.00165710449218751;9.34999997639352;936;1 A
32.381736918244;-0.599761962890625;-0.00165405273437499;9.35999997636827;937;1 A
32.3917369182187;-0.599761962890625;-0.0016510009765625;9.36999997634302;938;1 A
32.4017369181935;-0.59979248046875;-0.00166015625;9.37999997631778;939;1 A
32.4117369181682;-0.599761962890625;-0.0016448974609375;9.38999997629253;940;1 A
32.421736918143;-0.59979248046875;-0.00165710449218751;9.39999997626728;941;1 A
32.4317369181177;-0.5997314453125;-0.00165405273437499;9.40999997624203;942;1 A
32.4417369180925;-0.5997314453125;-0.0016448974609375;9.41999997621679;943;1 A
32.4517369180672;-0.5997314453125;-0.00165405273437499;9.42999997619154;944;1 A
32.461736918042;-0.5997314453125;-0.0016357421875;9.43999997616629;945;1 A
32.4717369180167;-0.599700927734375;-0.00165405273437499;9.44999997614104;946;1 A
32.4817369179915;-0.599761962890625;-0.0016448974609375;9.4599999761158;947;1 A
32.4917369179663;-0.599761962890625;-0.00164184570312501;9.46999997609055;948;1 A
32.501736917941;-0.599761962890625;-0.00164794921875;9.4799999760653;949;1 A
32.5117369179158;-0.599761962890625;-0.0016326904296875;9.48999997604005;950;1 A
32.5217369178905;-0.599700927734375;-0.0016510009765625;9.49999997601481;951;1 A
32.5317369178653;-0.599639892578125;-0.0016448974609375;9.50999997598956;952;1 A
32.54173691784;-0.5997314453125;-0.00163879394531249;9.51999997596431;953;1 A
32.5517369178148;-0.5997314453125;-0.0016448974609375;9.52999997593906;954;1 A
32.5617369177895;-0.599761962890625;-0.0016326904296875;9.53999997591382;955;1 A
32.5717369177643;-0.599761962890625;-0.0016448974609375;9.54999997588857;956;1 A
32.581736917739;-0.5997314453125;-0.00163879394531249;9.55999997586332;957;1 A
32.5917369177138;-0.59979248046875;-0.0016357421875;9.56999997583807;958;1 A
32.6017369176885;-0.59979248046875;-0.00164794921875;9.57999997581283;959;1 A
32.6117369176633;-0.599761962890625;-0.0016326904296875;9.58999997578758;960;1 A
32.621736917638;-0.599700927734375;-0.00165405273437499;9.59999997576233;961;1 A
32.6317369176128;-0.599761962890625;-0.0016448974609375;9.60999997573708;962;1 A
32.6417369175875;-0.5997314453125;-0.00164184570312501;9.61999997571183;963;1 A
32.6517369175623;-0.5997314453125;-0.00164794921875;9.62999997568659;964;1 A
32.661736917537;-0.59979248046875;-0.0016326904296875;9.63999997566134;965;1 A
32.6717369175118;-0.5997314453125;-0.00165710449218751;9.64999997563609;966;1 A
32.6817369174865;-0.5997314453125;-0.0016448974609375;9.65999997561084;967;1 A
32.6917369174613;-0.5997314453125;-0.00163879394531249;9.6699999755856;968;1 A
32.7017369174361;-0.599761962890625;-0.00164184570312501;9.67999997556035;969;1 A
32.7117369174108;-0.599761962890625;-0.001629638671875;9.6899999755351;970;1 A
32.7217369173856;-0.599700927734375;-0.0016510009765625;9.69999997550985;971;1 A
32.7317369173603;-0.599700927734375;-0.00164184570312501;9.70999997548461;972;1 A
32.7417369173351;-0.599700927734375;-0.00163879394531249;9.71999997545936;973;1 A
32.7517369173098;-0.599700927734375;-0.0016448974609375;9.72999997543411;974;1 A
32.7617369172846;-0.599761962890625;-0.00162658691406251;9.73999997540886;975;1 A
32.7717369172593;-0.599700927734375;-0.0016448974609375;9.74999997538362;976;1 A
32.7817369172341;-0.599761962890625;-0.00163879394531249;9.75999997535837;977;1 A
32.7917369172088;-0.599761962890625;-0.0016326904296875;9.76999997533312;978;1 A
32.8017369171836;-0.599761962890625;-0.00164184570312501;9.77999997530787;979;1 A
32.8117369171583;-0.599761962890625;-0.001629638671875;9.78999997528263;980;1 A
32.8217369171331;-0.599761962890625;-0.0016510009765625;9.79999997525738;981;1 A
32.8317369171078;-0.5997314453125;-0.0016448974609375;9.80999997523213;982;1 A
32.8417369170826;-0.599761962890625;-0.00164184570312501;9.81999997520688;983;1 A
32.8517369170573;-0.599761962890625;-0.0016448974609375;9.82999997518164;984;1 A
32.8617369170321;-0.599700927734375;-0.0016326904296875;9.83999997515639;985;1 A
32.8717369170068;-0.59979248046875;-0.00165710449218751;9.84999997513114;986;1 A
32.8817369169816;-0.59979248046875;-0.0016448974609375;9.85999997510589;987;1 A
32.8917369169563;-0.5997314453125;-0.00163879394531249;9.86999997508065;988;1 A
32.9017369169311;-0.599700927734375;-0.00164794921875;9.8799999750554;989;1 A
32.9117369169059;-0.5997314453125;-0.0016357421875;9.88999997503015;990;1 A
32.9217369168806;-0.599761962890625;-0.00165710449218751;9.8999999750049;991;1 A
32.9317369168554;-0.5997314453125;-0.00164184570312501;9.90999997497966;992;1 A
32.9417369168301;-0.599700927734375;-0.0016357421875;9.91999997495441;993;1 A
32.9517369168049;-0.599761962890625;-0.0016448974609375;9.92999997492916;994;1 A
32.9617369167796;-0.599761962890625;-0.001629638671875;9.93999997490391;995;1 A
32.9717369167544;-0.599761962890625;-0.0016448974609375;9.94999997487866;996;1 A
32.9817369167291;-0.599822998046875;-0.00163879394531249;9.95999997485342;997;1 A
32.9917369167039;-0.599761962890625;-0.001629638671875;9.96999997482817;998;1 A
33.0017369166786;-0.5997314453125;-0.0016326904296875;9.97999997480292;999;1 A
33.0117369166534;-0.599700927734375;-0.00162658691406251;9.98999997477767;1000;1 A
