Time (s);WE(1).Potential (V);WE(1).Current (A);Corrected time (s);Index;Current range
5.55639898597144;0.60089111328125;1.123046875;0;1;1 A
5.56639898594619;0.60003662109375;0.77362060546875;0.00999999997475243;2;1 A
5.57639898592095;0.599761962890625;0.6317138671875;0.0199999999495049;3;1 A
5.5863989858957;0.599639892578125;0.54840087890625;0.0299999999242573;4;1 A
5.59639898587045;0.599609375;0.49163818359375;0.0399999998990097;5;1 A
5.6063989858452;0.59967041015625;0.449737548828125;0.0499999998737621;6;1 A
5.61639898581996;0.599639892578125;0.41705322265625;0.0599999998485146;7;1 A
5.62639898579471;0.599609375;0.390655517578125;0.069999999823267;8;1 A
5.63639898576946;0.599609375;0.368743896484375;0.0799999997980194;9;1 A
5.64639898574421;0.599578857421875;0.3502197265625;0.0899999997727718;10;1 A
5.65639898571897;0.599639892578125;0.334228515625;0.0999999997475243;11;1 A
5.66639898569372;0.599578857421875;0.320281982421875;0.109999999722277;12;1 A
5.67639898566847;0.599609375;0.30792236328125;0.119999999697029;13;1 A
5.68639898564322;0.599578857421875;0.29693603515625;0.129999999671782;14;1 A
5.69639898561798;0.599609375;0.287078857421875;0.139999999646534;15;1 A
5.70639898559273;0.599578857421875;0.27813720703125;0.149999999621286;16;1 A
5.71639898556748;0.599609375;0.27001953125;0.159999999596039;17;1 A
5.72639898554223;0.599578857421875;0.2625732421875;0.169999999570791;18;1 A
5.73639898551698;0.599578857421875;0.255706787109375;0.179999999545544;19;1 A
5.74639898549174;0.59954833984375;0.2493896484375;0.189999999520296;20;1 A
5.75639898546649;0.599578857421875;0.243499755859375;0.199999999495049;21;1 A
5.76639898544124;0.599639892578125;0.238037109375;0.209999999469801;22;1 A
5.77639898541599;0.59954833984375;0.232940673828125;0.219999999444553;23;1 A
5.78639898539075;0.599578857421875;0.2281494140625;0.229999999419306;24;1 A
5.7963989853655;0.599609375;0.22369384765625;0.239999999394058;25;1 A
5.80639898534025;0.599578857421875;0.21942138671875;0.249999999368811;26;1 A
5.816398985315;0.599639892578125;0.2154541015625;0.259999999343563;27;1 A
5.82639898528976;0.599639892578125;0.211669921875;0.269999999318316;28;1 A
5.83639898526451;0.599578857421875;0.208099365234375;0.279999999293068;29;1 A
5.84639898523926;0.599578857421875;0.2047119140625;0.28999999926782;30;1 A
5.85639898521401;0.599517822265625;0.201507568359375;0.299999999242573;31;1 A
5.86639898518877;0.59954833984375;0.19842529296875;0.309999999217325;32;1 A
5.87639898516352;0.59967041015625;0.19549560546875;0.319999999192078;33;1 A
5.88639898513827;0.599609375;0.19268798828125;0.32999999916683;34;1 A
5.89639898511302;0.599639892578125;0.19000244140625;0.339999999141583;35;1 A
5.90639898508778;0.599578857421875;0.18743896484375;0.349999999116335;36;1 A
5.91639898506253;0.599609375;0.184967041015625;0.359999999091087;37;1 A
5.92639898503728;0.599609375;0.1826171875;0.36999999906584;38;1 A
5.93639898501203;0.599639892578125;0.180328369140625;0.379999999040592;39;1 A
5.94639898498679;0.599609375;0.17816162109375;0.389999999015345;40;1 A
5.95639898496154;0.599578857421875;0.176055908203125;0.399999998990097;41;1 A
5.96639898493629;0.599578857421875;0.17401123046875;0.40999999896485;42;1 A
5.97639898491104;0.599578857421875;0.17205810546875;0.419999998939602;43;1 A
5.9863989848858;0.59954833984375;0.170196533203125;0.429999998914354;44;1 A
5.99639898486055;0.599609375;0.16839599609375;0.439999998889107;45;1 A
6.0063989848353;0.599609375;0.166595458984375;0.449999998863859;46;1 A
6.01639898481005;0.599609375;0.164886474609375;0.459999998838612;47;1 A
6.02639898478481;0.599578857421875;0.163238525390625;0.469999998813364;48;1 A
6.03639898475956;0.59954833984375;0.161651611328125;0.479999998788116;49;1 A
6.04639898473431;0.599609375;0.16009521484375;0.489999998762869;50;1 A
6.05639898470906;0.599609375;0.1585693359375;0.499999998737621;51;1 A
6.06639898468381;0.599639892578125;0.1571044921875;0.509999998712374;52;1 A
6.07639898465857;0.599609375;0.155670166015625;0.519999998687126;53;1 A
6.08639898463332;0.599578857421875;0.154296875;0.529999998661879;54;1 A
6.09639898460807;0.599609375;0.1529541015625;0.539999998636631;55;1 A
6.10639898458282;0.599578857421875;0.151641845703125;0.549999998611383;56;1 A
6.11639898455758;0.59967041015625;0.150390625;0.559999998586136;57;1 A
6.12639898453233;0.599609375;0.149139404296875;0.569999998560888;58;1 A
6.13639898450708;0.599578857421875;0.147918701171875;0.579999998535641;59;1 A
6.14639898448183;0.599609375;0.146759033203125;0.589999998510393;60;1 A
6.15639898445659;0.599578857421875;0.145599365234375;0.599999998485146;61;1 A
6.16639898443134;0.599609375;0.144500732421875;0.609999998459898;62;1 A
6.17639898440609;0.599578857421875;0.143402099609375;0.61999999843465;63;1 A
6.18639898438084;0.599609375;0.142333984375;0.629999998409403;64;1 A
6.1963989843556;0.599609375;0.14129638671875;0.639999998384155;65;1 A
6.20639898433035;0.599609375;0.140289306640625;0.649999998358908;66;1 A
6.2163989843051;0.599609375;0.1392822265625;0.65999999833366;67;1 A
6.22639898427985;0.599578857421875;0.1383056640625;0.669999998308413;68;1 A
6.23639898425461;0.59954833984375;0.137359619140625;0.679999998283165;69;1 A
6.24639898422936;0.599609375;0.136444091796875;0.689999998257917;70;1 A
6.25639898420411;0.599639892578125;0.135528564453125;0.69999999823267;71;1 A
6.26639898417886;0.599609375;0.1346435546875;0.709999998207422;72;1 A
6.27639898415362;0.599578857421875;0.133758544921875;0.719999998182175;73;1 A
6.28639898412837;0.599609375;0.132904052734375;0.729999998156927;74;1 A
6.29639898410312;0.599609375;0.132080078125;0.73999999813168;75;1 A
6.30639898407787;0.599639892578125;0.131256103515625;0.749999998106432;76;1 A
6.31639898405263;0.59954833984375;0.130462646484375;0.759999998081184;77;1 A
6.32639898402738;0.599609375;0.129669189453125;0.769999998055937;78;1 A
6.33639898400213;0.599578857421875;0.128875732421875;0.779999998030689;79;1 A
6.34639898397688;0.599578857421875;0.128143310546875;0.789999998005442;80;1 A
6.35639898395164;0.599639892578125;0.12738037109375;0.799999997980194;81;1 A
6.36639898392639;0.599578857421875;0.12664794921875;0.809999997954947;82;1 A
6.37639898390114;0.599578857421875;0.125946044921875;0.819999997929699;83;1 A
6.38639898387589;0.599639892578125;0.125213623046875;0.829999997904451;84;1 A
6.39639898385064;0.599609375;0.124542236328125;0.839999997879204;85;1 A
6.4063989838254;0.599639892578125;0.123870849609375;0.849999997853956;86;1 A
6.41639898380015;0.599578857421875;0.123199462890625;0.859999997828709;87;1 A
6.4263989837749;0.599609375;0.122528076171875;0.869999997803461;88;1 A
6.43639898374965;0.599609375;0.12188720703125;0.879999997778214;89;1 A
6.44639898372441;0.599609375;0.12127685546875;0.889999997752966;90;1 A
6.45639898369916;0.599639892578125;0.120635986328125;0.899999997727718;91;1 A
6.46639898367391;0.599639892578125;0.120025634765625;0.909999997702471;92;1 A
6.47639898364866;0.599578857421875;0.119415283203125;0.919999997677223;93;1 A
6.48639898362342;0.599609375;0.11883544921875;0.929999997651976;94;1 A
6.49639898359817;0.599609375;0.118255615234375;0.939999997626728;95;1 A
6.50639898357292;0.599639892578125;0.11767578125;0.949999997601481;96;1 A
6.51639898354767;0.599609375;0.11712646484375;0.959999997576233;97;1 A
6.52639898352243;0.599609375;0.116546630859375;0.969999997550985;98;1 A
6.53639898349718;0.599609375;0.11602783203125;0.979999997525738;99;1 A
6.54639898347193;0.599609375;0.115478515625;0.98999999750049;100;1 A
6.55639898344668;0.599639892578125;0.11492919921875;0.999999997475243;101;1 A
6.56639898342144;0.59967041015625;0.114410400390625;1.00999999745;102;1 A
6.57639898339619;0.599578857421875;0.113922119140625;1.01999999742475;103;1 A
6.58639898337094;0.599639892578125;0.1134033203125;1.0299999973995;104;1 A
6.59639898334569;0.599609375;0.1129150390625;1.03999999737425;105;1 A
6.60639898332045;0.599609375;0.112396240234375;1.049999997349;106;1 A
6.6163989832952;0.599609375;0.111907958984375;1.05999999732376;107;1 A
6.62639898326995;0.599609375;0.1114501953125;1.06999999729851;108;1 A
6.6363989832447;0.599609375;0.1109619140625;1.07999999727326;109;1 A
6.64639898321946;0.599578857421875;0.110504150390625;1.08999999724801;110;1 A
6.65639898319421;0.599609375;0.11004638671875;1.09999999722277;111;1 A
6.66639898316896;0.599639892578125;0.109588623046875;1.10999999719752;112;1 A
6.67639898314371;0.599639892578125;0.109161376953125;1.11999999717227;113;1 A
6.68639898311847;0.599639892578125;0.108734130859375;1.12999999714702;114;1 A
6.69639898309322;0.59967041015625;0.108306884765625;1.13999999712178;115;1 A
6.70639898306797;0.59954833984375;0.107879638671875;1.14999999709653;116;1 A
6.71639898304272;0.599639892578125;0.107452392578125;1.15999999707128;117;1 A
6.72639898301748;0.59967041015625;0.107025146484375;1.16999999704603;118;1 A
6.73639898299223;0.599578857421875;0.10662841796875;1.17999999702079;119;1 A
6.74639898296698;0.59954833984375;0.106231689453125;1.18999999699554;120;1 A
6.75639898294173;0.599578857421875;0.105804443359375;1.19999999697029;121;1 A
6.76639898291648;0.599639892578125;0.10540771484375;1.20999999694504;122;1 A
6.77639898289124;0.599609375;0.10504150390625;1.2199999969198;123;1 A
6.78639898286599;0.59954833984375;0.104644775390625;1.22999999689455;124;1 A
6.79639898284074;0.599639892578125;0.104278564453125;1.2399999968693;125;1 A
6.80639898281549;0.599578857421875;0.1038818359375;1.24999999684405;126;1 A
6.81639898279025;0.599609375;0.103515625;1.25999999681881;127;1 A
6.826398982765;0.59954833984375;0.1031494140625;1.26999999679356;128;1 A
6.83639898273975;0.59954833984375;0.102783203125;1.27999999676831;129;1 A
6.8463989827145;0.59954833984375;0.102447509765625;1.28999999674306;130;1 A
6.85639898268926;0.599609375;0.102081298828125;1.29999999671782;131;1 A
6.86639898266401;0.599609375;0.10174560546875;1.30999999669257;132;1 A
6.87639898263876;0.599578857421875;0.10137939453125;1.31999999666732;133;1 A
6.88639898261351;0.599639892578125;0.101043701171875;1.32999999664207;134;1 A
6.89639898258827;0.599609375;0.100738525390625;1.33999999661683;135;1 A
6.90639898256302;0.599639892578125;0.100372314453125;1.34999999659158;136;1 A
6.91639898253777;0.599639892578125;0.100067138671875;1.35999999656633;137;1 A
6.92639898251252;0.599609375;0.0997314453125;1.36999999654108;138;1 A
6.93639898248728;0.599578857421875;0.099395751953125;1.37999999651583;139;1 A
6.94639898246203;0.59954833984375;0.099090576171875;1.38999999649059;140;1 A
6.95639898243678;0.599639892578125;0.098785400390625;1.39999999646534;141;1 A
6.96639898241153;0.599609375;0.098480224609375;1.40999999644009;142;1 A
6.97639898238629;0.599578857421875;0.09814453125;1.41999999641484;143;1 A
6.98639898236104;0.599639892578125;0.09783935546875;1.4299999963896;144;1 A
6.99639898233579;0.59967041015625;0.097564697265625;1.43999999636435;145;1 A
7.00639898231054;0.599609375;0.097259521484375;1.4499999963391;146;1 A
7.0163989822853;0.599639892578125;0.096954345703125;1.45999999631385;147;1 A
7.02639898226005;0.599609375;0.0966796875;1.46999999628861;148;1 A
7.0363989822348;0.599639892578125;0.09637451171875;1.47999999626336;149;1 A
7.04639898220955;0.59954833984375;0.096099853515625;1.48999999623811;150;1 A
7.05639898218431;0.599609375;0.0958251953125;1.49999999621286;151;1 A
7.06639898215906;0.599639892578125;0.09552001953125;1.50999999618762;152;1 A
7.07639898213381;0.599639892578125;0.095245361328125;1.51999999616237;153;1 A
7.08639898210856;0.59967041015625;0.094970703125;1.52999999613712;154;1 A
7.09639898208331;0.599578857421875;0.0947265625;1.53999999611187;155;1 A
7.10639898205807;0.599609375;0.094451904296875;1.54999999608663;156;1 A
7.11639898203282;0.599639892578125;0.09417724609375;1.55999999606138;157;1 A
7.12639898200757;0.599639892578125;0.09393310546875;1.56999999603613;158;1 A
7.13639898198232;0.59954833984375;0.093658447265625;1.57999999601088;159;1 A
7.14639898195708;0.599609375;0.093414306640625;1.58999999598564;160;1 A
7.15639898193183;0.599609375;0.0931396484375;1.59999999596039;161;1 A
7.16639898190658;0.599609375;0.0928955078125;1.60999999593514;162;1 A
7.17639898188133;0.599578857421875;0.0926513671875;1.61999999590989;163;1 A
7.18639898185609;0.599609375;0.0924072265625;1.62999999588465;164;1 A
7.19639898183084;0.599609375;0.0921630859375;1.6399999958594;165;1 A
7.20639898180559;0.599578857421875;0.0919189453125;1.64999999583415;166;1 A
7.21639898178034;0.599578857421875;0.0916748046875;1.6599999958089;167;1 A
7.2263989817551;0.59954833984375;0.0914306640625;1.66999999578366;168;1 A
7.23639898172985;0.599639892578125;0.0911865234375;1.67999999575841;169;1 A
7.2463989817046;0.599578857421875;0.090972900390625;1.68999999573316;170;1 A
7.25639898167935;0.599639892578125;0.090728759765625;1.69999999570791;171;1 A
7.26639898165411;0.599639892578125;0.09051513671875;1.70999999568267;172;1 A
7.27639898162886;0.599639892578125;0.090301513671875;1.71999999565742;173;1 A
7.28639898160361;0.599609375;0.090057373046875;1.72999999563217;174;1 A
7.29639898157836;0.599639892578125;0.08984375;1.73999999560692;175;1 A
7.30639898155312;0.599609375;0.089599609375;1.74999999558167;176;1 A
7.31639898152787;0.599609375;0.089385986328125;1.75999999555643;177;1 A
7.32639898150262;0.599609375;0.08917236328125;1.76999999553118;178;1 A
7.33639898147737;0.599609375;0.088958740234375;1.77999999550593;179;1 A
7.34639898145213;0.599639892578125;0.088775634765625;1.78999999548068;180;1 A
7.35639898142688;0.59954833984375;0.088531494140625;1.79999999545544;181;1 A
7.36639898140163;0.599578857421875;0.08831787109375;1.80999999543019;182;1 A
7.37639898137638;0.59954833984375;0.088134765625;1.81999999540494;183;1 A
7.38639898135114;0.599609375;0.087921142578125;1.82999999537969;184;1 A
7.39639898132589;0.599639892578125;0.08770751953125;1.83999999535445;185;1 A
7.40639898130064;0.599578857421875;0.087493896484375;1.8499999953292;186;1 A
7.41639898127539;0.599578857421875;0.087310791015625;1.85999999530395;187;1 A
7.42639898125014;0.599639892578125;0.08709716796875;1.8699999952787;188;1 A
7.4363989812249;0.599578857421875;0.0869140625;1.87999999525346;189;1 A
7.44639898119965;0.599639892578125;0.08673095703125;1.88999999522821;190;1 A
7.4563989811744;0.599609375;0.086517333984375;1.89999999520296;191;1 A
7.46639898114915;0.59954833984375;0.086334228515625;1.90999999517771;192;1 A
7.47639898112391;0.599609375;0.08612060546875;1.91999999515247;193;1 A
7.48639898109866;0.599578857421875;0.0859375;1.92999999512722;194;1 A
7.49639898107341;0.599578857421875;0.085784912109375;1.93999999510197;195;1 A
7.50639898104816;0.59967041015625;0.0855712890625;1.94999999507672;196;1 A
7.51639898102292;0.599609375;0.08538818359375;1.95999999505148;197;1 A
7.52639898099767;0.599609375;0.085205078125;1.96999999502623;198;1 A
7.53639898097242;0.599609375;0.08502197265625;1.97999999500098;199;1 A
7.54639898094717;0.599639892578125;0.0848388671875;1.98999999497573;200;1 A
7.55639898092193;0.599609375;0.08465576171875;1.99999999495049;201;1 A
7.56639898089668;0.599609375;0.08447265625;2.00999999492524;202;1 A
7.57639898087143;0.599639892578125;0.084320068359375;2.01999999489999;203;1 A
7.58639898084618;0.599639892578125;0.084136962890625;2.02999999487474;204;1 A
7.59639898082094;0.599609375;0.083953857421875;2.0399999948495;205;1 A
7.60639898079569;0.599609375;0.083770751953125;2.04999999482425;206;1 A
7.61639898077044;0.59967041015625;0.0836181640625;2.059999994799;207;1 A
7.62639898074519;0.599578857421875;0.08343505859375;2.06999999477375;208;1 A
7.63639898071995;0.599609375;0.083251953125;2.0799999947485;209;1 A
7.6463989806947;0.599578857421875;0.083099365234375;2.08999999472326;210;1 A
7.65639898066945;0.599578857421875;0.082916259765625;2.09999999469801;211;1 A
7.6663989806442;0.599639892578125;0.082763671875;2.10999999467276;212;1 A
7.67639898061896;0.599578857421875;0.082611083984375;2.11999999464751;213;1 A
7.68639898059371;0.599578857421875;0.082427978515625;2.12999999462227;214;1 A
7.69639898056846;0.599578857421875;0.082275390625;2.13999999459702;215;1 A
7.70639898054321;0.599609375;0.08209228515625;2.14999999457177;216;1 A
7.71639898051797;0.599578857421875;0.081939697265625;2.15999999454652;217;1 A
7.72639898049272;0.599578857421875;0.081787109375;2.16999999452128;218;1 A
7.73639898046747;0.599578857421875;0.081634521484375;2.17999999449603;219;1 A
7.74639898044222;0.599700927734375;0.08148193359375;2.18999999447078;220;1 A
7.75639898041698;0.599609375;0.081298828125;2.19999999444553;221;1 A
7.76639898039173;0.59954833984375;0.081146240234375;2.20999999442029;222;1 A
7.77639898036648;0.599609375;0.08099365234375;2.21999999439504;223;1 A
7.78639898034123;0.599639892578125;0.080841064453125;2.22999999436979;224;1 A
7.79639898031598;0.599609375;0.080718994140625;2.23999999434454;225;1 A
7.80639898029074;0.599639892578125;0.080535888671875;2.2499999943193;226;1 A
7.81639898026549;0.599609375;0.08038330078125;2.25999999429405;227;1 A
7.82639898024024;0.599609375;0.080230712890625;2.2699999942688;228;1 A
7.83639898021499;0.59967041015625;0.080078125;2.27999999424355;229;1 A
7.84639898018975;0.59967041015625;0.0799560546875;2.28999999421831;230;1 A
7.8563989801645;0.599609375;0.079803466796875;2.29999999419306;231;1 A
7.86639898013925;0.599578857421875;0.07965087890625;2.30999999416781;232;1 A
7.876398980114;0.59967041015625;0.079498291015625;2.31999999414256;233;1 A
7.88639898008876;0.59954833984375;0.079345703125;2.32999999411732;234;1 A
7.89639898006351;0.599609375;0.0792236328125;2.33999999409207;235;1 A
7.90639898003826;0.59967041015625;0.079071044921875;2.34999999406682;236;1 A
7.91639898001301;0.599639892578125;0.078948974609375;2.35999999404157;237;1 A
7.92639897998777;0.599609375;0.07879638671875;2.36999999401633;238;1 A
7.93639897996252;0.59954833984375;0.078643798828125;2.37999999399108;239;1 A
7.94639897993727;0.59967041015625;0.078521728515625;2.38999999396583;240;1 A
7.95639897991202;0.599639892578125;0.078369140625;2.39999999394058;241;1 A
7.96639897988678;0.599609375;0.0782470703125;2.40999999391533;242;1 A
7.97639897986153;0.599639892578125;0.078094482421875;2.41999999389009;243;1 A
7.98639897983628;0.599609375;0.077972412109375;2.42999999386484;244;1 A
7.99639897981103;0.599639892578125;0.077850341796875;2.43999999383959;245;1 A
8.00639897978579;0.599609375;0.07769775390625;2.44999999381434;246;1 A
8.01639897976054;0.599609375;0.07757568359375;2.4599999937891;247;1 A
8.02639897973529;0.599639892578125;0.07745361328125;2.46999999376385;248;1 A
8.03639897971004;0.599578857421875;0.077301025390625;2.4799999937386;249;1 A
8.0463989796848;0.59954833984375;0.077178955078125;2.48999999371335;250;1 A
8.05639897965955;0.599609375;0.077056884765625;2.49999999368811;251;1 A
8.0663989796343;0.599609375;0.076904296875;2.50999999366286;252;1 A
8.07639897960905;0.599578857421875;0.0767822265625;2.51999999363761;253;1 A
8.08639897958381;0.599609375;0.07666015625;2.52999999361236;254;1 A
8.09639897955856;0.599609375;0.0765380859375;2.53999999358712;255;1 A
8.10639897953331;0.599609375;0.076416015625;2.54999999356187;256;1 A
8.11639897950806;0.599639892578125;0.0762939453125;2.55999999353662;257;1 A
8.12639897948281;0.599700927734375;0.076141357421875;2.56999999351137;258;1 A
8.13639897945757;0.599609375;0.076019287109375;2.57999999348613;259;1 A
8.14639897943232;0.599578857421875;0.075897216796875;2.58999999346088;260;1 A
8.15639897940707;0.599609375;0.075775146484375;2.59999999343563;261;1 A
8.16639897938182;0.599700927734375;0.075653076171875;2.60999999341038;262;1 A
8.17639897935658;0.599639892578125;0.075531005859375;2.61999999338514;263;1 A
8.18639897933133;0.599609375;0.075408935546875;2.62999999335989;264;1 A
8.19639897930608;0.599639892578125;0.075286865234375;2.63999999333464;265;1 A
8.20639897928083;0.599639892578125;0.075164794921875;2.64999999330939;266;1 A
8.21639897925559;0.59954833984375;0.075042724609375;2.65999999328415;267;1 A
8.22639897923034;0.599609375;0.074920654296875;2.6699999932589;268;1 A
8.23639897920509;0.599578857421875;0.074798583984375;2.67999999323365;269;1 A
8.24639897917984;0.599639892578125;0.07470703125;2.6899999932084;270;1 A
8.2563989791546;0.59954833984375;0.074554443359375;2.69999999318316;271;1 A
8.26639897912935;0.599639892578125;0.074462890625;2.70999999315791;272;1 A
8.2763989791041;0.59967041015625;0.0743408203125;2.71999999313266;273;1 A
8.28639897907885;0.599609375;0.07421875;2.72999999310741;274;1 A
8.29639897905361;0.599639892578125;0.0740966796875;2.73999999308217;275;1 A
8.30639897902836;0.599578857421875;0.073974609375;2.74999999305692;276;1 A
8.31639897900311;0.599609375;0.0738525390625;2.75999999303167;277;1 A
8.32639897897786;0.599639892578125;0.073760986328125;2.76999999300642;278;1 A
8.33639897895262;0.599609375;0.073638916015625;2.77999999298117;279;1 A
8.34639897892737;0.599609375;0.07354736328125;2.78999999295593;280;1 A
8.35639897890212;0.599609375;0.073394775390625;2.79999999293068;281;1 A
8.36639897887687;0.599609375;0.07330322265625;2.80999999290543;282;1 A
8.37639897885163;0.599578857421875;0.07318115234375;2.81999999288018;283;1 A
8.38639897882638;0.59967041015625;0.07305908203125;2.82999999285494;284;1 A
8.39639897880113;0.599609375;0.072967529296875;2.83999999282969;285;1 A
8.40639897877588;0.599609375;0.072845458984375;2.84999999280444;286;1 A
8.41639897875064;0.59967041015625;0.07275390625;2.85999999277919;287;1 A
8.42639897872539;0.599609375;0.0726318359375;2.86999999275395;288;1 A
8.43639897870014;0.599609375;0.072509765625;2.8799999927287;289;1 A
8.44639897867489;0.599609375;0.072418212890625;2.88999999270345;290;1 A
8.45639897864964;0.599639892578125;0.072296142578125;2.8999999926782;291;1 A
8.4663989786244;0.599578857421875;0.07220458984375;2.90999999265296;292;1 A
8.47639897859915;0.599609375;0.072113037109375;2.91999999262771;293;1 A
8.4863989785739;0.599609375;0.071990966796875;2.92999999260246;294;1 A
8.49639897854865;0.599639892578125;0.0718994140625;2.93999999257721;295;1 A
8.50639897852341;0.599609375;0.07177734375;2.94999999255197;296;1 A
8.51639897849816;0.599639892578125;0.071685791015625;2.95999999252672;297;1 A
8.52639897847291;0.59967041015625;0.071563720703125;2.96999999250147;298;1 A
8.53639897844766;0.599578857421875;0.07147216796875;2.97999999247622;299;1 A
8.54639897842242;0.599609375;0.071380615234375;2.98999999245098;300;1 A
8.55639897839717;0.599578857421875;0.071258544921875;2.99999999242573;301;1 A
8.56639897837192;0.599609375;0.0711669921875;3.00999999240048;302;1 A
8.57639897834667;0.599578857421875;0.071075439453125;3.01999999237523;303;1 A
8.58639897832143;0.599639892578125;0.070953369140625;3.02999999234999;304;1 A
8.59639897829618;0.599609375;0.070892333984375;3.03999999232474;305;1 A
8.60639897827093;0.599609375;0.070770263671875;3.04999999229949;306;1 A
8.61639897824568;0.599578857421875;0.0706787109375;3.05999999227424;307;1 A
8.62639897822044;0.599639892578125;0.070587158203125;3.069999992249;308;1 A
8.63639897819519;0.599578857421875;0.070465087890625;3.07999999222375;309;1 A
8.64639897816994;0.599609375;0.070404052734375;3.0899999921985;310;1 A
8.65639897814469;0.599578857421875;0.070281982421875;3.09999999217325;311;1 A
8.66639897811945;0.599639892578125;0.0701904296875;3.109999992148;312;1 A
8.6763989780942;0.59954833984375;0.070098876953125;3.11999999212276;313;1 A
8.68639897806895;0.599639892578125;0.07000732421875;3.12999999209751;314;1 A
8.6963989780437;0.599609375;0.069915771484375;3.13999999207226;315;1 A
8.70639897801846;0.599578857421875;0.06982421875;3.14999999204701;316;1 A
8.71639897799321;0.599578857421875;0.069732666015625;3.15999999202177;317;1 A
8.72639897796796;0.599609375;0.06964111328125;3.16999999199652;318;1 A
8.73639897794271;0.599609375;0.06951904296875;3.17999999197127;319;1 A
8.74639897791747;0.599700927734375;0.0694580078125;3.18999999194602;320;1 A
8.75639897789222;0.599609375;0.069366455078125;3.19999999192078;321;1 A
8.76639897786697;0.599609375;0.06927490234375;3.20999999189553;322;1 A
8.77639897784172;0.599609375;0.069183349609375;3.21999999187028;323;1 A
8.78639897781648;0.599639892578125;0.069091796875;3.22999999184503;324;1 A
8.79639897779123;0.59967041015625;0.069000244140625;3.23999999181979;325;1 A
8.80639897776598;0.599639892578125;0.06890869140625;3.24999999179454;326;1 A
8.81639897774073;0.599578857421875;0.068817138671875;3.25999999176929;327;1 A
8.82639897771548;0.599578857421875;0.0687255859375;3.26999999174404;328;1 A
8.83639897769024;0.599609375;0.068634033203125;3.2799999917188;329;1 A
8.84639897766499;0.599639892578125;0.068572998046875;3.28999999169355;330;1 A
8.85639897763974;0.599609375;0.068450927734375;3.2999999916683;331;1 A
8.86639897761449;0.599609375;0.068359375;3.30999999164305;332;1 A
8.87639897758925;0.599609375;0.06829833984375;3.31999999161781;333;1 A
8.886398977564;0.599609375;0.06817626953125;3.32999999159256;334;1 A
8.89639897753875;0.59967041015625;0.068115234375;3.33999999156731;335;1 A
8.9063989775135;0.599639892578125;0.068023681640625;3.34999999154206;336;1 A
8.91639897748826;0.599609375;0.06793212890625;3.35999999151682;337;1 A
8.92639897746301;0.599700927734375;0.06787109375;3.36999999149157;338;1 A
8.93639897743776;0.599639892578125;0.067779541015625;3.37999999146632;339;1 A
8.94639897741251;0.599639892578125;0.06768798828125;3.38999999144107;340;1 A
8.95639897738727;0.599578857421875;0.067596435546875;3.39999999141583;341;1 A
8.96639897736202;0.599578857421875;0.067535400390625;3.40999999139058;342;1 A
8.97639897733677;0.599609375;0.06744384765625;3.41999999136533;343;1 A
8.98639897731152;0.599578857421875;0.067352294921875;3.42999999134008;344;1 A
8.99639897728628;0.599639892578125;0.067291259765625;3.43999999131483;345;1 A
9.00639897726103;0.599639892578125;0.06719970703125;3.44999999128959;346;1 A
9.01639897723578;0.599578857421875;0.067108154296875;3.45999999126434;347;1 A
9.02639897721053;0.599609375;0.067047119140625;3.46999999123909;348;1 A
9.03639897718529;0.599609375;0.06695556640625;3.47999999121384;349;1 A
9.04639897716004;0.599609375;0.06689453125;3.4899999911886;350;1 A
9.05639897713479;0.599639892578125;0.066802978515625;3.49999999116335;351;1 A
9.06639897710954;0.599609375;0.06671142578125;3.5099999911381;352;1 A
9.0763989770843;0.599639892578125;0.066650390625;3.51999999111285;353;1 A
9.08639897705905;0.599639892578125;0.066558837890625;3.52999999108761;354;1 A
9.0963989770338;0.599639892578125;0.066497802734375;3.53999999106236;355;1 A
9.10639897700855;0.599639892578125;0.06640625;3.54999999103711;356;1 A
9.11639897698331;0.599609375;0.066314697265625;3.55999999101186;357;1 A
9.12639897695806;0.59954833984375;0.066253662109375;3.56999999098662;358;1 A
9.13639897693281;0.599609375;0.066162109375;3.57999999096137;359;1 A
9.14639897690756;0.599639892578125;0.06610107421875;3.58999999093612;360;1 A
9.15639897688231;0.599639892578125;0.066009521484375;3.59999999091087;361;1 A
9.16639897685707;0.599639892578125;0.065948486328125;3.60999999088563;362;1 A
9.17639897683182;0.599609375;0.06585693359375;3.61999999086038;363;1 A
9.18639897680657;0.599639892578125;0.0657958984375;3.62999999083513;364;1 A
9.19639897678132;0.59954833984375;0.06573486328125;3.63999999080988;365;1 A
9.20639897675608;0.59967041015625;0.065643310546875;3.64999999078464;366;1 A
9.21639897673083;0.59967041015625;0.0655517578125;3.65999999075939;367;1 A
9.22639897670558;0.599609375;0.06549072265625;3.66999999073414;368;1 A
9.23639897668033;0.599609375;0.065399169921875;3.67999999070889;369;1 A
9.24639897665509;0.59954833984375;0.06536865234375;3.68999999068365;370;1 A
9.25639897662984;0.599578857421875;0.065277099609375;3.6999999906584;371;1 A
9.26639897660459;0.599609375;0.065216064453125;3.70999999063315;372;1 A
9.27639897657934;0.599609375;0.06512451171875;3.7199999906079;373;1 A
9.2863989765541;0.599609375;0.0650634765625;3.72999999058266;374;1 A
9.29639897652885;0.599578857421875;0.06500244140625;3.73999999055741;375;1 A
9.3063989765036;0.599609375;0.064910888671875;3.74999999053216;376;1 A
9.31639897647835;0.599609375;0.064849853515625;3.75999999050691;377;1 A
9.32639897645311;0.59967041015625;0.064788818359375;3.76999999048167;378;1 A
9.33639897642786;0.59967041015625;0.064697265625;3.77999999045642;379;1 A
9.34639897640261;0.599578857421875;0.06463623046875;3.78999999043117;380;1 A
9.35639897637736;0.599639892578125;0.0645751953125;3.79999999040592;381;1 A
9.36639897635212;0.599578857421875;0.06451416015625;3.80999999038067;382;1 A
9.37639897632687;0.599578857421875;0.064422607421875;3.81999999035543;383;1 A
9.38639897630162;0.59954833984375;0.064361572265625;3.82999999033018;384;1 A
9.39639897627637;0.59967041015625;0.064300537109375;3.83999999030493;385;1 A
9.40639897625113;0.59954833984375;0.064239501953125;3.84999999027968;386;1 A
9.41639897622588;0.599700927734375;0.06414794921875;3.85999999025444;387;1 A
9.42639897620063;0.59967041015625;0.0640869140625;3.86999999022919;388;1 A
9.43639897617538;0.599609375;0.06402587890625;3.87999999020394;389;1 A
9.44639897615014;0.599578857421875;0.06396484375;3.88999999017869;390;1 A
9.45639897612489;0.599578857421875;0.06390380859375;3.89999999015345;391;1 A
9.46639897609964;0.599639892578125;0.0638427734375;3.9099999901282;392;1 A
9.47639897607439;0.599609375;0.06378173828125;3.91999999010295;393;1 A
9.48639897604914;0.599578857421875;0.063690185546875;3.9299999900777;394;1 A
9.4963989760239;0.599639892578125;0.06365966796875;3.93999999005246;395;1 A
9.50639897599865;0.599609375;0.0635986328125;3.94999999002721;396;1 A
9.5163989759734;0.599578857421875;0.063507080078125;3.95999999000196;397;1 A
9.52639897594815;0.599609375;0.063446044921875;3.96999998997671;398;1 A
9.53639897592291;0.599609375;0.063385009765625;3.97999998995147;399;1 A
9.54639897589766;0.599700927734375;0.063323974609375;3.98999998992622;400;1 A
9.55639897587241;0.59967041015625;0.063262939453125;3.99999998990097;401;1 A
9.56639897584716;0.599578857421875;0.063201904296875;4.00999998987572;402;1 A
9.57639897582192;0.599609375;0.063140869140625;4.01999998985048;403;1 A
9.58639897579667;0.599639892578125;0.063079833984375;4.02999998982523;404;1 A
9.59639897577142;0.599639892578125;0.06304931640625;4.03999998979998;405;1 A
9.60639897574617;0.599609375;0.062957763671875;4.04999998977473;406;1 A
9.61639897572093;0.599578857421875;0.062896728515625;4.05999998974949;407;1 A
9.62639897569568;0.599609375;0.0628662109375;4.06999998972424;408;1 A
9.63639897567043;0.599639892578125;0.062774658203125;4.07999998969899;409;1 A
9.64639897564518;0.599578857421875;0.062744140625;4.08999998967374;410;1 A
9.65639897561994;0.599639892578125;0.06268310546875;4.0999999896485;411;1 A
9.66639897559469;0.59967041015625;0.0626220703125;4.10999998962325;412;1 A
9.67639897556944;0.599578857421875;0.06256103515625;4.119999989598;413;1 A
9.68639897554419;0.59967041015625;0.0625;4.12999998957275;414;1 A
9.69639897551895;0.599578857421875;0.062469482421875;4.1399999895475;415;1 A
9.7063989754937;0.59954833984375;0.0623779296875;4.14999998952226;416;1 A
9.71639897546845;0.599578857421875;0.062347412109375;4.15999998949701;417;1 A
9.7263989754432;0.599639892578125;0.062286376953125;4.16999998947176;418;1 A
9.73639897541796;0.599578857421875;0.062225341796875;4.17999998944651;419;1 A
9.74639897539271;0.59967041015625;0.06219482421875;4.18999998942127;420;1 A
9.75639897536746;0.599639892578125;0.0621337890625;4.19999998939602;421;1 A
9.76639897534221;0.59967041015625;0.06207275390625;4.20999998937077;422;1 A
9.77639897531697;0.599609375;0.06201171875;4.21999998934552;423;1 A
9.78639897529172;0.599578857421875;0.06195068359375;4.22999998932028;424;1 A
9.79639897526647;0.599639892578125;0.061920166015625;4.23999998929503;425;1 A
9.80639897524122;0.599639892578125;0.061859130859375;4.24999998926978;426;1 A
9.81639897521598;0.599639892578125;0.061798095703125;4.25999998924453;427;1 A
9.82639897519073;0.59967041015625;0.061767578125;4.26999998921929;428;1 A
9.83639897516548;0.599609375;0.06170654296875;4.27999998919404;429;1 A
9.84639897514023;0.599609375;0.0616455078125;4.28999998916879;430;1 A
9.85639897511498;0.599639892578125;0.06158447265625;4.29999998914354;431;1 A
9.86639897508974;0.599578857421875;0.061553955078125;4.3099999891183;432;1 A
9.87639897506449;0.599609375;0.061492919921875;4.31999998909305;433;1 A
9.88639897503924;0.599609375;0.061431884765625;4.3299999890678;434;1 A
9.89639897501399;0.599639892578125;0.0614013671875;4.33999998904255;435;1 A
9.90639897498875;0.599578857421875;0.06134033203125;4.34999998901731;436;1 A
9.9163989749635;0.599609375;0.061309814453125;4.35999998899206;437;1 A
9.92639897493825;0.599609375;0.061248779296875;4.36999998896681;438;1 A
9.936398974913;0.599639892578125;0.06121826171875;4.37999998894156;439;1 A
9.94639897488776;0.599639892578125;0.061187744140625;4.38999998891632;440;1 A
9.95639897486251;0.599578857421875;0.061126708984375;4.39999998889107;441;1 A
9.96639897483726;0.599639892578125;0.061065673828125;4.40999998886582;442;1 A
9.97639897481201;0.599609375;0.06103515625;4.41999998884057;443;1 A
9.98639897478677;0.599609375;0.06097412109375;4.42999998881533;444;1 A
9.99639897476152;0.599609375;0.060943603515625;4.43999998879008;445;1 A
10.0063989747363;0.59967041015625;0.060882568359375;4.44999998876483;446;1 A
10.016398974711;0.599639892578125;0.06085205078125;4.45999998873958;447;1 A
10.0263989746858;0.599639892578125;0.060791015625;4.46999998871433;448;1 A
10.0363989746605;0.599578857421875;0.060760498046875;4.47999998868909;449;1 A
10.0463989746353;0.59967041015625;0.060699462890625;4.48999998866384;450;1 A
10.05639897461;0.599578857421875;0.0606689453125;4.49999998863859;451;1 A
10.0663989745848;0.599609375;0.06060791015625;4.50999998861334;452;1 A
10.0763989745595;0.599639892578125;0.060577392578125;4.5199999885881;453;1 A
10.0863989745343;0.599639892578125;0.060516357421875;4.52999998856285;454;1 A
10.096398974509;0.599639892578125;0.06048583984375;4.5399999885376;455;1 A
10.1063989744838;0.599578857421875;0.0604248046875;4.54999998851235;456;1 A
10.1163989744585;0.599639892578125;0.060394287109375;4.55999998848711;457;1 A
10.1263989744333;0.599578857421875;0.06036376953125;4.56999998846186;458;1 A
10.1363989744081;0.599578857421875;0.060302734375;4.57999998843661;459;1 A
10.1463989743828;0.599609375;0.060272216796875;4.58999998841136;460;1 A
10.1563989743576;0.599609375;0.060211181640625;4.59999998838612;461;1 A
10.1663989743323;0.599639892578125;0.0601806640625;4.60999998836087;462;1 A
10.1763989743071;0.59967041015625;0.060150146484375;4.61999998833562;463;1 A
10.1863989742818;0.599609375;0.060089111328125;4.62999998831037;464;1 A
10.1963989742566;0.599578857421875;0.06005859375;4.63999998828513;465;1 A
10.2063989742313;0.599639892578125;0.060028076171875;4.64999998825988;466;1 A
10.2163989742061;0.599609375;0.059967041015625;4.65999998823463;467;1 A
10.2263989741808;0.599639892578125;0.0599365234375;4.66999998820938;468;1 A
10.2363989741556;0.59967041015625;0.059906005859375;4.67999998818414;469;1 A
10.2463989741303;0.59967041015625;0.05987548828125;4.68999998815889;470;1 A
10.2563989741051;0.59967041015625;0.059814453125;4.69999998813364;471;1 A
10.2663989740798;0.59967041015625;0.059783935546875;4.70999998810839;472;1 A
10.2763989740546;0.599639892578125;0.05975341796875;4.71999998808315;473;1 A
10.2863989740293;0.599578857421875;0.0596923828125;4.7299999880579;474;1 A
10.2963989740041;0.599609375;0.059661865234375;4.73999998803265;475;1 A
10.3063989739788;0.599609375;0.05963134765625;4.7499999880074;476;1 A
10.3163989739536;0.599639892578125;0.059600830078125;4.75999998798216;477;1 A
10.3263989739283;0.599609375;0.059539794921875;4.76999998795691;478;1 A
10.3363989739031;0.599578857421875;0.05950927734375;4.77999998793166;479;1 A
10.3463989738779;0.599639892578125;0.059478759765625;4.78999998790641;480;1 A
10.3563989738526;0.59967041015625;0.059417724609375;4.79999998788116;481;1 A
10.3663989738274;0.599609375;0.05938720703125;4.80999998785592;482;1 A
10.3763989738021;0.59954833984375;0.059356689453125;4.81999998783067;483;1 A
10.3863989737769;0.599609375;0.059326171875;4.82999998780542;484;1 A
10.3963989737516;0.599639892578125;0.059295654296875;4.83999998778017;485;1 A
10.4063989737264;0.599639892578125;0.059234619140625;4.84999998775493;486;1 A
10.4163989737011;0.599609375;0.0592041015625;4.85999998772968;487;1 A
10.4263989736759;0.599639892578125;0.059173583984375;4.86999998770443;488;1 A
10.4363989736506;0.599609375;0.05914306640625;4.87999998767918;489;1 A
10.4463989736254;0.599639892578125;0.059112548828125;4.88999998765394;490;1 A
10.4563989736001;0.599609375;0.059051513671875;4.89999998762869;491;1 A
10.4663989735749;0.599609375;0.05902099609375;4.90999998760344;492;1 A
10.4763989735496;0.599609375;0.058990478515625;4.91999998757819;493;1 A
10.4863989735244;0.599639892578125;0.0589599609375;4.92999998755295;494;1 A
10.4963989734991;0.599609375;0.058929443359375;4.9399999875277;495;1 A
10.5063989734739;0.599609375;0.05889892578125;4.94999998750245;496;1 A
10.5163989734486;0.59954833984375;0.058837890625;4.9599999874772;497;1 A
10.5263989734234;0.599578857421875;0.058807373046875;4.96999998745196;498;1 A
10.5363989733981;0.599639892578125;0.05877685546875;4.97999998742671;499;1 A
10.5463989733729;0.599639892578125;0.058746337890625;4.98999998740146;500;1 A
10.5563989733477;0.599609375;0.0587158203125;4.99999998737621;501;1 A
10.5663989733224;0.599609375;0.058685302734375;5.00999998735097;502;1 A
10.5763989732972;0.59967041015625;0.05865478515625;5.01999998732572;503;1 A
10.5863989732719;0.599609375;0.05859375;5.02999998730047;504;1 A
10.5963989732467;0.599639892578125;0.05859375;5.03999998727522;505;1 A
10.6063989732214;0.599609375;0.05853271484375;5.04999998724998;506;1 A
10.6163989731962;0.599578857421875;0.058502197265625;5.05999998722473;507;1 A
10.6263989731709;0.599609375;0.0584716796875;5.06999998719948;508;1 A
10.6363989731457;0.59967041015625;0.058441162109375;5.07999998717423;509;1 A
10.6463989731204;0.599609375;0.05841064453125;5.08999998714899;510;1 A
10.6563989730952;0.599578857421875;0.058349609375;5.09999998712374;511;1 A
10.6663989730699;0.599578857421875;0.058319091796875;5.10999998709849;512;1 A
10.6763989730447;0.599609375;0.058319091796875;5.11999998707324;513;1 A
10.6863989730194;0.599609375;0.058258056640625;5.129999987048;514;1 A
10.6963989729942;0.599578857421875;0.0582275390625;5.13999998702275;515;1 A
10.7063989729689;0.599639892578125;0.058197021484375;5.1499999869975;516;1 A
10.7163989729437;0.599609375;0.05816650390625;5.15999998697225;517;1 A
10.7263989729184;0.599609375;0.058135986328125;5.169999986947;518;1 A
10.7363989728932;0.599609375;0.05810546875;5.17999998692176;519;1 A
10.746398972868;0.59967041015625;0.058074951171875;5.18999998689651;520;1 A
10.7563989728427;0.599639892578125;0.05804443359375;5.19999998687126;521;1 A
10.7663989728175;0.599639892578125;0.058013916015625;5.20999998684601;522;1 A
10.7763989727922;0.599609375;0.0579833984375;5.21999998682077;523;1 A
10.786398972767;0.599639892578125;0.057952880859375;5.22999998679552;524;1 A
10.7963989727417;0.59967041015625;0.05792236328125;5.23999998677027;525;1 A
10.8063989727165;0.599609375;0.057861328125;5.24999998674502;526;1 A
10.8163989726912;0.59967041015625;0.057830810546875;5.25999998671978;527;1 A
10.826398972666;0.599609375;0.05780029296875;5.26999998669453;528;1 A
10.8363989726407;0.599609375;0.057769775390625;5.27999998666928;529;1 A
10.8463989726155;0.599609375;0.057769775390625;5.28999998664403;530;1 A
10.8563989725902;0.599609375;0.057708740234375;5.29999998661879;531;1 A
10.866398972565;0.599639892578125;0.05767822265625;5.30999998659354;532;1 A
10.8763989725397;0.599639892578125;0.057647705078125;5.31999998656829;533;1 A
10.8863989725145;0.599609375;0.0576171875;5.32999998654304;534;1 A
10.8963989724892;0.59967041015625;0.057586669921875;5.3399999865178;535;1 A
10.906398972464;0.599639892578125;0.05755615234375;5.34999998649255;536;1 A
10.9163989724387;0.599578857421875;0.057525634765625;5.3599999864673;537;1 A
10.9263989724135;0.599639892578125;0.0574951171875;5.36999998644205;538;1 A
10.9363989723882;0.599609375;0.05743408203125;5.37999998641681;539;1 A
10.946398972363;0.599639892578125;0.05743408203125;5.38999998639156;540;1 A
10.9563989723378;0.599578857421875;0.057403564453125;5.39999998636631;541;1 A
10.9663989723125;0.59967041015625;0.057373046875;5.40999998634106;542;1 A
10.9763989722873;0.599609375;0.057342529296875;5.41999998631582;543;1 A
10.986398972262;0.599609375;0.057281494140625;5.42999998629057;544;1 A
10.9963989722368;0.599639892578125;0.057281494140625;5.43999998626532;545;1 A
11.0063989722115;0.599578857421875;0.057220458984375;5.44999998624007;546;1 A
11.0163989721863;0.599578857421875;0.05718994140625;5.45999998621483;547;1 A
11.026398972161;0.599639892578125;0.057159423828125;5.46999998618958;548;1 A
11.0363989721358;0.599609375;0.05712890625;5.47999998616433;549;1 A
11.0463989721105;0.599609375;0.05712890625;5.48999998613908;550;1 A
11.0563989720853;0.599609375;0.05706787109375;5.49999998611383;551;1 A
11.06639897206;0.599578857421875;0.057037353515625;5.50999998608859;552;1 A
11.0763989720348;0.599609375;0.0570068359375;5.51999998606334;553;1 A
11.0863989720095;0.599639892578125;0.056976318359375;5.52999998603809;554;1 A
11.0963989719843;0.599578857421875;0.05694580078125;5.53999998601284;555;1 A
11.106398971959;0.599609375;0.056915283203125;5.5499999859876;556;1 A
11.1163989719338;0.599609375;0.056884765625;5.55999998596235;557;1 A
11.1263989719085;0.599609375;0.056854248046875;5.5699999859371;558;1 A
11.1363989718833;0.599609375;0.05682373046875;5.57999998591185;559;1 A
11.146398971858;0.599578857421875;0.056793212890625;5.58999998588661;560;1 A
11.1563989718328;0.599609375;0.0567626953125;5.59999998586136;561;1 A
11.1663989718076;0.599609375;0.056732177734375;5.60999998583611;562;1 A
11.1763989717823;0.599609375;0.05670166015625;5.61999998581086;563;1 A
11.1863989717571;0.59954833984375;0.056671142578125;5.62999998578562;564;1 A
11.1963989717318;0.599639892578125;0.056640625;5.63999998576037;565;1 A
11.2063989717066;0.599578857421875;0.056610107421875;5.64999998573512;566;1 A
11.2163989716813;0.599639892578125;0.05657958984375;5.65999998570987;567;1 A
11.2263989716561;0.599609375;0.056549072265625;5.66999998568463;568;1 A
11.2363989716308;0.599639892578125;0.056488037109375;5.67999998565938;569;1 A
11.2463989716056;0.59967041015625;0.056488037109375;5.68999998563413;570;1 A
11.2563989715803;0.599609375;0.056427001953125;5.69999998560888;571;1 A
11.2663989715551;0.599639892578125;0.056396484375;5.70999998558364;572;1 A
11.2763989715298;0.599609375;0.056396484375;5.71999998555839;573;1 A
11.2863989715046;0.599639892578125;0.05633544921875;5.72999998553314;574;1 A
11.2963989714793;0.599609375;0.05633544921875;5.73999998550789;575;1 A
11.3063989714541;0.599578857421875;0.056304931640625;5.74999998548265;576;1 A
11.3163989714288;0.599609375;0.0562744140625;5.7599999854574;577;1 A
11.3263989714036;0.599639892578125;0.056243896484375;5.76999998543215;578;1 A
11.3363989713783;0.59967041015625;0.056182861328125;5.7799999854069;579;1 A
11.3463989713531;0.599578857421875;0.056182861328125;5.78999998538166;580;1 A
11.3563989713278;0.599609375;0.05615234375;5.79999998535641;581;1 A
11.3663989713026;0.59967041015625;0.05609130859375;5.80999998533116;582;1 A
11.3763989712774;0.599609375;0.05609130859375;5.81999998530591;583;1 A
11.3863989712521;0.599609375;0.0560302734375;5.82999998528066;584;1 A
11.3963989712269;0.599609375;0.0560302734375;5.83999998525542;585;1 A
11.4063989712016;0.599578857421875;0.05596923828125;5.84999998523017;586;1 A
11.4163989711764;0.599609375;0.055938720703125;5.85999998520492;587;1 A
11.4263989711511;0.599609375;0.055938720703125;5.86999998517967;588;1 A
11.4363989711259;0.599639892578125;0.055877685546875;5.87999998515443;589;1 A
11.4463989711006;0.599639892578125;0.055877685546875;5.88999998512918;590;1 A
11.4563989710754;0.599609375;0.05584716796875;5.89999998510393;591;1 A
11.4663989710501;0.599609375;0.055816650390625;5.90999998507868;592;1 A
11.4763989710249;0.599639892578125;0.0557861328125;5.91999998505344;593;1 A
11.4863989709996;0.599578857421875;0.05572509765625;5.92999998502819;594;1 A
11.4963989709744;0.599639892578125;0.05572509765625;5.93999998500294;595;1 A
11.5063989709491;0.599639892578125;0.0556640625;5.94999998497769;596;1 A
11.5163989709239;0.59954833984375;0.055633544921875;5.95999998495245;597;1 A
11.5263989708986;0.59967041015625;0.055633544921875;5.9699999849272;598;1 A
11.5363989708734;0.59967041015625;0.055572509765625;5.97999998490195;599;1 A
11.5463989708481;0.599639892578125;0.055572509765625;5.9899999848767;600;1 A
11.5563989708229;0.599609375;0.0555419921875;5.99999998485146;601;1 A
11.5663989707976;0.599578857421875;0.05548095703125;6.00999998482621;602;1 A
11.5763989707724;0.59967041015625;0.05548095703125;6.01999998480096;603;1 A
11.5863989707472;0.599609375;0.055419921875;6.02999998477571;604;1 A
11.5963989707219;0.599578857421875;0.055419921875;6.03999998475047;605;1 A
11.6063989706967;0.599609375;0.055389404296875;6.04999998472522;606;1 A
11.6163989706714;0.599639892578125;0.05535888671875;6.05999998469997;607;1 A
11.6263989706462;0.599609375;0.055328369140625;6.06999998467472;608;1 A
11.6363989706209;0.599639892578125;0.0552978515625;6.07999998464948;609;1 A
11.6463989705957;0.599578857421875;0.055267333984375;6.08999998462423;610;1 A
11.6563989705704;0.599609375;0.05523681640625;6.09999998459898;611;1 A
11.6663989705452;0.599609375;0.055206298828125;6.10999998457373;612;1 A
11.6763989705199;0.599609375;0.05517578125;6.11999998454849;613;1 A
11.6863989704947;0.59954833984375;0.055145263671875;6.12999998452324;614;1 A
11.6963989704694;0.599578857421875;0.055145263671875;6.13999998449799;615;1 A
11.7063989704442;0.599639892578125;0.055084228515625;6.14999998447274;616;1 A
11.7163989704189;0.599578857421875;0.0550537109375;6.1599999844475;617;1 A
11.7263989703937;0.599609375;0.0550537109375;6.16999998442225;618;1 A
11.7363989703684;0.59954833984375;0.05499267578125;6.179999984397;619;1 A
11.7463989703432;0.599578857421875;0.05499267578125;6.18999998437175;620;1 A
11.7563989703179;0.599639892578125;0.054962158203125;6.1999999843465;621;1 A
11.7663989702927;0.599609375;0.054931640625;6.20999998432126;622;1 A
11.7763989702675;0.599609375;0.054901123046875;6.21999998429601;623;1 A
11.7863989702422;0.599639892578125;0.05487060546875;6.22999998427076;624;1 A
11.796398970217;0.59967041015625;0.054840087890625;6.23999998424551;625;1 A
11.8063989701917;0.599609375;0.0548095703125;6.24999998422027;626;1 A
11.8163989701665;0.599609375;0.054779052734375;6.25999998419502;627;1 A
11.8263989701412;0.599578857421875;0.05474853515625;6.26999998416977;628;1 A
11.836398970116;0.599578857421875;0.054718017578125;6.27999998414452;629;1 A
11.8463989700907;0.599578857421875;0.054718017578125;6.28999998411928;630;1 A
11.8563989700655;0.599639892578125;0.054656982421875;6.29999998409403;631;1 A
11.8663989700402;0.599639892578125;0.054656982421875;6.30999998406878;632;1 A
11.876398970015;0.599609375;0.05462646484375;6.31999998404353;633;1 A
11.8863989699897;0.599639892578125;0.054595947265625;6.32999998401829;634;1 A
11.8963989699645;0.599639892578125;0.0545654296875;6.33999998399304;635;1 A
11.9063989699392;0.599609375;0.054534912109375;6.34999998396779;636;1 A
11.916398969914;0.59967041015625;0.054534912109375;6.35999998394254;637;1 A
11.9263989698887;0.599578857421875;0.05450439453125;6.3699999839173;638;1 A
11.9363989698635;0.599578857421875;0.054473876953125;6.37999998389205;639;1 A
11.9463989698382;0.599609375;0.054443359375;6.3899999838668;640;1 A
11.956398969813;0.599639892578125;0.054412841796875;6.39999998384155;641;1 A
11.9663989697877;0.599609375;0.05438232421875;6.40999998381631;642;1 A
11.9763989697625;0.599639892578125;0.05438232421875;6.41999998379106;643;1 A
11.9863989697373;0.599639892578125;0.0543212890625;6.42999998376581;644;1 A
11.996398969712;0.599639892578125;0.0543212890625;6.43999998374056;645;1 A
12.0063989696868;0.599609375;0.054290771484375;6.44999998371532;646;1 A
12.0163989696615;0.599609375;0.05426025390625;6.45999998369007;647;1 A
12.0263989696363;0.599609375;0.054229736328125;6.46999998366482;648;1 A
12.036398969611;0.599609375;0.05419921875;6.47999998363957;649;1 A
12.0463989695858;0.599639892578125;0.05419921875;6.48999998361433;650;1 A
12.0563989695605;0.599609375;0.054168701171875;6.49999998358908;651;1 A
12.0663989695353;0.599578857421875;0.05413818359375;6.50999998356383;652;1 A
12.07639896951;0.599609375;0.054107666015625;6.51999998353858;653;1 A
12.0863989694848;0.599609375;0.0540771484375;6.52999998351333;654;1 A
12.0963989694595;0.599609375;0.0540771484375;6.53999998348809;655;1 A
12.1063989694343;0.599639892578125;0.05401611328125;6.54999998346284;656;1 A
12.116398969409;0.599609375;0.05401611328125;6.55999998343759;657;1 A
12.1263989693838;0.599578857421875;0.053985595703125;6.56999998341234;658;1 A
12.1363989693585;0.599609375;0.053955078125;6.5799999833871;659;1 A
12.1463989693333;0.599609375;0.053924560546875;6.58999998336185;660;1 A
12.156398969308;0.599578857421875;0.05389404296875;6.5999999833366;661;1 A
12.1663989692828;0.599609375;0.053863525390625;6.60999998331135;662;1 A
12.1763989692575;0.59954833984375;0.053863525390625;6.61999998328611;663;1 A
12.1863989692323;0.599609375;0.0538330078125;6.62999998326086;664;1 A
12.1963989692071;0.59967041015625;0.053802490234375;6.63999998323561;665;1 A
12.2063989691818;0.599639892578125;0.05377197265625;6.64999998321036;666;1 A
12.2163989691566;0.599578857421875;0.053741455078125;6.65999998318512;667;1 A
12.2263989691313;0.599609375;0.053741455078125;6.66999998315987;668;1 A
12.2363989691061;0.599700927734375;0.0537109375;6.67999998313462;669;1 A
12.2463989690808;0.599639892578125;0.053680419921875;6.68999998310937;670;1 A
12.2563989690556;0.59967041015625;0.05364990234375;6.69999998308413;671;1 A
12.2663989690303;0.599517822265625;0.053619384765625;6.70999998305888;672;1 A
12.2763989690051;0.599639892578125;0.053619384765625;6.71999998303363;673;1 A
12.2863989689798;0.599609375;0.0535888671875;6.72999998300838;674;1 A
12.2963989689546;0.599609375;0.053558349609375;6.73999998298314;675;1 A
12.3063989689293;0.599578857421875;0.05352783203125;6.74999998295789;676;1 A
12.3163989689041;0.599639892578125;0.053497314453125;6.75999998293264;677;1 A
12.3263989688788;0.599609375;0.053497314453125;6.76999998290739;678;1 A
12.3363989688536;0.599609375;0.053466796875;6.77999998288215;679;1 A
12.3463989688283;0.599609375;0.053466796875;6.7899999828569;680;1 A
12.3563989688031;0.59967041015625;0.05340576171875;6.79999998283165;681;1 A
12.3663989687778;0.599609375;0.05340576171875;6.8099999828064;682;1 A
12.3763989687526;0.599639892578125;0.053375244140625;6.81999998278116;683;1 A
12.3863989687273;0.599578857421875;0.0533447265625;6.82999998275591;684;1 A
12.3963989687021;0.599639892578125;0.0533447265625;6.83999998273066;685;1 A
12.4063989686769;0.599639892578125;0.053314208984375;6.84999998270541;686;1 A
12.4163989686516;0.599609375;0.05328369140625;6.85999998268016;687;1 A
12.4263989686264;0.599609375;0.053253173828125;6.86999998265492;688;1 A
12.4363989686011;0.599609375;0.05322265625;6.87999998262967;689;1 A
12.4463989685759;0.599609375;0.05322265625;6.88999998260442;690;1 A
12.4563989685506;0.599578857421875;0.053192138671875;6.89999998257917;691;1 A
12.4663989685254;0.599639892578125;0.05316162109375;6.90999998255393;692;1 A
12.4763989685001;0.599639892578125;0.05316162109375;6.91999998252868;693;1 A
12.4863989684749;0.59967041015625;0.0531005859375;6.92999998250343;694;1 A
12.4963989684496;0.599639892578125;0.0531005859375;6.93999998247818;695;1 A
12.5063989684244;0.599639892578125;0.053070068359375;6.94999998245294;696;1 A
12.5163989683991;0.599609375;0.053070068359375;6.95999998242769;697;1 A
12.5263989683739;0.599578857421875;0.05303955078125;6.96999998240244;698;1 A
12.5363989683486;0.599609375;0.053009033203125;6.97999998237719;699;1 A
12.5463989683234;0.599609375;0.053009033203125;6.98999998235195;700;1 A
12.5563989682981;0.599609375;0.052978515625;6.9999999823267;701;1 A
12.5663989682729;0.599639892578125;0.052947998046875;7.00999998230145;702;1 A
12.5763989682476;0.599639892578125;0.052947998046875;7.0199999822762;703;1 A
12.5863989682224;0.599639892578125;0.05291748046875;7.02999998225096;704;1 A
12.5963989681971;0.599609375;0.05291748046875;7.03999998222571;705;1 A
12.6063989681719;0.599639892578125;0.052886962890625;7.04999998220046;706;1 A
12.6163989681467;0.599639892578125;0.0528564453125;7.05999998217521;707;1 A
12.6263989681214;0.599639892578125;0.0528564453125;7.06999998214997;708;1 A
12.6363989680962;0.599609375;0.052825927734375;7.07999998212472;709;1 A
12.6463989680709;0.59967041015625;0.052825927734375;7.08999998209947;710;1 A
12.6563989680457;0.599609375;0.05279541015625;7.09999998207422;711;1 A
12.6663989680204;0.599609375;0.052764892578125;7.10999998204898;712;1 A
12.6763989679952;0.599578857421875;0.052764892578125;7.11999998202373;713;1 A
12.6863989679699;0.59954833984375;0.052734375;7.12999998199848;714;1 A
12.6963989679447;0.599609375;0.052734375;7.13999998197323;715;1 A
12.7063989679194;0.599639892578125;0.052703857421875;7.14999998194799;716;1 A
12.7163989678942;0.599639892578125;0.05267333984375;7.15999998192274;717;1 A
12.7263989678689;0.599639892578125;0.05267333984375;7.16999998189749;718;1 A
12.7363989678437;0.599639892578125;0.052642822265625;7.17999998187224;719;1 A
12.7463989678184;0.599609375;0.052642822265625;7.189999981847;720;1 A
12.7563989677932;0.59967041015625;0.0526123046875;7.19999998182175;721;1 A
12.7663989677679;0.599639892578125;0.052581787109375;7.2099999817965;722;1 A
12.7763989677427;0.59967041015625;0.052581787109375;7.21999998177125;723;1 A
12.7863989677174;0.599639892578125;0.05255126953125;7.229999981746;724;1 A
12.7963989676922;0.599609375;0.05255126953125;7.23999998172076;725;1 A
12.806398967667;0.599609375;0.052520751953125;7.24999998169551;726;1 A
12.8163989676417;0.599578857421875;0.052520751953125;7.25999998167026;727;1 A
12.8263989676165;0.599639892578125;0.052520751953125;7.26999998164501;728;1 A
12.8363989675912;0.599609375;0.052490234375;7.27999998161977;729;1 A
12.846398967566;0.599639892578125;0.052490234375;7.28999998159452;730;1 A
12.8563989675407;0.599609375;0.052459716796875;7.29999998156927;731;1 A
12.8663989675155;0.599578857421875;0.05242919921875;7.30999998154402;732;1 A
12.8763989674902;0.599639892578125;0.05242919921875;7.31999998151878;733;1 A
12.886398967465;0.599578857421875;0.052398681640625;7.32999998149353;734;1 A
12.8963989674397;0.599578857421875;0.05242919921875;7.33999998146828;735;1 A
12.9063989674145;0.599609375;0.052398681640625;7.34999998144303;736;1 A
12.9163989673892;0.599578857421875;0.0523681640625;7.35999998141779;737;1 A
12.926398967364;0.599639892578125;0.0523681640625;7.36999998139254;738;1 A
12.9363989673387;0.599639892578125;0.052337646484375;7.37999998136729;739;1 A
12.9463989673135;0.599609375;0.052337646484375;7.38999998134204;740;1 A
12.9563989672882;0.599609375;0.052337646484375;7.3999999813168;741;1 A
12.966398967263;0.599639892578125;0.052337646484375;7.40999998129155;742;1 A
12.9763989672377;0.599578857421875;0.05230712890625;7.4199999812663;743;1 A
12.9863989672125;0.59967041015625;0.052276611328125;7.42999998124105;744;1 A
12.9963989671872;0.599639892578125;0.05230712890625;7.43999998121581;745;1 A
13.006398967162;0.599639892578125;0.052276611328125;7.44999998119056;746;1 A
13.0163989671368;0.599639892578125;0.052276611328125;7.45999998116531;747;1 A
13.0263989671115;0.599578857421875;0.05224609375;7.46999998114006;748;1 A
13.0363989670863;0.599578857421875;0.05224609375;7.47999998111482;749;1 A
13.046398967061;0.599639892578125;0.05224609375;7.48999998108957;750;1 A
13.0563989670358;0.599609375;0.052215576171875;7.49999998106432;751;1 A
13.0663989670105;0.599609375;0.052215576171875;7.50999998103907;752;1 A
13.0763989669853;0.599639892578125;0.052215576171875;7.51999998101383;753;1 A
13.08639896696;0.59954833984375;0.05218505859375;7.52999998098858;754;1 A
13.0963989669348;0.59967041015625;0.05218505859375;7.53999998096333;755;1 A
13.1063989669095;0.599609375;0.052154541015625;7.54999998093808;756;1 A
13.1163989668843;0.599639892578125;0.052154541015625;7.55999998091283;757;1 A
13.126398966859;0.59954833984375;0.052154541015625;7.56999998088759;758;1 A
13.1363989668338;0.599700927734375;0.0521240234375;7.57999998086234;759;1 A
13.1463989668085;0.599639892578125;0.0521240234375;7.58999998083709;760;1 A
13.1563989667833;0.599609375;0.0521240234375;7.59999998081184;761;1 A
13.166398966758;0.599609375;0.052093505859375;7.6099999807866;762;1 A
13.1763989667328;0.599639892578125;0.052093505859375;7.61999998076135;763;1 A
13.1863989667075;0.599639892578125;0.052093505859375;7.6299999807361;764;1 A
13.1963989666823;0.599639892578125;0.052093505859375;7.63999998071085;765;1 A
13.206398966657;0.599578857421875;0.05206298828125;7.64999998068561;766;1 A
13.2163989666318;0.599609375;0.05206298828125;7.65999998066036;767;1 A
13.2263989666066;0.59967041015625;0.05206298828125;7.66999998063511;768;1 A
13.2363989665813;0.59967041015625;0.052032470703125;7.67999998060986;769;1 A
13.2463989665561;0.599609375;0.052032470703125;7.68999998058462;770;1 A
13.2563989665308;0.599609375;0.052032470703125;7.69999998055937;771;1 A
13.2663989665056;0.599609375;0.052001953125;7.70999998053412;772;1 A
13.2763989664803;0.599609375;0.052001953125;7.71999998050887;773;1 A
13.2863989664551;0.599639892578125;0.052001953125;7.72999998048363;774;1 A
13.2963989664298;0.599578857421875;0.052001953125;7.73999998045838;775;1 A
13.3063989664046;0.599609375;0.051971435546875;7.74999998043313;776;1 A
13.3163989663793;0.59967041015625;0.051971435546875;7.75999998040788;777;1 A
13.3263989663541;0.59967041015625;0.051971435546875;7.76999998038264;778;1 A
13.3363989663288;0.599609375;0.05194091796875;7.77999998035739;779;1 A
13.3463989663036;0.599639892578125;0.05194091796875;7.78999998033214;780;1 A
13.3563989662783;0.599609375;0.05194091796875;7.79999998030689;781;1 A
13.3663989662531;0.599578857421875;0.051910400390625;7.80999998028165;782;1 A
13.3763989662278;0.599609375;0.051910400390625;7.8199999802564;783;1 A
13.3863989662026;0.599578857421875;0.051910400390625;7.82999998023115;784;1 A
13.3963989661773;0.599609375;0.051910400390625;7.8399999802059;785;1 A
13.4063989661521;0.599639892578125;0.0518798828125;7.84999998018066;786;1 A
13.4163989661268;0.599639892578125;0.0518798828125;7.85999998015541;787;1 A
13.4263989661016;0.599578857421875;0.0518798828125;7.86999998013016;788;1 A
13.4363989660764;0.599639892578125;0.051849365234375;7.87999998010491;789;1 A
13.4463989660511;0.599609375;0.0518798828125;7.88999998007966;790;1 A
13.4563989660259;0.599578857421875;0.051849365234375;7.89999998005442;791;1 A
13.4663989660006;0.599639892578125;0.051849365234375;7.90999998002917;792;1 A
13.4763989659754;0.599609375;0.051849365234375;7.91999998000392;793;1 A
13.4863989659501;0.59967041015625;0.05181884765625;7.92999997997867;794;1 A
13.4963989659249;0.599609375;0.05181884765625;7.93999997995343;795;1 A
13.5063989658996;0.599609375;0.05181884765625;7.94999997992818;796;1 A
13.5163989658744;0.599609375;0.051788330078125;7.95999997990293;797;1 A
13.5263989658491;0.59967041015625;0.051788330078125;7.96999997987768;798;1 A
13.5363989658239;0.599609375;0.0517578125;7.97999997985244;799;1 A
13.5463989657986;0.59967041015625;0.051788330078125;7.98999997982719;800;1 A
13.5563989657734;0.599639892578125;0.0517578125;7.99999997980194;801;1 A
13.5663989657481;0.599639892578125;0.0517578125;8.00999997977669;802;1 A
13.5763989657229;0.599578857421875;0.0517578125;8.01999997975145;803;1 A
13.5863989656976;0.599609375;0.051727294921875;8.0299999797262;804;1 A
13.5963989656724;0.599609375;0.051727294921875;8.03999997970095;805;1 A
13.6063989656471;0.599609375;0.051727294921875;8.0499999796757;806;1 A
13.6163989656219;0.599609375;0.05169677734375;8.05999997965046;807;1 A
13.6263989655966;0.599609375;0.05169677734375;8.06999997962521;808;1 A
13.6363989655714;0.599578857421875;0.05169677734375;8.07999997959996;809;1 A
13.6463989655462;0.599609375;0.05169677734375;8.08999997957471;810;1 A
13.6563989655209;0.599639892578125;0.051666259765625;8.09999997954947;811;1 A
13.6663989654957;0.599609375;0.051666259765625;8.10999997952422;812;1 A
13.6763989654704;0.599609375;0.051666259765625;8.11999997949897;813;1 A
13.6863989654452;0.599609375;0.0516357421875;8.12999997947372;814;1 A
13.6963989654199;0.599578857421875;0.0516357421875;8.13999997944848;815;1 A
13.7063989653947;0.599639892578125;0.0516357421875;8.14999997942323;816;1 A
13.7163989653694;0.599639892578125;0.051605224609375;8.15999997939798;817;1 A
13.7263989653442;0.599639892578125;0.051605224609375;8.16999997937273;818;1 A
13.7363989653189;0.599578857421875;0.051605224609375;8.17999997934749;819;1 A
13.7463989652937;0.599609375;0.051605224609375;8.18999997932224;820;1 A
13.7563989652684;0.599609375;0.05157470703125;8.19999997929699;821;1 A
13.7663989652432;0.599609375;0.05157470703125;8.20999997927174;822;1 A
13.7763989652179;0.599609375;0.05157470703125;8.2199999792465;823;1 A
13.7863989651927;0.599578857421875;0.051544189453125;8.22999997922125;824;1 A
13.7963989651674;0.59954833984375;0.051544189453125;8.239999979196;825;1 A
13.8063989651422;0.599639892578125;0.051513671875;8.24999997917075;826;1 A
13.8163989651169;0.599639892578125;0.051513671875;8.2599999791455;827;1 A
13.8263989650917;0.599639892578125;0.051513671875;8.26999997912026;828;1 A
13.8363989650665;0.599639892578125;0.051483154296875;8.27999997909501;829;1 A
13.8463989650412;0.59967041015625;0.051483154296875;8.28999997906976;830;1 A
13.856398965016;0.599609375;0.051483154296875;8.29999997904451;831;1 A
13.8663989649907;0.599609375;0.05145263671875;8.30999997901927;832;1 A
13.8763989649655;0.599639892578125;0.05145263671875;8.31999997899402;833;1 A
13.8863989649402;0.599639892578125;0.051422119140625;8.32999997896877;834;1 A
13.896398964915;0.59967041015625;0.05145263671875;8.33999997894352;835;1 A
13.9063989648897;0.599609375;0.051422119140625;8.34999997891828;836;1 A
13.9163989648645;0.599639892578125;0.0513916015625;8.35999997889303;837;1 A
13.9263989648392;0.599609375;0.0513916015625;8.36999997886778;838;1 A
13.936398964814;0.599578857421875;0.051361083984375;8.37999997884253;839;1 A
13.9463989647887;0.599639892578125;0.0513916015625;8.38999997881729;840;1 A
13.9563989647635;0.599609375;0.051361083984375;8.39999997879204;841;1 A
13.9663989647382;0.599639892578125;0.051361083984375;8.40999997876679;842;1 A
13.976398964713;0.599639892578125;0.05133056640625;8.41999997874154;843;1 A
13.9863989646877;0.599609375;0.05133056640625;8.4299999787163;844;1 A
13.9963989646625;0.599609375;0.05133056640625;8.43999997869105;845;1 A
14.0063989646372;0.599639892578125;0.051300048828125;8.4499999786658;846;1 A
14.016398964612;0.599609375;0.051300048828125;8.45999997864055;847;1 A
14.0263989645867;0.599578857421875;0.05126953125;8.46999997861531;848;1 A
14.0363989645615;0.599639892578125;0.05126953125;8.47999997859006;849;1 A
14.0463989645363;0.599578857421875;0.05126953125;8.48999997856481;850;1 A
14.056398964511;0.599578857421875;0.051239013671875;8.49999997853956;851;1 A
14.0663989644858;0.599578857421875;0.051239013671875;8.50999997851432;852;1 A
14.0763989644605;0.599639892578125;0.051239013671875;8.51999997848907;853;1 A
14.0863989644353;0.599639892578125;0.05120849609375;8.52999997846382;854;1 A
14.09639896441;0.599609375;0.05120849609375;8.53999997843857;855;1 A
14.1063989643848;0.599609375;0.051177978515625;8.54999997841333;856;1 A
14.1163989643595;0.599609375;0.0511474609375;8.55999997838808;857;1 A
14.1263989643343;0.599578857421875;0.0511474609375;8.56999997836283;858;1 A
14.136398964309;0.599578857421875;0.051116943359375;8.57999997833758;859;1 A
14.1463989642838;0.599609375;0.051116943359375;8.58999997831233;860;1 A
14.1563989642585;0.599609375;0.051116943359375;8.59999997828709;861;1 A
14.1663989642333;0.599609375;0.05108642578125;8.60999997826184;862;1 A
14.176398964208;0.599639892578125;0.05108642578125;8.61999997823659;863;1 A
14.1863989641828;0.59967041015625;0.051055908203125;8.62999997821134;864;1 A
14.1963989641575;0.599578857421875;0.051055908203125;8.6399999781861;865;1 A
14.2063989641323;0.599609375;0.051055908203125;8.64999997816085;866;1 A
14.216398964107;0.599609375;0.051025390625;8.6599999781356;867;1 A
14.2263989640818;0.599639892578125;0.051025390625;8.66999997811035;868;1 A
14.2363989640565;0.599609375;0.050994873046875;8.67999997808511;869;1 A
14.2463989640313;0.59967041015625;0.050994873046875;8.68999997805986;870;1 A
14.2563989640061;0.59954833984375;0.05096435546875;8.69999997803461;871;1 A
14.2663989639808;0.599609375;0.05096435546875;8.70999997800936;872;1 A
14.2763989639556;0.59967041015625;0.05096435546875;8.71999997798412;873;1 A
14.2863989639303;0.599639892578125;0.050933837890625;8.72999997795887;874;1 A
14.2963989639051;0.599578857421875;0.050933837890625;8.73999997793362;875;1 A
14.3063989638798;0.599639892578125;0.0509033203125;8.74999997790837;876;1 A
14.3163989638546;0.599639892578125;0.050872802734375;8.75999997788313;877;1 A
14.3263989638293;0.599609375;0.050872802734375;8.76999997785788;878;1 A
14.3363989638041;0.59967041015625;0.05084228515625;8.77999997783263;879;1 A
14.3463989637788;0.599639892578125;0.05084228515625;8.78999997780738;880;1 A
14.3563989637536;0.599639892578125;0.050811767578125;8.79999997778214;881;1 A
14.3663989637283;0.599639892578125;0.050811767578125;8.80999997775689;882;1 A
14.3763989637031;0.599639892578125;0.05078125;8.81999997773164;883;1 A
14.3863989636778;0.599609375;0.050750732421875;8.82999997770639;884;1 A
14.3963989636526;0.59954833984375;0.050750732421875;8.83999997768115;885;1 A
14.4063989636273;0.59967041015625;0.05072021484375;8.8499999776559;886;1 A
14.4163989636021;0.599609375;0.05072021484375;8.85999997763065;887;1 A
14.4263989635768;0.599578857421875;0.050689697265625;8.8699999776054;888;1 A
14.4363989635516;0.59954833984375;0.0506591796875;8.87999997758016;889;1 A
14.4463989635263;0.599609375;0.0506591796875;8.88999997755491;890;1 A
14.4563989635011;0.599639892578125;0.0506591796875;8.89999997752966;891;1 A
14.4663989634759;0.599639892578125;0.050628662109375;8.90999997750441;892;1 A
14.4763989634506;0.59967041015625;0.05059814453125;8.91999997747916;893;1 A
14.4863989634254;0.599609375;0.050567626953125;8.92999997745392;894;1 A
14.4963989634001;0.599639892578125;0.050567626953125;8.93999997742867;895;1 A
14.5063989633749;0.599639892578125;0.050567626953125;8.94999997740342;896;1 A
14.5163989633496;0.599609375;0.050537109375;8.95999997737817;897;1 A
14.5263989633244;0.599609375;0.050537109375;8.96999997735293;898;1 A
14.5363989632991;0.599639892578125;0.050506591796875;8.97999997732768;899;1 A
14.5463989632739;0.599578857421875;0.05047607421875;8.98999997730243;900;1 A
14.5563989632486;0.599609375;0.05047607421875;8.99999997727718;901;1 A
14.5663989632234;0.599609375;0.050445556640625;9.00999997725194;902;1 A
14.5763989631981;0.599609375;0.0504150390625;9.01999997722669;903;1 A
14.5863989631729;0.599609375;0.050384521484375;9.02999997720144;904;1 A
14.5963989631476;0.599639892578125;0.050384521484375;9.03999997717619;905;1 A
14.6063989631224;0.599578857421875;0.050384521484375;9.04999997715095;906;1 A
14.6163989630971;0.599639892578125;0.05035400390625;9.0599999771257;907;1 A
14.6263989630719;0.599578857421875;0.050323486328125;9.06999997710045;908;1 A
14.6363989630466;0.599578857421875;0.05029296875;9.0799999770752;909;1 A
14.6463989630214;0.599609375;0.05029296875;9.08999997704996;910;1 A
14.6563989629961;0.599639892578125;0.050262451171875;9.09999997702471;911;1 A
14.6663989629709;0.599639892578125;0.050262451171875;9.10999997699946;912;1 A
14.6763989629457;0.599639892578125;0.05023193359375;9.11999997697421;913;1 A
14.6863989629204;0.599517822265625;0.050201416015625;9.12999997694897;914;1 A
14.6963989628952;0.599609375;0.050201416015625;9.13999997692372;915;1 A
14.7063989628699;0.599578857421875;0.0501708984375;9.14999997689847;916;1 A
14.7163989628447;0.599609375;0.0501708984375;9.15999997687322;917;1 A
14.7263989628194;0.599609375;0.050140380859375;9.16999997684798;918;1 A
14.7363989627942;0.599578857421875;0.05010986328125;9.17999997682273;919;1 A
14.7463989627689;0.599609375;0.05010986328125;9.18999997679748;920;1 A
14.7563989627437;0.599578857421875;0.050079345703125;9.19999997677223;921;1 A
14.7663989627184;0.599639892578125;0.050079345703125;9.20999997674699;922;1 A
14.7763989626932;0.599639892578125;0.050048828125;9.21999997672174;923;1 A
14.7863989626679;0.599578857421875;0.050018310546875;9.22999997669649;924;1 A
14.7963989626427;0.599609375;0.050018310546875;9.23999997667124;925;1 A
14.8063989626174;0.599609375;0.04998779296875;9.249999976646;926;1 A
14.8163989625922;0.599639892578125;0.04998779296875;9.25999997662075;927;1 A
14.8263989625669;0.599609375;0.049957275390625;9.2699999765955;928;1 A
14.8363989625417;0.599639892578125;0.0499267578125;9.27999997657025;929;1 A
14.8463989625164;0.599639892578125;0.0499267578125;9.289999976545;930;1 A
14.8563989624912;0.599639892578125;0.049896240234375;9.29999997651976;931;1 A
14.866398962466;0.599639892578125;0.04986572265625;9.30999997649451;932;1 A
14.8763989624407;0.599609375;0.0498748779296875;9.31999997646926;933;1 A
14.8863989624155;0.599761962890625;0.049847412109375;9.32999997644401;934;1 A
14.8963989623902;0.59967041015625;0.0498382568359375;9.33999997641877;935;1 A
14.906398962365;0.59967041015625;0.049810791015625;9.34999997639352;936;1 A
14.9163989623397;0.599700927734375;0.0497894287109375;9.35999997636827;937;1 A
14.9263989623145;0.599639892578125;0.0497802734375;9.36999997634302;938;1 A
14.9363989622892;0.599700927734375;0.049749755859375;9.37999997631778;939;1 A
14.946398962264;0.599700927734375;0.04974365234375;9.38999997629253;940;1 A
14.9563989622387;0.599700927734375;0.0497161865234375;9.39999997626728;941;1 A
14.9663989622135;0.5997314453125;0.0496978759765625;9.40999997624203;942;1 A
14.9763989621882;0.599700927734375;0.0496826171875;9.41999997621679;943;1 A
14.986398962163;0.599700927734375;0.049652099609375;9.42999997619154;944;1 A
14.9963989621377;0.5997314453125;0.0496490478515625;9.43999997616629;945;1 A
15.0063989621125;0.59967041015625;0.049627685546875;9.44999997614104;946;1 A
15.0163989620872;0.599700927734375;0.049603271484375;9.4599999761158;947;1 A
15.026398962062;0.59967041015625;0.049591064453125;9.46999997609055;948;1 A
15.0363989620367;0.59967041015625;0.049560546875;9.4799999760653;949;1 A
15.0463989620115;0.599639892578125;0.049560546875;9.48999997604005;950;1 A
15.0563989619862;0.599700927734375;0.0495361328125;9.49999997601481;951;1 A
15.066398961961;0.599761962890625;0.0495147705078125;9.50999997598956;952;1 A
15.0763989619358;0.59967041015625;0.0494964599609375;9.51999997596431;953;1 A
15.0863989619105;0.599639892578125;0.049468994140625;9.52999997593906;954;1 A
15.0963989618853;0.599700927734375;0.049468994140625;9.53999997591382;955;1 A
15.10639896186;0.599639892578125;0.049444580078125;9.54999997588857;956;1 A
15.1163989618348;0.59967041015625;0.04942626953125;9.55999997586332;957;1 A
15.1263989618095;0.599700927734375;0.0494140625;9.56999997583807;958;1 A
15.1363989617843;0.59967041015625;0.0493865966796875;9.57999997581283;959;1 A
15.146398961759;0.599700927734375;0.04937744140625;9.58999997578758;960;1 A
15.1563989617338;0.5997314453125;0.04935302734375;9.59999997576233;961;1 A
15.1663989617085;0.5997314453125;0.0493377685546875;9.60999997573708;962;1 A
15.1763989616833;0.599700927734375;0.0493255615234375;9.61999997571183;963;1 A
15.186398961658;0.599700927734375;0.049298095703125;9.62999997568659;964;1 A
15.1963989616328;0.59967041015625;0.0492919921875;9.63999997566134;965;1 A
15.2063989616075;0.599639892578125;0.049267578125;9.64999997563609;966;1 A
15.2163989615823;0.599700927734375;0.049249267578125;9.65999997561084;967;1 A
15.226398961557;0.599639892578125;0.0492401123046875;9.6699999755856;968;1 A
15.2363989615318;0.5997314453125;0.049212646484375;9.67999997556035;969;1 A
15.2463989615065;0.599700927734375;0.049212646484375;9.6899999755351;970;1 A
15.2563989614813;0.599700927734375;0.0491851806640625;9.69999997550985;971;1 A
15.266398961456;0.599700927734375;0.049169921875;9.70999997548461;972;1 A
15.2763989614308;0.59967041015625;0.0491607666015625;9.71999997545936;973;1 A
15.2863989614056;0.59967041015625;0.04913330078125;9.72999997543411;974;1 A
15.2963989613803;0.59967041015625;0.04913330078125;9.73999997540886;975;1 A
15.3063989613551;0.59967041015625;0.0491058349609375;9.74999997538362;976;1 A
15.3163989613298;0.59967041015625;0.0490966796875;9.75999997535837;977;1 A
15.3263989613046;0.599639892578125;0.04908447265625;9.76999997533312;978;1 A
15.3363989612793;0.5997314453125;0.0490570068359375;9.77999997530787;979;1 A
15.3463989612541;0.599639892578125;0.04906005859375;9.78999997528263;980;1 A
15.3563989612288;0.59967041015625;0.04903564453125;9.79999997525738;981;1 A
15.3663989612036;0.599609375;0.0490234375;9.80999997523213;982;1 A
15.3763989611783;0.5997314453125;0.04901123046875;9.81999997520688;983;1 A
15.3863989611531;0.599700927734375;0.04898681640625;9.82999997518164;984;1 A
15.3963989611278;0.599700927734375;0.0489898681640625;9.83999997515639;985;1 A
15.4063989611026;0.599700927734375;0.048968505859375;9.84999997513114;986;1 A
15.4163989610773;0.599700927734375;0.0489532470703125;9.85999997510589;987;1 A
15.4263989610521;0.59967041015625;0.0489471435546875;9.86999997508065;988;1 A
15.4363989610268;0.59967041015625;0.04892578125;9.8799999750554;989;1 A
15.4463989610016;0.59967041015625;0.0489288330078125;9.88999997503015;990;1 A
15.4563989609763;0.5997314453125;0.048907470703125;9.8999999750049;991;1 A
15.4663989609511;0.59967041015625;0.0488983154296875;9.90999997497966;992;1 A
15.4763989609258;0.59967041015625;0.04888916015625;9.91999997495441;993;1 A
15.4863989609006;0.599639892578125;0.04886474609375;9.92999997492916;994;1 A
15.4963989608754;0.599700927734375;0.0488677978515625;9.93999997490391;995;1 A
15.5063989608501;0.599700927734375;0.0488494873046875;9.94999997487866;996;1 A
15.5163989608249;0.59967041015625;0.0488372802734375;9.95999997485342;997;1 A
15.5263989607996;0.59967041015625;0.048834228515625;9.96999997482817;998;1 A
15.5363989607744;0.599700927734375;0.0488128662109375;9.97999997480292;999;1 A
15.5463989607491;0.599700927734375;0.048822021484375;9.98999997477767;1000;1 A
