Time (s);WE(1).Potential (V);WE(1).Current (A);Corrected time (s);Index;Current range
76.4086608070867;0.665985107421875;1.26617431640625;0;1;1 A
76.4186608070614;0.650115966796875;0.81512451171875;0.00999999997475243;2;1 A
76.4286608070362;0.649810791015625;0.65765380859375;0.0199999999495049;3;1 A
76.4386608070109;0.64971923828125;0.56854248046875;0.0299999999242573;4;1 A
76.4486608069857;0.649658203125;0.5084228515625;0.0399999998990097;5;1 A
76.4586608069604;0.64959716796875;0.46484375;0.0499999998737621;6;1 A
76.4686608069352;0.649627685546875;0.430877685546875;0.0599999998485146;7;1 A
76.4786608069099;0.649627685546875;0.403533935546875;0.069999999823267;8;1 A
76.4886608068847;0.649627685546875;0.380950927734375;0.0799999997980194;9;1 A
76.4986608068594;0.649627685546875;0.361846923828125;0.0899999997727718;10;1 A
76.5086608068342;0.6495361328125;0.345458984375;0.0999999997475243;11;1 A
76.518660806809;0.649627685546875;0.3311767578125;0.109999999722277;12;1 A
76.5286608067837;0.649566650390625;0.318572998046875;0.119999999697029;13;1 A
76.5386608067585;0.649658203125;0.307342529296875;0.129999999671782;14;1 A
76.5486608067332;0.649627685546875;0.29730224609375;0.139999999646534;15;1 A
76.558660806708;0.6495361328125;0.2882080078125;0.149999999621286;16;1 A
76.5686608066827;0.649566650390625;0.279937744140625;0.159999999596039;17;1 A
76.5786608066575;0.64959716796875;0.2723388671875;0.169999999570791;18;1 A
76.5886608066322;0.64959716796875;0.265380859375;0.179999999545544;19;1 A
76.598660806607;0.649658203125;0.25897216796875;0.189999999520296;20;1 A
76.6086608065817;0.649627685546875;0.253021240234375;0.199999999495049;21;1 A
76.6186608065565;0.649658203125;0.2474365234375;0.209999999469801;22;1 A
76.6286608065312;0.6495361328125;0.24224853515625;0.219999999444553;23;1 A
76.638660806506;0.649627685546875;0.237396240234375;0.229999999419306;24;1 A
76.6486608064807;0.649627685546875;0.232879638671875;0.239999999394058;25;1 A
76.6586608064555;0.649658203125;0.22857666015625;0.249999999368811;26;1 A
76.6686608064302;0.649627685546875;0.224517822265625;0.259999999343563;27;1 A
76.678660806405;0.64959716796875;0.220672607421875;0.269999999318316;28;1 A
76.6886608063797;0.649627685546875;0.217041015625;0.279999999293068;29;1 A
76.6986608063545;0.649627685546875;0.213592529296875;0.28999999926782;30;1 A
76.7086608063292;0.64959716796875;0.2103271484375;0.299999999242573;31;1 A
76.718660806304;0.64959716796875;0.20721435546875;0.309999999217325;32;1 A
76.7286608062788;0.64959716796875;0.204193115234375;0.319999999192078;33;1 A
76.7386608062535;0.64959716796875;0.201385498046875;0.32999999916683;34;1 A
76.7486608062283;0.649627685546875;0.198638916015625;0.339999999141583;35;1 A
76.758660806203;0.649627685546875;0.196044921875;0.349999999116335;36;1 A
76.7686608061778;0.6495361328125;0.19354248046875;0.359999999091087;37;1 A
76.7786608061525;0.649566650390625;0.191131591796875;0.36999999906584;38;1 A
76.7886608061273;0.64959716796875;0.188812255859375;0.379999999040592;39;1 A
76.798660806102;0.649566650390625;0.18658447265625;0.389999999015345;40;1 A
76.8086608060768;0.649566650390625;0.1844482421875;0.399999998990097;41;1 A
76.8186608060515;0.6495361328125;0.182373046875;0.40999999896485;42;1 A
76.8286608060263;0.64959716796875;0.18035888671875;0.419999998939602;43;1 A
76.838660806001;0.64959716796875;0.178466796875;0.429999998914354;44;1 A
76.8486608059758;0.649658203125;0.176605224609375;0.439999998889107;45;1 A
76.8586608059505;0.649566650390625;0.174774169921875;0.449999998863859;46;1 A
76.8686608059253;0.649566650390625;0.17303466796875;0.459999998838612;47;1 A
76.8786608059;0.649658203125;0.171356201171875;0.469999998813364;48;1 A
76.8886608058748;0.649566650390625;0.16973876953125;0.479999998788116;49;1 A
76.8986608058495;0.64959716796875;0.168121337890625;0.489999998762869;50;1 A
76.9086608058243;0.649566650390625;0.166595458984375;0.499999998737621;51;1 A
76.918660805799;0.649566650390625;0.16510009765625;0.509999998712374;52;1 A
76.9286608057738;0.64959716796875;0.16363525390625;0.519999998687126;53;1 A
76.9386608057486;0.649627685546875;0.162200927734375;0.529999998661879;54;1 A
76.9486608057233;0.64959716796875;0.16082763671875;0.539999998636631;55;1 A
76.9586608056981;0.649627685546875;0.15948486328125;0.549999998611383;56;1 A
76.9686608056728;0.64959716796875;0.158172607421875;0.559999998586136;57;1 A
76.9786608056476;0.6495361328125;0.156890869140625;0.569999998560888;58;1 A
76.9886608056223;0.649566650390625;0.155670166015625;0.579999998535641;59;1 A
76.9986608055971;0.64959716796875;0.154449462890625;0.589999998510393;60;1 A
77.0086608055718;0.6495361328125;0.15325927734375;0.599999998485146;61;1 A
77.0186608055466;0.649627685546875;0.152130126953125;0.609999998459898;62;1 A
77.0286608055213;0.649658203125;0.150970458984375;0.61999999843465;63;1 A
77.0386608054961;0.649566650390625;0.149871826171875;0.629999998409403;64;1 A
77.0486608054708;0.649566650390625;0.1488037109375;0.639999998384155;65;1 A
77.0586608054456;0.64959716796875;0.14776611328125;0.649999998358908;66;1 A
77.0686608054203;0.64959716796875;0.146759033203125;0.65999999833366;67;1 A
77.0786608053951;0.649566650390625;0.145721435546875;0.669999998308413;68;1 A
77.0886608053698;0.649627685546875;0.144744873046875;0.679999998283165;69;1 A
77.0986608053446;0.64959716796875;0.143768310546875;0.689999998257917;70;1 A
77.1086608053193;0.649627685546875;0.142822265625;0.69999999823267;71;1 A
77.1186608052941;0.649566650390625;0.14190673828125;0.709999998207422;72;1 A
77.1286608052689;0.649627685546875;0.1409912109375;0.719999998182175;73;1 A
77.1386608052436;0.649627685546875;0.14013671875;0.729999998156927;74;1 A
77.1486608052184;0.6495361328125;0.1392822265625;0.73999999813168;75;1 A
77.1586608051931;0.649566650390625;0.138427734375;0.749999998106432;76;1 A
77.1686608051679;0.649658203125;0.1375732421875;0.759999998081184;77;1 A
77.1786608051426;0.649627685546875;0.136749267578125;0.769999998055937;78;1 A
77.1886608051174;0.649627685546875;0.135955810546875;0.779999998030689;79;1 A
77.1986608050921;0.64959716796875;0.135162353515625;0.789999998005442;80;1 A
77.2086608050669;0.64959716796875;0.134368896484375;0.799999997980194;81;1 A
77.2186608050416;0.649627685546875;0.133636474609375;0.809999997954947;82;1 A
77.2286608050164;0.649627685546875;0.13287353515625;0.819999997929699;83;1 A
77.2386608049911;0.64959716796875;0.13214111328125;0.829999997904451;84;1 A
77.2486608049659;0.649566650390625;0.131439208984375;0.839999997879204;85;1 A
77.2586608049406;0.64959716796875;0.130706787109375;0.849999997853956;86;1 A
77.2686608049154;0.649566650390625;0.130035400390625;0.859999997828709;87;1 A
77.2786608048901;0.649566650390625;0.12933349609375;0.869999997803461;88;1 A
77.2886608048649;0.649627685546875;0.128662109375;0.879999997778214;89;1 A
77.2986608048396;0.649566650390625;0.12799072265625;0.889999997752966;90;1 A
77.3086608048144;0.649566650390625;0.127349853515625;0.899999997727718;91;1 A
77.3186608047891;0.649658203125;0.126708984375;0.909999997702471;92;1 A
77.3286608047639;0.64959716796875;0.126068115234375;0.919999997677223;93;1 A
77.3386608047387;0.649627685546875;0.125457763671875;0.929999997651976;94;1 A
77.3486608047134;0.64959716796875;0.12481689453125;0.939999997626728;95;1 A
77.3586608046882;0.649658203125;0.124237060546875;0.949999997601481;96;1 A
77.3686608046629;0.64959716796875;0.123626708984375;0.959999997576233;97;1 A
77.3786608046377;0.649627685546875;0.123046875;0.969999997550985;98;1 A
77.3886608046124;0.649566650390625;0.122467041015625;0.979999997525738;99;1 A
77.3986608045872;0.649566650390625;0.121917724609375;0.98999999750049;100;1 A
77.4086608045619;0.64959716796875;0.121337890625;0.999999997475243;101;1 A
77.4186608045367;0.649658203125;0.120819091796875;1.00999999745;102;1 A
77.4286608045114;0.649658203125;0.1202392578125;1.01999999742475;103;1 A
77.4386608044862;0.649566650390625;0.119720458984375;1.0299999973995;104;1 A
77.4486608044609;0.649627685546875;0.11920166015625;1.03999999737425;105;1 A
77.4586608044357;0.649566650390625;0.118682861328125;1.049999997349;106;1 A
77.4686608044104;0.649627685546875;0.1181640625;1.05999999732376;107;1 A
77.4786608043852;0.6495361328125;0.11767578125;1.06999999729851;108;1 A
77.4886608043599;0.649566650390625;0.117156982421875;1.07999999727326;109;1 A
77.4986608043347;0.64959716796875;0.11669921875;1.08999999724801;110;1 A
77.5086608043094;0.649566650390625;0.1162109375;1.09999999722277;111;1 A
77.5186608042842;0.649627685546875;0.11572265625;1.10999999719752;112;1 A
77.5286608042589;0.64959716796875;0.115264892578125;1.11999999717227;113;1 A
77.5386608042337;0.64959716796875;0.114776611328125;1.12999999714702;114;1 A
77.5486608042085;0.649566650390625;0.11431884765625;1.13999999712178;115;1 A
77.5586608041832;0.64959716796875;0.113861083984375;1.14999999709653;116;1 A
77.568660804158;0.64959716796875;0.113433837890625;1.15999999707128;117;1 A
77.5786608041327;0.64959716796875;0.11297607421875;1.16999999704603;118;1 A
77.5886608041075;0.649627685546875;0.112548828125;1.17999999702079;119;1 A
77.5986608040822;0.64959716796875;0.11212158203125;1.18999999699554;120;1 A
77.608660804057;0.649627685546875;0.1116943359375;1.19999999697029;121;1 A
77.6186608040317;0.649627685546875;0.11126708984375;1.20999999694504;122;1 A
77.6286608040065;0.649566650390625;0.110870361328125;1.2199999969198;123;1 A
77.6386608039812;0.64959716796875;0.1104736328125;1.22999999689455;124;1 A
77.648660803956;0.649566650390625;0.11004638671875;1.2399999968693;125;1 A
77.6586608039307;0.649658203125;0.109649658203125;1.24999999684405;126;1 A
77.6686608039055;0.64959716796875;0.109283447265625;1.25999999681881;127;1 A
77.6786608038802;0.649627685546875;0.10888671875;1.26999999679356;128;1 A
77.688660803855;0.64959716796875;0.108489990234375;1.27999999676831;129;1 A
77.6986608038297;0.649627685546875;0.108123779296875;1.28999999674306;130;1 A
77.7086608038045;0.649627685546875;0.107757568359375;1.29999999671782;131;1 A
77.7186608037792;0.649566650390625;0.107391357421875;1.30999999669257;132;1 A
77.728660803754;0.649627685546875;0.10699462890625;1.31999999666732;133;1 A
77.7386608037287;0.64959716796875;0.106658935546875;1.32999999664207;134;1 A
77.7486608037035;0.64959716796875;0.106292724609375;1.33999999661683;135;1 A
77.7586608036783;0.649627685546875;0.105926513671875;1.34999999659158;136;1 A
77.768660803653;0.649627685546875;0.1055908203125;1.35999999656633;137;1 A
77.7786608036278;0.64959716796875;0.105224609375;1.36999999654108;138;1 A
77.7886608036025;0.64959716796875;0.104888916015625;1.37999999651583;139;1 A
77.7986608035773;0.649627685546875;0.10455322265625;1.38999999649059;140;1 A
77.808660803552;0.649566650390625;0.104217529296875;1.39999999646534;141;1 A
77.8186608035268;0.64959716796875;0.1038818359375;1.40999999644009;142;1 A
77.8286608035015;0.64959716796875;0.103546142578125;1.41999999641484;143;1 A
77.8386608034763;0.649627685546875;0.103240966796875;1.4299999963896;144;1 A
77.848660803451;0.649627685546875;0.1029052734375;1.43999999636435;145;1 A
77.8586608034258;0.649627685546875;0.10260009765625;1.4499999963391;146;1 A
77.8686608034005;0.649566650390625;0.102294921875;1.45999999631385;147;1 A
77.8786608033753;0.649627685546875;0.101959228515625;1.46999999628861;148;1 A
77.88866080335;0.649627685546875;0.101654052734375;1.47999999626336;149;1 A
77.8986608033248;0.649627685546875;0.10137939453125;1.48999999623811;150;1 A
77.9086608032995;0.649658203125;0.10107421875;1.49999999621286;151;1 A
77.9186608032743;0.6495361328125;0.10076904296875;1.50999999618762;152;1 A
77.928660803249;0.649627685546875;0.1004638671875;1.51999999616237;153;1 A
77.9386608032238;0.649627685546875;0.100189208984375;1.52999999613712;154;1 A
77.9486608031985;0.649566650390625;0.09991455078125;1.53999999611187;155;1 A
77.9586608031733;0.649566650390625;0.099609375;1.54999999608663;156;1 A
77.9686608031481;0.649627685546875;0.099334716796875;1.55999999606138;157;1 A
77.9786608031228;0.649566650390625;0.09906005859375;1.56999999603613;158;1 A
77.9886608030976;0.649658203125;0.098785400390625;1.57999999601088;159;1 A
77.9986608030723;0.649566650390625;0.0985107421875;1.58999999598564;160;1 A
78.0086608030471;0.64959716796875;0.098236083984375;1.59999999596039;161;1 A
78.0186608030218;0.649566650390625;0.09796142578125;1.60999999593514;162;1 A
78.0286608029966;0.64959716796875;0.097686767578125;1.61999999590989;163;1 A
78.0386608029713;0.649627685546875;0.097442626953125;1.62999999588465;164;1 A
78.0486608029461;0.649627685546875;0.09716796875;1.6399999958594;165;1 A
78.0586608029208;0.649658203125;0.096923828125;1.64999999583415;166;1 A
78.0686608028956;0.649566650390625;0.0966796875;1.6599999958089;167;1 A
78.0786608028703;0.649627685546875;0.096405029296875;1.66999999578366;168;1 A
78.0886608028451;0.649627685546875;0.096160888671875;1.67999999575841;169;1 A
78.0986608028198;0.649658203125;0.095916748046875;1.68999999573316;170;1 A
78.1086608027946;0.64959716796875;0.095672607421875;1.69999999570791;171;1 A
78.1186608027693;0.64959716796875;0.095428466796875;1.70999999568267;172;1 A
78.1286608027441;0.64959716796875;0.095184326171875;1.71999999565742;173;1 A
78.1386608027188;0.649566650390625;0.094940185546875;1.72999999563217;174;1 A
78.1486608026936;0.649627685546875;0.094696044921875;1.73999999560692;175;1 A
78.1586608026684;0.64959716796875;0.094482421875;1.74999999558167;176;1 A
78.1686608026431;0.649627685546875;0.09423828125;1.75999999555643;177;1 A
78.1786608026179;0.649566650390625;0.094024658203125;1.76999999553118;178;1 A
78.1886608025926;0.64959716796875;0.093780517578125;1.77999999550593;179;1 A
78.1986608025674;0.649627685546875;0.09356689453125;1.78999999548068;180;1 A
78.2086608025421;0.64959716796875;0.09332275390625;1.79999999545544;181;1 A
78.2186608025169;0.64959716796875;0.0931396484375;1.80999999543019;182;1 A
78.2286608024916;0.64959716796875;0.0928955078125;1.81999999540494;183;1 A
78.2386608024664;0.649627685546875;0.092681884765625;1.82999999537969;184;1 A
78.2486608024411;0.649627685546875;0.09246826171875;1.83999999535445;185;1 A
78.2586608024159;0.649688720703125;0.092254638671875;1.8499999953292;186;1 A
78.2686608023906;0.649566650390625;0.092071533203125;1.85999999530395;187;1 A
78.2786608023654;0.64959716796875;0.09185791015625;1.8699999952787;188;1 A
78.2886608023401;0.649627685546875;0.091644287109375;1.87999999525346;189;1 A
78.2986608023149;0.64959716796875;0.0914306640625;1.88999999522821;190;1 A
78.3086608022896;0.649627685546875;0.091217041015625;1.89999999520296;191;1 A
78.3186608022644;0.649627685546875;0.091033935546875;1.90999999517771;192;1 A
78.3286608022391;0.64959716796875;0.0908203125;1.91999999515247;193;1 A
78.3386608022139;0.64959716796875;0.09063720703125;1.92999999512722;194;1 A
78.3486608021886;0.649566650390625;0.0904541015625;1.93999999510197;195;1 A
78.3586608021634;0.6495361328125;0.090240478515625;1.94999999507672;196;1 A
78.3686608021382;0.649566650390625;0.090057373046875;1.95999999505148;197;1 A
78.3786608021129;0.649566650390625;0.089874267578125;1.96999999502623;198;1 A
78.3886608020877;0.64959716796875;0.089691162109375;1.97999999500098;199;1 A
78.3986608020624;0.64971923828125;0.089508056640625;1.98999999497573;200;1 A
78.4086608020372;0.64959716796875;0.089324951171875;1.99999999495049;201;1 A
78.4186608020119;0.649627685546875;0.089141845703125;2.00999999492524;202;1 A
78.4286608019867;0.649627685546875;0.088958740234375;2.01999999489999;203;1 A
78.4386608019614;0.649627685546875;0.088775634765625;2.02999999487474;204;1 A
78.4486608019362;0.649627685546875;0.088592529296875;2.0399999948495;205;1 A
78.4586608019109;0.64959716796875;0.088409423828125;2.04999999482425;206;1 A
78.4686608018857;0.649566650390625;0.0882568359375;2.059999994799;207;1 A
78.4786608018604;0.64959716796875;0.08807373046875;2.06999999477375;208;1 A
78.4886608018352;0.649566650390625;0.087921142578125;2.0799999947485;209;1 A
78.4986608018099;0.649627685546875;0.087738037109375;2.08999999472326;210;1 A
78.5086608017847;0.64959716796875;0.08758544921875;2.09999999469801;211;1 A
78.5186608017594;0.649627685546875;0.08740234375;2.10999999467276;212;1 A
78.5286608017342;0.64959716796875;0.087249755859375;2.11999999464751;213;1 A
78.5386608017089;0.64959716796875;0.08709716796875;2.12999999462227;214;1 A
78.5486608016837;0.64959716796875;0.0869140625;2.13999999459702;215;1 A
78.5586608016584;0.64959716796875;0.086761474609375;2.14999999457177;216;1 A
78.5686608016332;0.64959716796875;0.08660888671875;2.15999999454652;217;1 A
78.578660801608;0.64959716796875;0.086456298828125;2.16999999452128;218;1 A
78.5886608015827;0.64959716796875;0.0863037109375;2.17999999449603;219;1 A
78.5986608015575;0.649627685546875;0.086151123046875;2.18999999447078;220;1 A
78.6086608015322;0.64959716796875;0.08599853515625;2.19999999444553;221;1 A
78.618660801507;0.649627685546875;0.085845947265625;2.20999999442029;222;1 A
78.6286608014817;0.649566650390625;0.085693359375;2.21999999439504;223;1 A
78.6386608014565;0.64959716796875;0.085540771484375;2.22999999436979;224;1 A
78.6486608014312;0.64959716796875;0.08538818359375;2.23999999434454;225;1 A
78.658660801406;0.649627685546875;0.085235595703125;2.2499999943193;226;1 A
78.6686608013807;0.64959716796875;0.085113525390625;2.25999999429405;227;1 A
78.6786608013555;0.649627685546875;0.0849609375;2.2699999942688;228;1 A
78.6886608013302;0.649566650390625;0.0848388671875;2.27999999424355;229;1 A
78.698660801305;0.649627685546875;0.084686279296875;2.28999999421831;230;1 A
78.7086608012797;0.649566650390625;0.084564208984375;2.29999999419306;231;1 A
78.7186608012545;0.649658203125;0.08441162109375;2.30999999416781;232;1 A
78.7286608012292;0.64959716796875;0.084259033203125;2.31999999414256;233;1 A
78.738660801204;0.649627685546875;0.084136962890625;2.32999999411732;234;1 A
78.7486608011787;0.649658203125;0.084014892578125;2.33999999409207;235;1 A
78.7586608011535;0.64959716796875;0.0838623046875;2.34999999406682;236;1 A
78.7686608011282;0.649658203125;0.083740234375;2.35999999404157;237;1 A
78.778660801103;0.64959716796875;0.0836181640625;2.36999999401633;238;1 A
78.7886608010778;0.649627685546875;0.083465576171875;2.37999999399108;239;1 A
78.7986608010525;0.64959716796875;0.083343505859375;2.38999999396583;240;1 A
78.8086608010273;0.649627685546875;0.083221435546875;2.39999999394058;241;1 A
78.818660801002;0.649627685546875;0.083099365234375;2.40999999391533;242;1 A
78.8286608009768;0.649627685546875;0.082977294921875;2.41999999389009;243;1 A
78.8386608009515;0.649627685546875;0.082855224609375;2.42999999386484;244;1 A
78.8486608009263;0.649627685546875;0.082733154296875;2.43999999383959;245;1 A
78.858660800901;0.64959716796875;0.082611083984375;2.44999999381434;246;1 A
78.8686608008758;0.649627685546875;0.082489013671875;2.4599999937891;247;1 A
78.8786608008505;0.649627685546875;0.082366943359375;2.46999999376385;248;1 A
78.8886608008253;0.64959716796875;0.082244873046875;2.4799999937386;249;1 A
78.8986608008;0.649627685546875;0.082122802734375;2.48999999371335;250;1 A
78.9086608007748;0.649627685546875;0.082000732421875;2.49999999368811;251;1 A
78.9186608007495;0.649658203125;0.081878662109375;2.50999999366286;252;1 A
78.9286608007243;0.649627685546875;0.081756591796875;2.51999999363761;253;1 A
78.938660800699;0.64959716796875;0.081634521484375;2.52999999361236;254;1 A
78.9486608006738;0.64959716796875;0.08154296875;2.53999999358712;255;1 A
78.9586608006485;0.649627685546875;0.0814208984375;2.54999999356187;256;1 A
78.9686608006233;0.64959716796875;0.081329345703125;2.55999999353662;257;1 A
78.978660800598;0.649627685546875;0.081207275390625;2.56999999351137;258;1 A
78.9886608005728;0.649566650390625;0.081085205078125;2.57999999348613;259;1 A
78.9986608005476;0.649627685546875;0.08099365234375;2.58999999346088;260;1 A
79.0086608005223;0.64959716796875;0.08087158203125;2.59999999343563;261;1 A
79.0186608004971;0.649627685546875;0.080780029296875;2.60999999341038;262;1 A
79.0286608004718;0.649658203125;0.080657958984375;2.61999999338514;263;1 A
79.0386608004466;0.649627685546875;0.080535888671875;2.62999999335989;264;1 A
79.0486608004213;0.649627685546875;0.0804443359375;2.63999999333464;265;1 A
79.0586608003961;0.64959716796875;0.080322265625;2.64999999330939;266;1 A
79.0686608003708;0.649627685546875;0.080230712890625;2.65999999328415;267;1 A
79.0786608003456;0.649627685546875;0.08013916015625;2.6699999932589;268;1 A
79.0886608003203;0.649658203125;0.08001708984375;2.67999999323365;269;1 A
79.0986608002951;0.64959716796875;0.079925537109375;2.6899999932084;270;1 A
79.1086608002698;0.649627685546875;0.079803466796875;2.69999999318316;271;1 A
79.1186608002446;0.649627685546875;0.0797119140625;2.70999999315791;272;1 A
79.1286608002193;0.649566650390625;0.079620361328125;2.71999999313266;273;1 A
79.1386608001941;0.6495361328125;0.07952880859375;2.72999999310741;274;1 A
79.1486608001688;0.64959716796875;0.07940673828125;2.73999999308217;275;1 A
79.1586608001436;0.649627685546875;0.079315185546875;2.74999999305692;276;1 A
79.1686608001183;0.64959716796875;0.0792236328125;2.75999999303167;277;1 A
79.1786608000931;0.649627685546875;0.079132080078125;2.76999999300642;278;1 A
79.1886608000679;0.649658203125;0.079010009765625;2.77999999298117;279;1 A
79.1986608000426;0.64959716796875;0.07891845703125;2.78999999295593;280;1 A
79.2086608000174;0.649658203125;0.078826904296875;2.79999999293068;281;1 A
79.2186607999921;0.649627685546875;0.0787353515625;2.80999999290543;282;1 A
79.2286607999669;0.649566650390625;0.078643798828125;2.81999999288018;283;1 A
79.2386607999416;0.64959716796875;0.07855224609375;2.82999999285494;284;1 A
79.2486607999164;0.649658203125;0.078460693359375;2.83999999282969;285;1 A
79.2586607998911;0.64959716796875;0.078369140625;2.84999999280444;286;1 A
79.2686607998659;0.649627685546875;0.078277587890625;2.85999999277919;287;1 A
79.2786607998406;0.64959716796875;0.07818603515625;2.86999999275395;288;1 A
79.2886607998154;0.64959716796875;0.078094482421875;2.8799999927287;289;1 A
79.2986607997901;0.649627685546875;0.078033447265625;2.88999999270345;290;1 A
79.3086607997649;0.649688720703125;0.07794189453125;2.8999999926782;291;1 A
79.3186607997396;0.64959716796875;0.077850341796875;2.90999999265296;292;1 A
79.3286607997144;0.649566650390625;0.0777587890625;2.91999999262771;293;1 A
79.3386607996891;0.649627685546875;0.077667236328125;2.92999999260246;294;1 A
79.3486607996639;0.649627685546875;0.07757568359375;2.93999999257721;295;1 A
79.3586607996386;0.649627685546875;0.077484130859375;2.94999999255197;296;1 A
79.3686607996134;0.649627685546875;0.077392578125;2.95999999252672;297;1 A
79.3786607995881;0.64959716796875;0.077301025390625;2.96999999250147;298;1 A
79.3886607995629;0.649566650390625;0.07720947265625;2.97999999247622;299;1 A
79.3986607995377;0.64959716796875;0.0771484375;2.98999999245098;300;1 A
79.4086607995124;0.64959716796875;0.077056884765625;2.99999999242573;301;1 A
79.4186607994872;0.64959716796875;0.07696533203125;3.00999999240048;302;1 A
79.4286607994619;0.64959716796875;0.076873779296875;3.01999999237523;303;1 A
79.4386607994367;0.64959716796875;0.076812744140625;3.02999999234999;304;1 A
79.4486607994114;0.649658203125;0.07672119140625;3.03999999232474;305;1 A
79.4586607993862;0.649627685546875;0.076629638671875;3.04999999229949;306;1 A
79.4686607993609;0.649627685546875;0.076568603515625;3.05999999227424;307;1 A
79.4786607993357;0.649688720703125;0.07647705078125;3.069999992249;308;1 A
79.4886607993104;0.64959716796875;0.076385498046875;3.07999999222375;309;1 A
79.4986607992852;0.64959716796875;0.0762939453125;3.0899999921985;310;1 A
79.5086607992599;0.64959716796875;0.07623291015625;3.09999999217325;311;1 A
79.5186607992347;0.649566650390625;0.076141357421875;3.109999992148;312;1 A
79.5286607992094;0.649566650390625;0.0760498046875;3.11999999212276;313;1 A
79.5386607991842;0.64959716796875;0.07598876953125;3.12999999209751;314;1 A
79.5486607991589;0.649658203125;0.075897216796875;3.13999999207226;315;1 A
79.5586607991337;0.64959716796875;0.0758056640625;3.14999999204701;316;1 A
79.5686607991084;0.64959716796875;0.07574462890625;3.15999999202177;317;1 A
79.5786607990832;0.649688720703125;0.075653076171875;3.16999999199652;318;1 A
79.5886607990579;0.649566650390625;0.075592041015625;3.17999999197127;319;1 A
79.5986607990327;0.649627685546875;0.07550048828125;3.18999999194602;320;1 A
79.6086607990075;0.649658203125;0.075408935546875;3.19999999192078;321;1 A
79.6186607989822;0.64959716796875;0.075347900390625;3.20999999189553;322;1 A
79.628660798957;0.649658203125;0.07525634765625;3.21999999187028;323;1 A
79.6386607989317;0.64959716796875;0.0751953125;3.22999999184503;324;1 A
79.6486607989065;0.649627685546875;0.075103759765625;3.23999999181979;325;1 A
79.6586607988812;0.64959716796875;0.075042724609375;3.24999999179454;326;1 A
79.668660798856;0.649566650390625;0.074981689453125;3.25999999176929;327;1 A
79.6786607988307;0.649658203125;0.07489013671875;3.26999999174404;328;1 A
79.6886607988055;0.649627685546875;0.074798583984375;3.2799999917188;329;1 A
79.6986607987802;0.649627685546875;0.074737548828125;3.28999999169355;330;1 A
79.708660798755;0.649627685546875;0.07464599609375;3.2999999916683;331;1 A
79.7186607987297;0.649566650390625;0.0745849609375;3.30999999164305;332;1 A
79.7286607987045;0.649627685546875;0.07452392578125;3.31999999161781;333;1 A
79.7386607986792;0.649627685546875;0.074432373046875;3.32999999159256;334;1 A
79.748660798654;0.64959716796875;0.074371337890625;3.33999999156731;335;1 A
79.7586607986287;0.649627685546875;0.07427978515625;3.34999999154206;336;1 A
79.7686607986035;0.649627685546875;0.07421875;3.35999999151682;337;1 A
79.7786607985782;0.649658203125;0.07415771484375;3.36999999149157;338;1 A
79.788660798553;0.649627685546875;0.074066162109375;3.37999999146632;339;1 A
79.7986607985277;0.649627685546875;0.074005126953125;3.38999999144107;340;1 A
79.8086607985025;0.64959716796875;0.07391357421875;3.39999999141583;341;1 A
79.8186607984773;0.649627685546875;0.073883056640625;3.40999999139058;342;1 A
79.828660798452;0.64959716796875;0.07379150390625;3.41999999136533;343;1 A
79.8386607984268;0.649566650390625;0.07373046875;3.42999999134008;344;1 A
79.8486607984015;0.64959716796875;0.073638916015625;3.43999999131483;345;1 A
79.8586607983763;0.649627685546875;0.073577880859375;3.44999999128959;346;1 A
79.868660798351;0.64959716796875;0.073516845703125;3.45999999126434;347;1 A
79.8786607983258;0.649627685546875;0.07342529296875;3.46999999123909;348;1 A
79.8886607983005;0.649627685546875;0.0733642578125;3.47999999121384;349;1 A
79.8986607982753;0.649627685546875;0.07330322265625;3.4899999911886;350;1 A
79.90866079825;0.649658203125;0.0732421875;3.49999999116335;351;1 A
79.9186607982248;0.64959716796875;0.07318115234375;3.5099999911381;352;1 A
79.9286607981995;0.64959716796875;0.073089599609375;3.51999999111285;353;1 A
79.9386607981743;0.64959716796875;0.073028564453125;3.52999999108761;354;1 A
79.948660798149;0.649658203125;0.072967529296875;3.53999999106236;355;1 A
79.9586607981238;0.64959716796875;0.072906494140625;3.54999999103711;356;1 A
79.9686607980985;0.649627685546875;0.072845458984375;3.55999999101186;357;1 A
79.9786607980733;0.649658203125;0.07275390625;3.56999999098662;358;1 A
79.988660798048;0.649658203125;0.07269287109375;3.57999999096137;359;1 A
79.9986607980228;0.649627685546875;0.0726318359375;3.58999999093612;360;1 A
80.0086607979975;0.649627685546875;0.07257080078125;3.59999999091087;361;1 A
80.0186607979723;0.649627685546875;0.072509765625;3.60999999088563;362;1 A
80.0286607979471;0.64959716796875;0.07244873046875;3.61999999086038;363;1 A
80.0386607979218;0.649658203125;0.0723876953125;3.62999999083513;364;1 A
80.0486607978966;0.64959716796875;0.07232666015625;3.63999999080988;365;1 A
80.0586607978713;0.649658203125;0.072235107421875;3.64999999078464;366;1 A
80.0686607978461;0.649627685546875;0.07220458984375;3.65999999075939;367;1 A
80.0786607978208;0.649627685546875;0.072113037109375;3.66999999073414;368;1 A
80.0886607977956;0.649627685546875;0.072052001953125;3.67999999070889;369;1 A
80.0986607977703;0.649658203125;0.071990966796875;3.68999999068365;370;1 A
80.1086607977451;0.64959716796875;0.071929931640625;3.6999999906584;371;1 A
80.1186607977198;0.649627685546875;0.071868896484375;3.70999999063315;372;1 A
80.1286607976946;0.64959716796875;0.071807861328125;3.7199999906079;373;1 A
80.1386607976693;0.649566650390625;0.071746826171875;3.72999999058266;374;1 A
80.1486607976441;0.6495361328125;0.071685791015625;3.73999999055741;375;1 A
80.1586607976188;0.64959716796875;0.071624755859375;3.74999999053216;376;1 A
80.1686607975936;0.649658203125;0.071563720703125;3.75999999050691;377;1 A
80.1786607975683;0.649658203125;0.071502685546875;3.76999999048167;378;1 A
80.1886607975431;0.649566650390625;0.071441650390625;3.77999999045642;379;1 A
80.1986607975178;0.64959716796875;0.071380615234375;3.78999999043117;380;1 A
80.2086607974926;0.649627685546875;0.071319580078125;3.79999999040592;381;1 A
80.2186607974674;0.649658203125;0.071258544921875;3.80999999038067;382;1 A
80.2286607974421;0.64959716796875;0.071197509765625;3.81999999035543;383;1 A
80.2386607974169;0.649627685546875;0.071136474609375;3.82999999033018;384;1 A
80.2486607973916;0.649627685546875;0.071075439453125;3.83999999030493;385;1 A
80.2586607973664;0.64959716796875;0.071014404296875;3.84999999027968;386;1 A
80.2686607973411;0.649627685546875;0.07098388671875;3.85999999025444;387;1 A
80.2786607973159;0.649627685546875;0.0709228515625;3.86999999022919;388;1 A
80.2886607972906;0.649658203125;0.07086181640625;3.87999999020394;389;1 A
80.2986607972654;0.6495361328125;0.07080078125;3.88999999017869;390;1 A
80.3086607972401;0.649627685546875;0.07073974609375;3.89999999015345;391;1 A
80.3186607972149;0.649658203125;0.070709228515625;3.9099999901282;392;1 A
80.3286607971896;0.64959716796875;0.07061767578125;3.91999999010295;393;1 A
80.3386607971644;0.649627685546875;0.070556640625;3.9299999900777;394;1 A
80.3486607971391;0.6495361328125;0.070526123046875;3.93999999005246;395;1 A
80.3586607971139;0.649627685546875;0.070465087890625;3.94999999002721;396;1 A
80.3686607970886;0.649658203125;0.070404052734375;3.95999999000196;397;1 A
80.3786607970634;0.649566650390625;0.070343017578125;3.96999998997671;398;1 A
80.3886607970381;0.64959716796875;0.070281982421875;3.97999998995147;399;1 A
80.3986607970129;0.64959716796875;0.07025146484375;3.98999998992622;400;1 A
80.4086607969876;0.649627685546875;0.0701904296875;3.99999998990097;401;1 A
80.4186607969624;0.649688720703125;0.07012939453125;4.00999998987572;402;1 A
80.4286607969372;0.649627685546875;0.070068359375;4.01999998985048;403;1 A
80.4386607969119;0.649627685546875;0.070037841796875;4.02999998982523;404;1 A
80.4486607968867;0.649658203125;0.069976806640625;4.03999998979998;405;1 A
80.4586607968614;0.64959716796875;0.069915771484375;4.04999998977473;406;1 A
80.4686607968362;0.64959716796875;0.06988525390625;4.05999998974949;407;1 A
80.4786607968109;0.649627685546875;0.06982421875;4.06999998972424;408;1 A
80.4886607967857;0.649658203125;0.06976318359375;4.07999998969899;409;1 A
80.4986607967604;0.649627685546875;0.0697021484375;4.08999998967374;410;1 A
80.5086607967352;0.649627685546875;0.069671630859375;4.0999999896485;411;1 A
80.5186607967099;0.649566650390625;0.069610595703125;4.10999998962325;412;1 A
80.5286607966847;0.64959716796875;0.069549560546875;4.119999989598;413;1 A
80.5386607966594;0.649566650390625;0.06951904296875;4.12999998957275;414;1 A
80.5486607966342;0.649566650390625;0.0694580078125;4.1399999895475;415;1 A
80.5586607966089;0.649627685546875;0.06939697265625;4.14999998952226;416;1 A
80.5686607965837;0.649627685546875;0.069366455078125;4.15999998949701;417;1 A
80.5786607965584;0.649627685546875;0.069305419921875;4.16999998947176;418;1 A
80.5886607965332;0.64959716796875;0.069244384765625;4.17999998944651;419;1 A
80.5986607965079;0.649627685546875;0.0692138671875;4.18999998942127;420;1 A
80.6086607964827;0.649627685546875;0.06915283203125;4.19999998939602;421;1 A
80.6186607964574;0.649627685546875;0.069091796875;4.20999998937077;422;1 A
80.6286607964322;0.64959716796875;0.069061279296875;4.21999998934552;423;1 A
80.638660796407;0.649627685546875;0.069000244140625;4.22999998932028;424;1 A
80.6486607963817;0.64959716796875;0.0689697265625;4.23999998929503;425;1 A
80.6586607963565;0.64959716796875;0.06890869140625;4.24999998926978;426;1 A
80.6686607963312;0.649658203125;0.068878173828125;4.25999998924453;427;1 A
80.678660796306;0.64959716796875;0.068817138671875;4.26999998921929;428;1 A
80.6886607962807;0.64959716796875;0.06878662109375;4.27999998919404;429;1 A
80.6986607962555;0.649627685546875;0.0687255859375;4.28999998916879;430;1 A
80.7086607962302;0.64959716796875;0.06866455078125;4.29999998914354;431;1 A
80.718660796205;0.649627685546875;0.068634033203125;4.3099999891183;432;1 A
80.7286607961797;0.649627685546875;0.068572998046875;4.31999998909305;433;1 A
80.7386607961545;0.649658203125;0.06854248046875;4.3299999890678;434;1 A
80.7486607961292;0.64959716796875;0.068511962890625;4.33999998904255;435;1 A
80.758660796104;0.64959716796875;0.068450927734375;4.34999998901731;436;1 A
80.7686607960787;0.64959716796875;0.06842041015625;4.35999998899206;437;1 A
80.7786607960535;0.64959716796875;0.068359375;4.36999998896681;438;1 A
80.7886607960282;0.649627685546875;0.06829833984375;4.37999998894156;439;1 A
80.798660796003;0.64959716796875;0.068267822265625;4.38999998891632;440;1 A
80.8086607959777;0.64959716796875;0.068206787109375;4.39999998889107;441;1 A
80.8186607959525;0.649627685546875;0.06817626953125;4.40999998886582;442;1 A
80.8286607959272;0.64959716796875;0.068115234375;4.41999998884057;443;1 A
80.838660795902;0.64959716796875;0.068084716796875;4.42999998881533;444;1 A
80.8486607958768;0.64959716796875;0.06805419921875;4.43999998879008;445;1 A
80.8586607958515;0.649658203125;0.0679931640625;4.44999998876483;446;1 A
80.8686607958263;0.649688720703125;0.067962646484375;4.45999998873958;447;1 A
80.878660795801;0.649627685546875;0.067901611328125;4.46999998871433;448;1 A
80.8886607957758;0.649627685546875;0.06787109375;4.47999998868909;449;1 A
80.8986607957505;0.649627685546875;0.067840576171875;4.48999998866384;450;1 A
80.9086607957253;0.64971923828125;0.067779541015625;4.49999998863859;451;1 A
80.9186607957;0.649627685546875;0.0677490234375;4.50999998861334;452;1 A
80.9286607956748;0.649627685546875;0.067718505859375;4.5199999885881;453;1 A
80.9386607956495;0.649658203125;0.067657470703125;4.52999998856285;454;1 A
80.9486607956243;0.64959716796875;0.067626953125;4.5399999885376;455;1 A
80.958660795599;0.649658203125;0.06756591796875;4.54999998851235;456;1 A
80.9686607955738;0.6495361328125;0.067535400390625;4.55999998848711;457;1 A
80.9786607955485;0.649658203125;0.0675048828125;4.56999998846186;458;1 A
80.9886607955233;0.64959716796875;0.06744384765625;4.57999998843661;459;1 A
80.998660795498;0.649658203125;0.067413330078125;4.58999998841136;460;1 A
81.0086607954728;0.64959716796875;0.067352294921875;4.59999998838612;461;1 A
81.0186607954475;0.649627685546875;0.06732177734375;4.60999998836087;462;1 A
81.0286607954223;0.649627685546875;0.067291259765625;4.61999998833562;463;1 A
81.038660795397;0.649658203125;0.0672607421875;4.62999998831037;464;1 A
81.0486607953718;0.649627685546875;0.067230224609375;4.63999998828513;465;1 A
81.0586607953466;0.649658203125;0.067169189453125;4.64999998825988;466;1 A
81.0686607953213;0.649627685546875;0.067138671875;4.65999998823463;467;1 A
81.0786607952961;0.649658203125;0.067108154296875;4.66999998820938;468;1 A
81.0886607952708;0.649627685546875;0.06707763671875;4.67999998818414;469;1 A
81.0986607952456;0.649627685546875;0.067047119140625;4.68999998815889;470;1 A
81.1086607952203;0.64959716796875;0.066986083984375;4.69999998813364;471;1 A
81.1186607951951;0.649658203125;0.06695556640625;4.70999998810839;472;1 A
81.1286607951698;0.649627685546875;0.066925048828125;4.71999998808315;473;1 A
81.1386607951446;0.649627685546875;0.066864013671875;4.7299999880579;474;1 A
81.1486607951193;0.64959716796875;0.06683349609375;4.73999998803265;475;1 A
81.1586607950941;0.649627685546875;0.066802978515625;4.7499999880074;476;1 A
81.1686607950688;0.649658203125;0.0667724609375;4.75999998798216;477;1 A
81.1786607950436;0.64959716796875;0.06671142578125;4.76999998795691;478;1 A
81.1886607950183;0.649627685546875;0.066680908203125;4.77999998793166;479;1 A
81.1986607949931;0.649658203125;0.066650390625;4.78999998790641;480;1 A
81.2086607949678;0.649627685546875;0.066619873046875;4.79999998788116;481;1 A
81.2186607949426;0.649658203125;0.06658935546875;4.80999998785592;482;1 A
81.2286607949173;0.649627685546875;0.066558837890625;4.81999998783067;483;1 A
81.2386607948921;0.649627685546875;0.066497802734375;4.82999998780542;484;1 A
81.2486607948669;0.649627685546875;0.06646728515625;4.83999998778017;485;1 A
81.2586607948416;0.649658203125;0.066436767578125;4.84999998775493;486;1 A
81.2686607948164;0.649627685546875;0.06640625;4.85999998772968;487;1 A
81.2786607947911;0.649658203125;0.066375732421875;4.86999998770443;488;1 A
81.2886607947659;0.64959716796875;0.066314697265625;4.87999998767918;489;1 A
81.2986607947406;0.64959716796875;0.0662841796875;4.88999998765394;490;1 A
81.3086607947154;0.64959716796875;0.066253662109375;4.89999998762869;491;1 A
81.3186607946901;0.649627685546875;0.06622314453125;4.90999998760344;492;1 A
81.3286607946649;0.649658203125;0.066192626953125;4.91999998757819;493;1 A
81.3386607946396;0.64959716796875;0.066162109375;4.92999998755295;494;1 A
81.3486607946144;0.649627685546875;0.066131591796875;4.9399999875277;495;1 A
81.3586607945891;0.64959716796875;0.066070556640625;4.94999998750245;496;1 A
81.3686607945639;0.649627685546875;0.066070556640625;4.9599999874772;497;1 A
81.3786607945386;0.64959716796875;0.066009521484375;4.96999998745196;498;1 A
81.3886607945134;0.64959716796875;0.06597900390625;4.97999998742671;499;1 A
81.3986607944881;0.64959716796875;0.065948486328125;4.98999998740146;500;1 A
81.4086607944629;0.649627685546875;0.06591796875;4.99999998737621;501;1 A
81.4186607944376;0.64959716796875;0.065887451171875;5.00999998735097;502;1 A
81.4286607944124;0.649627685546875;0.06585693359375;5.01999998732572;503;1 A
81.4386607943871;0.649688720703125;0.065826416015625;5.02999998730047;504;1 A
81.4486607943619;0.64959716796875;0.0657958984375;5.03999998727522;505;1 A
81.4586607943367;0.649627685546875;0.06573486328125;5.04999998724998;506;1 A
81.4686607943114;0.649627685546875;0.06573486328125;5.05999998722473;507;1 A
81.4786607942862;0.64959716796875;0.065704345703125;5.06999998719948;508;1 A
81.4886607942609;0.64959716796875;0.065673828125;5.07999998717423;509;1 A
81.4986607942357;0.649658203125;0.065643310546875;5.08999998714899;510;1 A
81.5086607942104;0.649627685546875;0.065582275390625;5.09999998712374;511;1 A
81.5186607941852;0.649658203125;0.065582275390625;5.10999998709849;512;1 A
81.5286607941599;0.649627685546875;0.065521240234375;5.11999998707324;513;1 A
81.5386607941347;0.649627685546875;0.06549072265625;5.129999987048;514;1 A
81.5486607941094;0.649627685546875;0.06549072265625;5.13999998702275;515;1 A
81.5586607940842;0.64959716796875;0.0654296875;5.1499999869975;516;1 A
81.5686607940589;0.649627685546875;0.065399169921875;5.15999998697225;517;1 A
81.5786607940337;0.649658203125;0.06536865234375;5.169999986947;518;1 A
81.5886607940084;0.649566650390625;0.065338134765625;5.17999998692176;519;1 A
81.5986607939832;0.649627685546875;0.0653076171875;5.18999998689651;520;1 A
81.6086607939579;0.649658203125;0.065277099609375;5.19999998687126;521;1 A
81.6186607939327;0.649658203125;0.06524658203125;5.20999998684601;522;1 A
81.6286607939074;0.649627685546875;0.065216064453125;5.21999998682077;523;1 A
81.6386607938822;0.64959716796875;0.065185546875;5.22999998679552;524;1 A
81.6486607938569;0.64959716796875;0.065155029296875;5.23999998677027;525;1 A
81.6586607938317;0.64959716796875;0.06512451171875;5.24999998674502;526;1 A
81.6686607938065;0.649627685546875;0.065093994140625;5.25999998671978;527;1 A
81.6786607937812;0.649658203125;0.0650634765625;5.26999998669453;528;1 A
81.688660793756;0.64959716796875;0.065032958984375;5.27999998666928;529;1 A
81.6986607937307;0.64959716796875;0.065032958984375;5.28999998664403;530;1 A
81.7086607937055;0.649627685546875;0.064971923828125;5.29999998661879;531;1 A
81.7186607936802;0.649658203125;0.06494140625;5.30999998659354;532;1 A
81.728660793655;0.649627685546875;0.064910888671875;5.31999998656829;533;1 A
81.7386607936297;0.649627685546875;0.06488037109375;5.32999998654304;534;1 A
81.7486607936045;0.649566650390625;0.064849853515625;5.3399999865178;535;1 A
81.7586607935792;0.649566650390625;0.0648193359375;5.34999998649255;536;1 A
81.768660793554;0.64959716796875;0.0648193359375;5.3599999864673;537;1 A
81.7786607935287;0.64959716796875;0.06475830078125;5.36999998644205;538;1 A
81.7886607935035;0.64959716796875;0.064727783203125;5.37999998641681;539;1 A
81.7986607934782;0.64959716796875;0.064727783203125;5.38999998639156;540;1 A
81.808660793453;0.64959716796875;0.064666748046875;5.39999998636631;541;1 A
81.8186607934277;0.649627685546875;0.064666748046875;5.40999998634106;542;1 A
81.8286607934025;0.649658203125;0.06463623046875;5.41999998631582;543;1 A
81.8386607933772;0.649627685546875;0.064605712890625;5.42999998629057;544;1 A
81.848660793352;0.64959716796875;0.0645751953125;5.43999998626532;545;1 A
81.8586607933267;0.64959716796875;0.06451416015625;5.44999998624007;546;1 A
81.8686607933015;0.649658203125;0.06451416015625;5.45999998621483;547;1 A
81.8786607932763;0.649688720703125;0.064483642578125;5.46999998618958;548;1 A
81.888660793251;0.64959716796875;0.064453125;5.47999998616433;549;1 A
81.8986607932258;0.649627685546875;0.064422607421875;5.48999998613908;550;1 A
81.9086607932005;0.64959716796875;0.06439208984375;5.49999998611383;551;1 A
81.9186607931753;0.649627685546875;0.064361572265625;5.50999998608859;552;1 A
81.92866079315;0.649658203125;0.0643310546875;5.51999998606334;553;1 A
81.9386607931248;0.649627685546875;0.064300537109375;5.52999998603809;554;1 A
81.9486607930995;0.64959716796875;0.06427001953125;5.53999998601284;555;1 A
81.9586607930743;0.649627685546875;0.064239501953125;5.5499999859876;556;1 A
81.968660793049;0.649566650390625;0.064208984375;5.55999998596235;557;1 A
81.9786607930238;0.64959716796875;0.064178466796875;5.5699999859371;558;1 A
81.9886607929985;0.649688720703125;0.06414794921875;5.57999998591185;559;1 A
81.9986607929733;0.649627685546875;0.06414794921875;5.58999998588661;560;1 A
82.008660792948;0.649627685546875;0.064117431640625;5.59999998586136;561;1 A
82.0186607929228;0.649658203125;0.0640869140625;5.60999998583611;562;1 A
82.0286607928975;0.64959716796875;0.064056396484375;5.61999998581086;563;1 A
82.0386607928723;0.64959716796875;0.06402587890625;5.62999998578562;564;1 A
82.048660792847;0.64959716796875;0.063995361328125;5.63999998576037;565;1 A
82.0586607928218;0.64959716796875;0.06396484375;5.64999998573512;566;1 A
82.0686607927965;0.64959716796875;0.063934326171875;5.65999998570987;567;1 A
82.0786607927713;0.649658203125;0.06390380859375;5.66999998568463;568;1 A
82.0886607927461;0.649627685546875;0.06390380859375;5.67999998565938;569;1 A
82.0986607927208;0.649658203125;0.063873291015625;5.68999998563413;570;1 A
82.1086607926956;0.64959716796875;0.0638427734375;5.69999998560888;571;1 A
82.1186607926703;0.649566650390625;0.063812255859375;5.70999998558364;572;1 A
82.1286607926451;0.6495361328125;0.06378173828125;5.71999998555839;573;1 A
82.1386607926198;0.649627685546875;0.063751220703125;5.72999998553314;574;1 A
82.1486607925946;0.649658203125;0.063720703125;5.73999998550789;575;1 A
82.1586607925693;0.649627685546875;0.063690185546875;5.74999998548265;576;1 A
82.1686607925441;0.649658203125;0.06365966796875;5.7599999854574;577;1 A
82.1786607925188;0.649688720703125;0.06365966796875;5.76999998543215;578;1 A
82.1886607924936;0.649627685546875;0.063629150390625;5.7799999854069;579;1 A
82.1986607924683;0.649627685546875;0.0635986328125;5.78999998538166;580;1 A
82.2086607924431;0.649658203125;0.063568115234375;5.79999998535641;581;1 A
82.2186607924178;0.64959716796875;0.06353759765625;5.80999998533116;582;1 A
82.2286607923926;0.6495361328125;0.063507080078125;5.81999998530591;583;1 A
82.2386607923673;0.6495361328125;0.0634765625;5.82999998528066;584;1 A
82.2486607923421;0.649627685546875;0.0634765625;5.83999998525542;585;1 A
82.2586607923168;0.649658203125;0.06341552734375;5.84999998523017;586;1 A
82.2686607922916;0.64959716796875;0.06341552734375;5.85999998520492;587;1 A
82.2786607922664;0.649658203125;0.063385009765625;5.86999998517967;588;1 A
82.2886607922411;0.649658203125;0.0633544921875;5.87999998515443;589;1 A
82.2986607922159;0.649658203125;0.063323974609375;5.88999998512918;590;1 A
82.3086607921906;0.649627685546875;0.06329345703125;5.89999998510393;591;1 A
82.3186607921654;0.64959716796875;0.063262939453125;5.90999998507868;592;1 A
82.3286607921401;0.649627685546875;0.063262939453125;5.91999998505344;593;1 A
82.3386607921149;0.649688720703125;0.063232421875;5.92999998502819;594;1 A
82.3486607920896;0.649627685546875;0.063201904296875;5.93999998500294;595;1 A
82.3586607920644;0.649627685546875;0.06317138671875;5.94999998497769;596;1 A
82.3686607920391;0.649627685546875;0.063140869140625;5.95999998495245;597;1 A
82.3786607920139;0.649658203125;0.063140869140625;5.9699999849272;598;1 A
82.3886607919886;0.649627685546875;0.0631103515625;5.97999998490195;599;1 A
82.3986607919634;0.649688720703125;0.063079833984375;5.9899999848767;600;1 A
82.4086607919381;0.649688720703125;0.06304931640625;5.99999998485146;601;1 A
82.4186607919129;0.649627685546875;0.063018798828125;6.00999998482621;602;1 A
82.4286607918876;0.649658203125;0.06298828125;6.01999998480096;603;1 A
82.4386607918624;0.649566650390625;0.062957763671875;6.02999998477571;604;1 A
82.4486607918371;0.649566650390625;0.062957763671875;6.03999998475047;605;1 A
82.4586607918119;0.64959716796875;0.06292724609375;6.04999998472522;606;1 A
82.4686607917866;0.64959716796875;0.062896728515625;6.05999998469997;607;1 A
82.4786607917614;0.649566650390625;0.0628662109375;6.06999998467472;608;1 A
82.4886607917362;0.649627685546875;0.062835693359375;6.07999998464948;609;1 A
82.4986607917109;0.649627685546875;0.062835693359375;6.08999998462423;610;1 A
82.5086607916857;0.649627685546875;0.06280517578125;6.09999998459898;611;1 A
82.5186607916604;0.64959716796875;0.062774658203125;6.10999998457373;612;1 A
82.5286607916352;0.649627685546875;0.062744140625;6.11999998454849;613;1 A
82.5386607916099;0.649566650390625;0.062713623046875;6.12999998452324;614;1 A
82.5486607915847;0.649627685546875;0.062713623046875;6.13999998449799;615;1 A
82.5586607915594;0.649627685546875;0.06268310546875;6.14999998447274;616;1 A
82.5686607915342;0.64959716796875;0.062652587890625;6.1599999844475;617;1 A
82.5786607915089;0.64959716796875;0.0626220703125;6.16999998442225;618;1 A
82.5886607914837;0.649627685546875;0.062591552734375;6.179999984397;619;1 A
82.5986607914584;0.649658203125;0.06256103515625;6.18999998437175;620;1 A
82.6086607914332;0.649627685546875;0.062530517578125;6.1999999843465;621;1 A
82.6186607914079;0.64959716796875;0.062530517578125;6.20999998432126;622;1 A
82.6286607913827;0.649658203125;0.0625;6.21999998429601;623;1 A
82.6386607913574;0.649688720703125;0.062469482421875;6.22999998427076;624;1 A
82.6486607913322;0.649566650390625;0.062469482421875;6.23999998424551;625;1 A
82.6586607913069;0.649658203125;0.062408447265625;6.24999998422027;626;1 A
82.6686607912817;0.649658203125;0.062408447265625;6.25999998419502;627;1 A
82.6786607912564;0.64959716796875;0.0623779296875;6.26999998416977;628;1 A
82.6886607912312;0.64959716796875;0.062347412109375;6.27999998414452;629;1 A
82.698660791206;0.649566650390625;0.062347412109375;6.28999998411928;630;1 A
82.7086607911807;0.649658203125;0.062286376953125;6.29999998409403;631;1 A
82.7186607911555;0.649566650390625;0.062286376953125;6.30999998406878;632;1 A
82.7286607911302;0.649627685546875;0.062255859375;6.31999998404353;633;1 A
82.738660791105;0.64959716796875;0.062225341796875;6.32999998401829;634;1 A
82.7486607910797;0.649566650390625;0.062225341796875;6.33999998399304;635;1 A
82.7586607910545;0.649658203125;0.06219482421875;6.34999998396779;636;1 A
82.7686607910292;0.649566650390625;0.062164306640625;6.35999998394254;637;1 A
82.778660791004;0.649627685546875;0.0621337890625;6.3699999839173;638;1 A
82.7886607909787;0.649658203125;0.062103271484375;6.37999998389205;639;1 A
82.7986607909535;0.649658203125;0.062103271484375;6.3899999838668;640;1 A
82.8086607909282;0.649566650390625;0.062042236328125;6.39999998384155;641;1 A
82.818660790903;0.649627685546875;0.062042236328125;6.40999998381631;642;1 A
82.8286607908777;0.64959716796875;0.06201171875;6.41999998379106;643;1 A
82.8386607908525;0.649688720703125;0.06201171875;6.42999998376581;644;1 A
82.8486607908272;0.649566650390625;0.061981201171875;6.43999998374056;645;1 A
82.858660790802;0.64959716796875;0.06195068359375;6.44999998371532;646;1 A
82.8686607907767;0.64959716796875;0.061920166015625;6.45999998369007;647;1 A
82.8786607907515;0.649658203125;0.061920166015625;6.46999998366482;648;1 A
82.8886607907262;0.649627685546875;0.0618896484375;6.47999998363957;649;1 A
82.898660790701;0.649658203125;0.061859130859375;6.48999998361433;650;1 A
82.9086607906758;0.649627685546875;0.06182861328125;6.49999998358908;651;1 A
82.9186607906505;0.64959716796875;0.06182861328125;6.50999998356383;652;1 A
82.9286607906253;0.649627685546875;0.061798095703125;6.51999998353858;653;1 A
82.9386607906;0.649658203125;0.061767578125;6.52999998351333;654;1 A
82.9486607905748;0.64959716796875;0.061737060546875;6.53999998348809;655;1 A
82.9586607905495;0.649566650390625;0.06170654296875;6.54999998346284;656;1 A
82.9686607905243;0.64959716796875;0.06170654296875;6.55999998343759;657;1 A
82.978660790499;0.649627685546875;0.061676025390625;6.56999998341234;658;1 A
82.9886607904738;0.64959716796875;0.0616455078125;6.5799999833871;659;1 A
82.9986607904485;0.649658203125;0.0616455078125;6.58999998336185;660;1 A
83.0086607904233;0.64959716796875;0.06158447265625;6.5999999833366;661;1 A
83.018660790398;0.649627685546875;0.06158447265625;6.60999998331135;662;1 A
83.0286607903728;0.649566650390625;0.061553955078125;6.61999998328611;663;1 A
83.0386607903475;0.649566650390625;0.0615234375;6.62999998326086;664;1 A
83.0486607903223;0.649658203125;0.0615234375;6.63999998323561;665;1 A
83.058660790297;0.649566650390625;0.061492919921875;6.64999998321036;666;1 A
83.0686607902718;0.649566650390625;0.06146240234375;6.65999998318512;667;1 A
83.0786607902465;0.649658203125;0.061431884765625;6.66999998315987;668;1 A
83.0886607902213;0.649627685546875;0.0614013671875;6.67999998313462;669;1 A
83.098660790196;0.649627685546875;0.0614013671875;6.68999998310937;670;1 A
83.1086607901708;0.649658203125;0.061370849609375;6.69999998308413;671;1 A
83.1186607901456;0.649627685546875;0.06134033203125;6.70999998305888;672;1 A
83.1286607901203;0.64959716796875;0.06134033203125;6.71999998303363;673;1 A
83.1386607900951;0.64959716796875;0.061309814453125;6.72999998300838;674;1 A
83.1486607900698;0.649627685546875;0.061279296875;6.73999998298314;675;1 A
83.1586607900446;0.64959716796875;0.061248779296875;6.74999998295789;676;1 A
83.1686607900193;0.649658203125;0.061248779296875;6.75999998293264;677;1 A
83.1786607899941;0.649566650390625;0.06121826171875;6.76999998290739;678;1 A
83.1886607899688;0.649627685546875;0.061187744140625;6.77999998288215;679;1 A
83.1986607899436;0.649627685546875;0.061187744140625;6.7899999828569;680;1 A
83.2086607899183;0.649627685546875;0.0611572265625;6.79999998283165;681;1 A
83.2186607898931;0.649627685546875;0.061126708984375;6.8099999828064;682;1 A
83.2286607898678;0.649627685546875;0.06109619140625;6.81999998278116;683;1 A
83.2386607898426;0.64959716796875;0.061065673828125;6.82999998275591;684;1 A
83.2486607898173;0.649566650390625;0.061065673828125;6.83999998273066;685;1 A
83.2586607897921;0.649566650390625;0.06103515625;6.84999998270541;686;1 A
83.2686607897668;0.649566650390625;0.061004638671875;6.85999998268016;687;1 A
83.2786607897416;0.649627685546875;0.061004638671875;6.86999998265492;688;1 A
83.2886607897163;0.649566650390625;0.06097412109375;6.87999998262967;689;1 A
83.2986607896911;0.649566650390625;0.060943603515625;6.88999998260442;690;1 A
83.3086607896659;0.64959716796875;0.0609130859375;6.89999998257917;691;1 A
83.3186607896406;0.649658203125;0.0609130859375;6.90999998255393;692;1 A
83.3286607896154;0.649566650390625;0.060882568359375;6.91999998252868;693;1 A
83.3386607895901;0.649627685546875;0.06085205078125;6.92999998250343;694;1 A
83.3486607895649;0.649566650390625;0.06085205078125;6.93999998247818;695;1 A
83.3586607895396;0.64959716796875;0.060821533203125;6.94999998245294;696;1 A
83.3686607895144;0.649566650390625;0.060791015625;6.95999998242769;697;1 A
83.3786607894891;0.649627685546875;0.060791015625;6.96999998240244;698;1 A
83.3886607894639;0.649627685546875;0.060760498046875;6.97999998237719;699;1 A
83.3986607894386;0.64959716796875;0.06072998046875;6.98999998235195;700;1 A
83.4086607894134;0.649566650390625;0.060699462890625;6.9999999823267;701;1 A
83.4186607893881;0.649627685546875;0.060699462890625;7.00999998230145;702;1 A
83.4286607893629;0.649627685546875;0.0606689453125;7.0199999822762;703;1 A
83.4386607893376;0.649658203125;0.060638427734375;7.02999998225096;704;1 A
83.4486607893124;0.649627685546875;0.060638427734375;7.03999998222571;705;1 A
83.4586607892871;0.649688720703125;0.06060791015625;7.04999998220046;706;1 A
83.4686607892619;0.64959716796875;0.060577392578125;7.05999998217521;707;1 A
83.4786607892366;0.649627685546875;0.060577392578125;7.06999998214997;708;1 A
83.4886607892114;0.64959716796875;0.060546875;7.07999998212472;709;1 A
83.4986607891861;0.649627685546875;0.060516357421875;7.08999998209947;710;1 A
83.5086607891609;0.6495361328125;0.06048583984375;7.09999998207422;711;1 A
83.5186607891357;0.64959716796875;0.06048583984375;7.10999998204898;712;1 A
83.5286607891104;0.649627685546875;0.060455322265625;7.11999998202373;713;1 A
83.5386607890852;0.649658203125;0.0604248046875;7.12999998199848;714;1 A
83.5486607890599;0.649688720703125;0.0604248046875;7.13999998197323;715;1 A
83.5586607890347;0.649627685546875;0.060394287109375;7.14999998194799;716;1 A
83.5686607890094;0.649566650390625;0.06036376953125;7.15999998192274;717;1 A
83.5786607889842;0.649688720703125;0.060333251953125;7.16999998189749;718;1 A
83.5886607889589;0.649627685546875;0.060333251953125;7.17999998187224;719;1 A
83.5986607889337;0.649627685546875;0.060302734375;7.189999981847;720;1 A
83.6086607889084;0.649627685546875;0.060272216796875;7.19999998182175;721;1 A
83.6186607888832;0.64959716796875;0.060272216796875;7.2099999817965;722;1 A
83.6286607888579;0.649566650390625;0.06024169921875;7.21999998177125;723;1 A
83.6386607888327;0.649658203125;0.060211181640625;7.229999981746;724;1 A
83.6486607888074;0.649627685546875;0.060211181640625;7.23999998172076;725;1 A
83.6586607887822;0.64959716796875;0.0601806640625;7.24999998169551;726;1 A
83.6686607887569;0.649627685546875;0.060150146484375;7.25999998167026;727;1 A
83.6786607887317;0.649566650390625;0.060150146484375;7.26999998164501;728;1 A
83.6886607887064;0.649627685546875;0.06011962890625;7.27999998161977;729;1 A
83.6986607886812;0.64959716796875;0.060089111328125;7.28999998159452;730;1 A
83.7086607886559;0.649627685546875;0.06005859375;7.29999998156927;731;1 A
83.7186607886307;0.649627685546875;0.060028076171875;7.30999998154402;732;1 A
83.7286607886055;0.649658203125;0.060028076171875;7.31999998151878;733;1 A
83.7386607885802;0.649658203125;0.05999755859375;7.32999998149353;734;1 A
83.748660788555;0.649658203125;0.05999755859375;7.33999998146828;735;1 A
83.7586607885297;0.64959716796875;0.059967041015625;7.34999998144303;736;1 A
83.7686607885045;0.649627685546875;0.0599365234375;7.35999998141779;737;1 A
83.7786607884792;0.64959716796875;0.059906005859375;7.36999998139254;738;1 A
83.788660788454;0.64959716796875;0.059906005859375;7.37999998136729;739;1 A
83.7986607884287;0.64959716796875;0.05987548828125;7.38999998134204;740;1 A
83.8086607884035;0.64959716796875;0.059844970703125;7.3999999813168;741;1 A
83.8186607883782;0.649627685546875;0.059814453125;7.40999998129155;742;1 A
83.828660788353;0.649627685546875;0.059814453125;7.4199999812663;743;1 A
83.8386607883277;0.649627685546875;0.059783935546875;7.42999998124105;744;1 A
83.8486607883025;0.649566650390625;0.05975341796875;7.43999998121581;745;1 A
83.8586607882772;0.649627685546875;0.059722900390625;7.44999998119056;746;1 A
83.868660788252;0.64959716796875;0.059722900390625;7.45999998116531;747;1 A
83.8786607882267;0.64959716796875;0.0596923828125;7.46999998114006;748;1 A
83.8886607882015;0.649566650390625;0.059661865234375;7.47999998111482;749;1 A
83.8986607881762;0.649627685546875;0.05963134765625;7.48999998108957;750;1 A
83.908660788151;0.649658203125;0.059600830078125;7.49999998106432;751;1 A
83.9186607881257;0.64959716796875;0.0595703125;7.50999998103907;752;1 A
83.9286607881005;0.64959716796875;0.0595703125;7.51999998101383;753;1 A
83.9386607880753;0.649627685546875;0.059539794921875;7.52999998098858;754;1 A
83.94866078805;0.649627685546875;0.05950927734375;7.53999998096333;755;1 A
83.9586607880248;0.64959716796875;0.059478759765625;7.54999998093808;756;1 A
83.9686607879995;0.649627685546875;0.0594482421875;7.55999998091283;757;1 A
83.9786607879743;0.64959716796875;0.059417724609375;7.56999998088759;758;1 A
83.988660787949;0.649627685546875;0.05938720703125;7.57999998086234;759;1 A
83.9986607879238;0.649658203125;0.05938720703125;7.58999998083709;760;1 A
84.0086607878985;0.649627685546875;0.059326171875;7.59999998081184;761;1 A
84.0186607878733;0.649627685546875;0.059295654296875;7.6099999807866;762;1 A
84.028660787848;0.649627685546875;0.05926513671875;7.61999998076135;763;1 A
84.0386607878228;0.649627685546875;0.059234619140625;7.6299999807361;764;1 A
84.0486607877975;0.649658203125;0.059234619140625;7.63999998071085;765;1 A
84.0586607877723;0.649658203125;0.0592041015625;7.64999998068561;766;1 A
84.068660787747;0.649627685546875;0.059173583984375;7.65999998066036;767;1 A
84.0786607877218;0.649627685546875;0.05914306640625;7.66999998063511;768;1 A
84.0886607876965;0.649627685546875;0.059112548828125;7.67999998060986;769;1 A
84.0986607876713;0.649627685546875;0.05908203125;7.68999998058462;770;1 A
84.108660787646;0.649627685546875;0.05902099609375;7.69999998055937;771;1 A
84.1186607876208;0.649627685546875;0.05902099609375;7.70999998053412;772;1 A
84.1286607875955;0.649627685546875;0.058990478515625;7.71999998050887;773;1 A
84.1386607875703;0.649627685546875;0.0589599609375;7.72999998048363;774;1 A
84.1486607875451;0.649658203125;0.058929443359375;7.73999998045838;775;1 A
84.1586607875198;0.649627685546875;0.05889892578125;7.74999998043313;776;1 A
84.1686607874946;0.649627685546875;0.058868408203125;7.75999998040788;777;1 A
84.1786607874693;0.649627685546875;0.058837890625;7.76999998038264;778;1 A
84.1886607874441;0.64959716796875;0.058807373046875;7.77999998035739;779;1 A
84.1986607874188;0.649627685546875;0.05877685546875;7.78999998033214;780;1 A
84.2086607873936;0.64959716796875;0.058746337890625;7.79999998030689;781;1 A
84.2186607873683;0.649627685546875;0.0587158203125;7.80999998028165;782;1 A
84.2286607873431;0.64959716796875;0.058685302734375;7.8199999802564;783;1 A
84.2386607873178;0.6495361328125;0.05865478515625;7.82999998023115;784;1 A
84.2486607872926;0.649627685546875;0.058624267578125;7.8399999802059;785;1 A
84.2586607872673;0.64959716796875;0.05859375;7.84999998018066;786;1 A
84.2686607872421;0.64959716796875;0.058563232421875;7.85999998015541;787;1 A
84.2786607872168;0.649566650390625;0.05853271484375;7.86999998013016;788;1 A
84.2886607871916;0.649627685546875;0.058502197265625;7.87999998010491;789;1 A
84.2986607871663;0.649566650390625;0.0584716796875;7.88999998007966;790;1 A
84.3086607871411;0.649688720703125;0.058441162109375;7.89999998005442;791;1 A
84.3186607871158;0.649627685546875;0.058441162109375;7.90999998002917;792;1 A
84.3286607870906;0.649627685546875;0.05841064453125;7.91999998000392;793;1 A
84.3386607870654;0.64959716796875;0.058380126953125;7.92999997997867;794;1 A
84.3486607870401;0.649627685546875;0.058349609375;7.93999997995343;795;1 A
84.3586607870149;0.649627685546875;0.058319091796875;7.94999997992818;796;1 A
84.3686607869896;0.649688720703125;0.05828857421875;7.95999997990293;797;1 A
84.3786607869644;0.64959716796875;0.05828857421875;7.96999997987768;798;1 A
84.3886607869391;0.649627685546875;0.058258056640625;7.97999997985244;799;1 A
84.3986607869139;0.64959716796875;0.0582275390625;7.98999997982719;800;1 A
84.4086607868886;0.649627685546875;0.058197021484375;7.99999997980194;801;1 A
84.4186607868634;0.649627685546875;0.05816650390625;8.00999997977669;802;1 A
84.4286607868381;0.649627685546875;0.05816650390625;8.01999997975145;803;1 A
84.4386607868129;0.64959716796875;0.058135986328125;8.0299999797262;804;1 A
84.4486607867876;0.649627685546875;0.05810546875;8.03999997970095;805;1 A
84.4586607867624;0.6495361328125;0.058074951171875;8.0499999796757;806;1 A
84.4686607867371;0.64959716796875;0.058074951171875;8.05999997965046;807;1 A
84.4786607867119;0.649658203125;0.05804443359375;8.06999997962521;808;1 A
84.4886607866866;0.649688720703125;0.058013916015625;8.07999997959996;809;1 A
84.4986607866614;0.649658203125;0.0579833984375;8.08999997957471;810;1 A
84.5086607866361;0.64959716796875;0.057952880859375;8.09999997954947;811;1 A
84.5186607866109;0.64959716796875;0.057952880859375;8.10999997952422;812;1 A
84.5286607865856;0.64959716796875;0.05792236328125;8.11999997949897;813;1 A
84.5386607865604;0.649658203125;0.057891845703125;8.12999997947372;814;1 A
84.5486607865352;0.64959716796875;0.057891845703125;8.13999997944848;815;1 A
84.5586607865099;0.649566650390625;0.057861328125;8.14999997942323;816;1 A
84.5686607864847;0.64959716796875;0.057830810546875;8.15999997939798;817;1 A
84.5786607864594;0.64959716796875;0.05780029296875;8.16999997937273;818;1 A
84.5886607864342;0.649627685546875;0.05780029296875;8.17999997934749;819;1 A
84.5986607864089;0.649627685546875;0.057769775390625;8.18999997932224;820;1 A
84.6086607863837;0.649688720703125;0.0577392578125;8.19999997929699;821;1 A
84.6186607863584;0.649658203125;0.0577392578125;8.20999997927174;822;1 A
84.6286607863332;0.649627685546875;0.057708740234375;8.2199999792465;823;1 A
84.6386607863079;0.649627685546875;0.05767822265625;8.22999997922125;824;1 A
84.6486607862827;0.649627685546875;0.05767822265625;8.239999979196;825;1 A
84.6586607862574;0.64959716796875;0.057647705078125;8.24999997917075;826;1 A
84.6686607862322;0.649658203125;0.0576171875;8.2599999791455;827;1 A
84.6786607862069;0.6495361328125;0.057586669921875;8.26999997912026;828;1 A
84.6886607861817;0.649627685546875;0.057586669921875;8.27999997909501;829;1 A
84.6986607861564;0.649627685546875;0.05755615234375;8.28999997906976;830;1 A
84.7086607861312;0.64959716796875;0.057525634765625;8.29999997904451;831;1 A
84.7186607861059;0.649627685546875;0.0574951171875;8.30999997901927;832;1 A
84.7286607860807;0.6495361328125;0.0574951171875;8.31999997899402;833;1 A
84.7386607860554;0.64959716796875;0.057464599609375;8.32999997896877;834;1 A
84.7486607860302;0.649658203125;0.057464599609375;8.33999997894352;835;1 A
84.758660786005;0.64959716796875;0.05743408203125;8.34999997891828;836;1 A
84.7686607859797;0.649658203125;0.057403564453125;8.35999997889303;837;1 A
84.7786607859545;0.649658203125;0.057373046875;8.36999997886778;838;1 A
84.7886607859292;0.649688720703125;0.057373046875;8.37999997884253;839;1 A
84.798660785904;0.649627685546875;0.057342529296875;8.38999997881729;840;1 A
84.8086607858787;0.64959716796875;0.05731201171875;8.39999997879204;841;1 A
84.8186607858535;0.649627685546875;0.05731201171875;8.40999997876679;842;1 A
84.8286607858282;0.649566650390625;0.057281494140625;8.41999997874154;843;1 A
84.838660785803;0.649627685546875;0.0572509765625;8.4299999787163;844;1 A
84.8486607857777;0.649627685546875;0.0572509765625;8.43999997869105;845;1 A
84.8586607857525;0.649658203125;0.057220458984375;8.4499999786658;846;1 A
84.8686607857272;0.64959716796875;0.05718994140625;8.45999997864055;847;1 A
84.878660785702;0.649627685546875;0.057159423828125;8.46999997861531;848;1 A
84.8886607856767;0.649658203125;0.057159423828125;8.47999997859006;849;1 A
84.8986607856515;0.64959716796875;0.05712890625;8.48999997856481;850;1 A
84.9086607856262;0.649658203125;0.057098388671875;8.49999997853956;851;1 A
84.918660785601;0.649566650390625;0.057098388671875;8.50999997851432;852;1 A
84.9286607855757;0.649627685546875;0.05706787109375;8.51999997848907;853;1 A
84.9386607855505;0.64959716796875;0.057037353515625;8.52999997846382;854;1 A
84.9486607855252;0.649566650390625;0.0570068359375;8.53999997843857;855;1 A
84.9586607855;0.649627685546875;0.056976318359375;8.54999997841333;856;1 A
84.9686607854748;0.649627685546875;0.056976318359375;8.55999997838808;857;1 A
84.9786607854495;0.64959716796875;0.05694580078125;8.56999997836283;858;1 A
84.9886607854243;0.64959716796875;0.056915283203125;8.57999997833758;859;1 A
84.998660785399;0.649658203125;0.056915283203125;8.58999997831233;860;1 A
85.0086607853738;0.64959716796875;0.056884765625;8.59999997828709;861;1 A
85.0186607853485;0.649627685546875;0.056854248046875;8.60999997826184;862;1 A
85.0286607853233;0.64959716796875;0.056854248046875;8.61999997823659;863;1 A
85.038660785298;0.64959716796875;0.05682373046875;8.62999997821134;864;1 A
85.0486607852728;0.64959716796875;0.056793212890625;8.6399999781861;865;1 A
85.0586607852475;0.64959716796875;0.0567626953125;8.64999997816085;866;1 A
85.0686607852223;0.64959716796875;0.0567626953125;8.6599999781356;867;1 A
85.078660785197;0.649658203125;0.056732177734375;8.66999997811035;868;1 A
85.0886607851718;0.64959716796875;0.05670166015625;8.67999997808511;869;1 A
85.0986607851465;0.649627685546875;0.05670166015625;8.68999997805986;870;1 A
85.1086607851213;0.64959716796875;0.056671142578125;8.69999997803461;871;1 A
85.118660785096;0.649627685546875;0.056640625;8.70999997800936;872;1 A
85.1286607850708;0.64959716796875;0.056610107421875;8.71999997798412;873;1 A
85.1386607850455;0.64959716796875;0.05657958984375;8.72999997795887;874;1 A
85.1486607850203;0.649627685546875;0.05657958984375;8.73999997793362;875;1 A
85.158660784995;0.649627685546875;0.056549072265625;8.74999997790837;876;1 A
85.1686607849698;0.649566650390625;0.0565185546875;8.75999997788313;877;1 A
85.1786607849446;0.649627685546875;0.0565185546875;8.76999997785788;878;1 A
85.1886607849193;0.64959716796875;0.056488037109375;8.77999997783263;879;1 A
85.1986607848941;0.649627685546875;0.05645751953125;8.78999997780738;880;1 A
85.2086607848688;0.649658203125;0.056427001953125;8.79999997778214;881;1 A
85.2186607848436;0.649627685546875;0.056427001953125;8.80999997775689;882;1 A
85.2286607848183;0.649627685546875;0.056396484375;8.81999997773164;883;1 A
85.2386607847931;0.649627685546875;0.056365966796875;8.82999997770639;884;1 A
85.2486607847678;0.649627685546875;0.056365966796875;8.83999997768115;885;1 A
85.2586607847426;0.649627685546875;0.05633544921875;8.8499999776559;886;1 A
85.2686607847173;0.649627685546875;0.056304931640625;8.85999997763065;887;1 A
85.2786607846921;0.649566650390625;0.056304931640625;8.8699999776054;888;1 A
85.2886607846668;0.649627685546875;0.0562744140625;8.87999997758016;889;1 A
85.2986607846416;0.649658203125;0.056243896484375;8.88999997755491;890;1 A
85.3086607846163;0.649566650390625;0.05621337890625;8.89999997752966;891;1 A
85.3186607845911;0.649627685546875;0.05621337890625;8.90999997750441;892;1 A
85.3286607845658;0.649658203125;0.056182861328125;8.91999997747916;893;1 A
85.3386607845406;0.649627685546875;0.05615234375;8.92999997745392;894;1 A
85.3486607845153;0.64959716796875;0.05615234375;8.93999997742867;895;1 A
85.3586607844901;0.64959716796875;0.056121826171875;8.94999997740342;896;1 A
85.3686607844649;0.649688720703125;0.05609130859375;8.95999997737817;897;1 A
85.3786607844396;0.649627685546875;0.05609130859375;8.96999997735293;898;1 A
85.3886607844144;0.649627685546875;0.056060791015625;8.97999997732768;899;1 A
85.3986607843891;0.64959716796875;0.0560302734375;8.98999997730243;900;1 A
85.4086607843639;0.649627685546875;0.055999755859375;8.99999997727718;901;1 A
85.4186607843386;0.64959716796875;0.055999755859375;9.00999997725194;902;1 A
85.4286607843134;0.649627685546875;0.05596923828125;9.01999997722669;903;1 A
85.4386607842881;0.64959716796875;0.055938720703125;9.02999997720144;904;1 A
85.4486607842629;0.649627685546875;0.055938720703125;9.03999997717619;905;1 A
85.4586607842376;0.649627685546875;0.055908203125;9.04999997715095;906;1 A
85.4686607842124;0.649627685546875;0.055877685546875;9.0599999771257;907;1 A
85.4786607841871;0.649627685546875;0.055877685546875;9.06999997710045;908;1 A
85.4886607841619;0.64959716796875;0.05584716796875;9.0799999770752;909;1 A
85.4986607841366;0.649627685546875;0.05584716796875;9.08999997704996;910;1 A
85.5086607841114;0.649627685546875;0.055816650390625;9.09999997702471;911;1 A
85.5186607840861;0.64959716796875;0.0557861328125;9.10999997699946;912;1 A
85.5286607840609;0.649688720703125;0.055755615234375;9.11999997697421;913;1 A
85.5386607840356;0.649627685546875;0.055755615234375;9.12999997694897;914;1 A
85.5486607840104;0.649627685546875;0.05572509765625;9.13999997692372;915;1 A
85.5586607839851;0.64959716796875;0.055694580078125;9.14999997689847;916;1 A
85.5686607839599;0.64959716796875;0.055694580078125;9.15999997687322;917;1 A
85.5786607839347;0.649627685546875;0.0556640625;9.16999997684798;918;1 A
85.5886607839094;0.649658203125;0.055633544921875;9.17999997682273;919;1 A
85.5986607838842;0.649627685546875;0.055633544921875;9.18999997679748;920;1 A
85.6086607838589;0.649627685546875;0.05560302734375;9.19999997677223;921;1 A
85.6186607838337;0.64959716796875;0.05560302734375;9.20999997674699;922;1 A
85.6286607838084;0.649627685546875;0.055572509765625;9.21999997672174;923;1 A
85.6386607837832;0.649627685546875;0.0555419921875;9.22999997669649;924;1 A
85.6486607837579;0.649566650390625;0.0555419921875;9.23999997667124;925;1 A
85.6586607837327;0.649627685546875;0.055511474609375;9.249999976646;926;1 A
85.6686607837074;0.64959716796875;0.055511474609375;9.25999997662075;927;1 A
85.6786607836822;0.649688720703125;0.05548095703125;9.2699999765955;928;1 A
85.6886607836569;0.649658203125;0.055450439453125;9.27999997657025;929;1 A
85.6986607836317;0.649627685546875;0.055450439453125;9.289999976545;930;1 A
85.7086607836064;0.649688720703125;0.055419921875;9.29999997651976;931;1 A
85.7186607835812;0.649627685546875;0.055419921875;9.30999997649451;932;1 A
85.7286607835559;0.649688720703125;0.055389404296875;9.31999997646926;933;1 A
85.7386607835307;0.64959716796875;0.055389404296875;9.32999997644401;934;1 A
85.7486607835054;0.649658203125;0.05535888671875;9.33999997641877;935;1 A
85.7586607834802;0.649627685546875;0.055328369140625;9.34999997639352;936;1 A
85.7686607834549;0.64959716796875;0.055328369140625;9.35999997636827;937;1 A
85.7786607834297;0.649566650390625;0.0552978515625;9.36999997634302;938;1 A
85.7886607834045;0.64959716796875;0.0552978515625;9.37999997631778;939;1 A
85.7986607833792;0.649627685546875;0.0552978515625;9.38999997629253;940;1 A
85.808660783354;0.649658203125;0.055267333984375;9.39999997626728;941;1 A
85.8186607833287;0.649566650390625;0.05523681640625;9.40999997624203;942;1 A
85.8286607833035;0.649658203125;0.05523681640625;9.41999997621679;943;1 A
85.8386607832782;0.649658203125;0.055206298828125;9.42999997619154;944;1 A
85.848660783253;0.649627685546875;0.055206298828125;9.43999997616629;945;1 A
85.8586607832277;0.649658203125;0.05517578125;9.44999997614104;946;1 A
85.8686607832025;0.64959716796875;0.05517578125;9.4599999761158;947;1 A
85.8786607831772;0.649627685546875;0.055145263671875;9.46999997609055;948;1 A
85.888660783152;0.64959716796875;0.055145263671875;9.4799999760653;949;1 A
85.8986607831267;0.649627685546875;0.05511474609375;9.48999997604005;950;1 A
85.9086607831015;0.649658203125;0.05511474609375;9.49999997601481;951;1 A
85.9186607830762;0.649688720703125;0.055084228515625;9.50999997598956;952;1 A
85.928660783051;0.649627685546875;0.055084228515625;9.51999997596431;953;1 A
85.9386607830257;0.64959716796875;0.0550537109375;9.52999997593906;954;1 A
85.9486607830005;0.64959716796875;0.0550537109375;9.53999997591382;955;1 A
85.9586607829752;0.649627685546875;0.055023193359375;9.54999997588857;956;1 A
85.96866078295;0.649627685546875;0.055023193359375;9.55999997586332;957;1 A
85.9786607829247;0.649688720703125;0.05499267578125;9.56999997583807;958;1 A
85.9886607828995;0.64959716796875;0.05499267578125;9.57999997581283;959;1 A
85.9986607828743;0.64959716796875;0.054962158203125;9.58999997578758;960;1 A
86.008660782849;0.649627685546875;0.054962158203125;9.59999997576233;961;1 A
86.0186607828238;0.649627685546875;0.054931640625;9.60999997573708;962;1 A
86.0286607827985;0.649627685546875;0.054931640625;9.61999997571183;963;1 A
86.0386607827733;0.64959716796875;0.054901123046875;9.62999997568659;964;1 A
86.048660782748;0.649658203125;0.054901123046875;9.63999997566134;965;1 A
86.0586607827228;0.649627685546875;0.05487060546875;9.64999997563609;966;1 A
86.0686607826975;0.649627685546875;0.05487060546875;9.65999997561084;967;1 A
86.0786607826723;0.649627685546875;0.05487060546875;9.6699999755856;968;1 A
86.088660782647;0.64959716796875;0.054840087890625;9.67999997556035;969;1 A
86.0986607826218;0.649627685546875;0.054840087890625;9.6899999755351;970;1 A
86.1086607825965;0.649627685546875;0.0548095703125;9.69999997550985;971;1 A
86.1186607825713;0.649658203125;0.0548095703125;9.70999997548461;972;1 A
86.128660782546;0.64959716796875;0.0548095703125;9.71999997545936;973;1 A
86.1386607825208;0.64959716796875;0.054779052734375;9.72999997543411;974;1 A
86.1486607824955;0.649627685546875;0.054779052734375;9.73999997540886;975;1 A
86.1586607824703;0.64959716796875;0.05474853515625;9.74999997538362;976;1 A
86.168660782445;0.649658203125;0.05474853515625;9.75999997535837;977;1 A
86.1786607824198;0.64959716796875;0.054718017578125;9.76999997533312;978;1 A
86.1886607823945;0.649627685546875;0.054718017578125;9.77999997530787;979;1 A
86.1986607823693;0.649658203125;0.054718017578125;9.78999997528263;980;1 A
86.2086607823441;0.649627685546875;0.0546875;9.79999997525738;981;1 A
86.2186607823188;0.649658203125;0.0546875;9.80999997523213;982;1 A
86.2286607822936;0.649566650390625;0.054656982421875;9.81999997520688;983;1 A
86.2386607822683;0.64959716796875;0.054656982421875;9.82999997518164;984;1 A
86.2486607822431;0.64959716796875;0.054656982421875;9.83999997515639;985;1 A
86.2586607822178;0.64959716796875;0.05462646484375;9.84999997513114;986;1 A
86.2686607821926;0.64959716796875;0.05462646484375;9.85999997510589;987;1 A
86.2786607821673;0.649627685546875;0.054595947265625;9.86999997508065;988;1 A
86.2886607821421;0.649627685546875;0.054595947265625;9.8799999750554;989;1 A
86.2986607821168;0.649566650390625;0.054595947265625;9.88999997503015;990;1 A
86.3086607820916;0.64959716796875;0.0545654296875;9.8999999750049;991;1 A
86.3186607820663;0.64959716796875;0.0545654296875;9.90999997497966;992;1 A
86.3286607820411;0.64959716796875;0.0545654296875;9.91999997495441;993;1 A
86.3386607820158;0.64959716796875;0.054534912109375;9.92999997492916;994;1 A
86.3486607819906;0.649658203125;0.054534912109375;9.93999997490391;995;1 A
86.3586607819653;0.649627685546875;0.054534912109375;9.94999997487866;996;1 A
86.3686607819401;0.649627685546875;0.05450439453125;9.95999997485342;997;1 A
86.3786607819148;0.649658203125;0.05450439453125;9.96999997482817;998;1 A
86.3886607818896;0.649566650390625;0.054473876953125;9.97999997480292;999;1 A
86.3986607818644;0.64959716796875;0.054473876953125;9.98999997477767;1000;1 A
