Time (s);WE(1).Potential (V);WE(1).Current (A);Corrected time (s);Index;Current range
148.446170625209;0.660125732421875;1.89239501953125;0;1;1 A
148.456170625184;0.700714111328125;1.0675048828125;0.00999999997475243;2;1 A
148.466170625159;0.700042724609375;0.76568603515625;0.0199999999495049;3;1 A
148.476170625134;0.699859619140625;0.62408447265625;0.0299999999242573;4;1 A
148.486170625108;0.699737548828125;0.5474853515625;0.0399999998990097;5;1 A
148.496170625083;0.699676513671875;0.49713134765625;0.0499999998737621;6;1 A
148.506170625058;0.699737548828125;0.460113525390625;0.0599999998485146;7;1 A
148.516170625033;0.69970703125;0.430572509765625;0.069999999823267;8;1 A
148.526170625007;0.699676513671875;0.406402587890625;0.0799999997980194;9;1 A
148.536170624982;0.699676513671875;0.386138916015625;0.0899999997727718;10;1 A
148.546170624957;0.699676513671875;0.36883544921875;0.0999999997475243;11;1 A
148.556170624932;0.69964599609375;0.35382080078125;0.109999999722277;12;1 A
148.566170624906;0.699615478515625;0.340667724609375;0.119999999697029;13;1 A
148.576170624881;0.69964599609375;0.329010009765625;0.129999999671782;14;1 A
148.586170624856;0.69964599609375;0.318603515625;0.139999999646534;15;1 A
148.596170624831;0.69964599609375;0.3092041015625;0.149999999621286;16;1 A
148.606170624805;0.69964599609375;0.30072021484375;0.159999999596039;17;1 A
148.61617062478;0.699676513671875;0.292999267578125;0.169999999570791;18;1 A
148.626170624755;0.699676513671875;0.285888671875;0.179999999545544;19;1 A
148.63617062473;0.69964599609375;0.27935791015625;0.189999999520296;20;1 A
148.646170624704;0.699676513671875;0.2733154296875;0.199999999495049;21;1 A
148.656170624679;0.699737548828125;0.2677001953125;0.209999999469801;22;1 A
148.666170624654;0.69964599609375;0.26251220703125;0.219999999444553;23;1 A
148.676170624629;0.699676513671875;0.25762939453125;0.229999999419306;24;1 A
148.686170624604;0.699615478515625;0.253082275390625;0.239999999394058;25;1 A
148.696170624578;0.699676513671875;0.248809814453125;0.249999999368811;26;1 A
148.706170624553;0.699615478515625;0.2447509765625;0.259999999343563;27;1 A
148.716170624528;0.699676513671875;0.240966796875;0.269999999318316;28;1 A
148.726170624503;0.699615478515625;0.23736572265625;0.279999999293068;29;1 A
148.736170624477;0.6995849609375;0.233978271484375;0.28999999926782;30;1 A
148.746170624452;0.69964599609375;0.230712890625;0.299999999242573;31;1 A
148.756170624427;0.699676513671875;0.227630615234375;0.309999999217325;32;1 A
148.766170624402;0.69964599609375;0.224700927734375;0.319999999192078;33;1 A
148.776170624376;0.699615478515625;0.221893310546875;0.32999999916683;34;1 A
148.786170624351;0.699676513671875;0.219207763671875;0.339999999141583;35;1 A
148.796170624326;0.69964599609375;0.21661376953125;0.349999999116335;36;1 A
148.806170624301;0.699676513671875;0.214141845703125;0.359999999091087;37;1 A
148.816170624275;0.699615478515625;0.211761474609375;0.36999999906584;38;1 A
148.82617062425;0.69964599609375;0.20947265625;0.379999999040592;39;1 A
148.836170624225;0.699676513671875;0.207275390625;0.389999999015345;40;1 A
148.8461706242;0.699615478515625;0.20513916015625;0.399999998990097;41;1 A
148.856170624174;0.699676513671875;0.20306396484375;0.40999999896485;42;1 A
148.866170624149;0.699676513671875;0.201080322265625;0.419999998939602;43;1 A
148.876170624124;0.69964599609375;0.19915771484375;0.429999998914354;44;1 A
148.886170624099;0.699615478515625;0.197265625;0.439999998889107;45;1 A
148.896170624073;0.699676513671875;0.195465087890625;0.449999998863859;46;1 A
148.906170624048;0.69970703125;0.19366455078125;0.459999998838612;47;1 A
148.916170624023;0.69964599609375;0.19195556640625;0.469999998813364;48;1 A
148.926170623998;0.699615478515625;0.190277099609375;0.479999998788116;49;1 A
148.936170623972;0.69964599609375;0.188629150390625;0.489999998762869;50;1 A
148.946170623947;0.699676513671875;0.187042236328125;0.499999998737621;51;1 A
148.956170623922;0.69970703125;0.185455322265625;0.509999998712374;52;1 A
148.966170623897;0.69964599609375;0.1839599609375;0.519999998687126;53;1 A
148.976170623871;0.699676513671875;0.18243408203125;0.529999998661879;54;1 A
148.986170623846;0.699676513671875;0.180999755859375;0.539999998636631;55;1 A
148.996170623821;0.69964599609375;0.1795654296875;0.549999998611383;56;1 A
149.006170623796;0.699676513671875;0.17816162109375;0.559999998586136;57;1 A
149.01617062377;0.699676513671875;0.17681884765625;0.569999998560888;58;1 A
149.026170623745;0.699676513671875;0.175445556640625;0.579999998535641;59;1 A
149.03617062372;0.699676513671875;0.17413330078125;0.589999998510393;60;1 A
149.046170623695;0.699676513671875;0.1728515625;0.599999998485146;61;1 A
149.056170623669;0.699676513671875;0.171600341796875;0.609999998459898;62;1 A
149.066170623644;0.69970703125;0.17034912109375;0.61999999843465;63;1 A
149.076170623619;0.699676513671875;0.16912841796875;0.629999998409403;64;1 A
149.086170623594;0.69964599609375;0.167938232421875;0.639999998384155;65;1 A
149.096170623568;0.699676513671875;0.166748046875;0.649999998358908;66;1 A
149.106170623543;0.699615478515625;0.16558837890625;0.65999999833366;67;1 A
149.116170623518;0.699615478515625;0.164459228515625;0.669999998308413;68;1 A
149.126170623493;0.699615478515625;0.163330078125;0.679999998283165;69;1 A
149.136170623467;0.699554443359375;0.1622314453125;0.689999998257917;70;1 A
149.146170623442;0.69970703125;0.161163330078125;0.69999999823267;71;1 A
149.156170623417;0.69964599609375;0.16009521484375;0.709999998207422;72;1 A
149.166170623392;0.699676513671875;0.1590576171875;0.719999998182175;73;1 A
149.176170623366;0.699676513671875;0.15802001953125;0.729999998156927;74;1 A
149.186170623341;0.69964599609375;0.157012939453125;0.73999999813168;75;1 A
149.196170623316;0.69970703125;0.156005859375;0.749999998106432;76;1 A
149.206170623291;0.69964599609375;0.155029296875;0.759999998081184;77;1 A
149.216170623265;0.69970703125;0.154083251953125;0.769999998055937;78;1 A
149.22617062324;0.699676513671875;0.153106689453125;0.779999998030689;79;1 A
149.236170623215;0.69964599609375;0.152191162109375;0.789999998005442;80;1 A
149.24617062319;0.699676513671875;0.151275634765625;0.799999997980194;81;1 A
149.256170623164;0.69964599609375;0.150360107421875;0.809999997954947;82;1 A
149.266170623139;0.699615478515625;0.14947509765625;0.819999997929699;83;1 A
149.276170623114;0.699615478515625;0.148590087890625;0.829999997904451;84;1 A
149.286170623089;0.699615478515625;0.147735595703125;0.839999997879204;85;1 A
149.296170623063;0.699615478515625;0.146881103515625;0.849999997853956;86;1 A
149.306170623038;0.699676513671875;0.14605712890625;0.859999997828709;87;1 A
149.316170623013;0.69970703125;0.145233154296875;0.869999997803461;88;1 A
149.326170622988;0.69964599609375;0.1444091796875;0.879999997778214;89;1 A
149.336170622962;0.69970703125;0.14361572265625;0.889999997752966;90;1 A
149.346170622937;0.699676513671875;0.142852783203125;0.899999997727718;91;1 A
149.356170622912;0.69970703125;0.142059326171875;0.909999997702471;92;1 A
149.366170622887;0.69964599609375;0.14129638671875;0.919999997677223;93;1 A
149.376170622861;0.699676513671875;0.14056396484375;0.929999997651976;94;1 A
149.386170622836;0.699615478515625;0.13983154296875;0.939999997626728;95;1 A
149.396170622811;0.69964599609375;0.13909912109375;0.949999997601481;96;1 A
149.406170622786;0.699676513671875;0.138397216796875;0.959999997576233;97;1 A
149.41617062276;0.69964599609375;0.1376953125;0.969999997550985;98;1 A
149.426170622735;0.69970703125;0.136993408203125;0.979999997525738;99;1 A
149.43617062271;0.6995849609375;0.13629150390625;0.98999999750049;100;1 A
149.446170622685;0.699676513671875;0.135650634765625;0.999999997475243;101;1 A
149.456170622659;0.69964599609375;0.13494873046875;1.00999999745;102;1 A
149.466170622634;0.699676513671875;0.134307861328125;1.01999999742475;103;1 A
149.476170622609;0.69964599609375;0.1336669921875;1.0299999973995;104;1 A
149.486170622584;0.69964599609375;0.133026123046875;1.03999999737425;105;1 A
149.496170622558;0.69964599609375;0.132415771484375;1.049999997349;106;1 A
149.506170622533;0.699676513671875;0.131805419921875;1.05999999732376;107;1 A
149.516170622508;0.699676513671875;0.131195068359375;1.06999999729851;108;1 A
149.526170622483;0.699676513671875;0.130615234375;1.07999999727326;109;1 A
149.536170622457;0.699676513671875;0.1300048828125;1.08999999724801;110;1 A
149.546170622432;0.6995849609375;0.12945556640625;1.09999999722277;111;1 A
149.556170622407;0.69970703125;0.12884521484375;1.10999999719752;112;1 A
149.566170622382;0.699676513671875;0.1282958984375;1.11999999717227;113;1 A
149.576170622356;0.699676513671875;0.12774658203125;1.12999999714702;114;1 A
149.586170622331;0.69964599609375;0.127197265625;1.13999999712178;115;1 A
149.596170622306;0.69964599609375;0.12664794921875;1.14999999709653;116;1 A
149.606170622281;0.699676513671875;0.126129150390625;1.15999999707128;117;1 A
149.616170622255;0.69964599609375;0.1256103515625;1.16999999704603;118;1 A
149.62617062223;0.69964599609375;0.125091552734375;1.17999999702079;119;1 A
149.636170622205;0.699615478515625;0.12457275390625;1.18999999699554;120;1 A
149.64617062218;0.699676513671875;0.12408447265625;1.19999999697029;121;1 A
149.656170622154;0.699615478515625;0.123565673828125;1.20999999694504;122;1 A
149.666170622129;0.699676513671875;0.12310791015625;1.2199999969198;123;1 A
149.676170622104;0.69964599609375;0.122589111328125;1.22999999689455;124;1 A
149.686170622079;0.699615478515625;0.12213134765625;1.2399999968693;125;1 A
149.696170622054;0.699615478515625;0.121673583984375;1.24999999684405;126;1 A
149.706170622028;0.69964599609375;0.121185302734375;1.25999999681881;127;1 A
149.716170622003;0.69964599609375;0.1207275390625;1.26999999679356;128;1 A
149.726170621978;0.69964599609375;0.120269775390625;1.27999999676831;129;1 A
149.736170621953;0.699615478515625;0.119842529296875;1.28999999674306;130;1 A
149.746170621927;0.699676513671875;0.119384765625;1.29999999671782;131;1 A
149.756170621902;0.699615478515625;0.11895751953125;1.30999999669257;132;1 A
149.766170621877;0.699737548828125;0.1185302734375;1.31999999666732;133;1 A
149.776170621852;0.69964599609375;0.11810302734375;1.32999999664207;134;1 A
149.786170621826;0.699676513671875;0.117706298828125;1.33999999661683;135;1 A
149.796170621801;0.69964599609375;0.117279052734375;1.34999999659158;136;1 A
149.806170621776;0.699676513671875;0.11688232421875;1.35999999656633;137;1 A
149.816170621751;0.699676513671875;0.116485595703125;1.36999999654108;138;1 A
149.826170621725;0.6995849609375;0.1160888671875;1.37999999651583;139;1 A
149.8361706217;0.69964599609375;0.115692138671875;1.38999999649059;140;1 A
149.846170621675;0.69964599609375;0.115325927734375;1.39999999646534;141;1 A
149.85617062165;0.69964599609375;0.11492919921875;1.40999999644009;142;1 A
149.866170621624;0.69964599609375;0.11456298828125;1.41999999641484;143;1 A
149.876170621599;0.69964599609375;0.114166259765625;1.4299999963896;144;1 A
149.886170621574;0.699676513671875;0.113800048828125;1.43999999636435;145;1 A
149.896170621549;0.699615478515625;0.113433837890625;1.4499999963391;146;1 A
149.906170621523;0.69964599609375;0.113067626953125;1.45999999631385;147;1 A
149.916170621498;0.69964599609375;0.11273193359375;1.46999999628861;148;1 A
149.926170621473;0.69970703125;0.112396240234375;1.47999999626336;149;1 A
149.936170621448;0.699676513671875;0.112030029296875;1.48999999623811;150;1 A
149.946170621422;0.699676513671875;0.1116943359375;1.49999999621286;151;1 A
149.956170621397;0.69964599609375;0.111358642578125;1.50999999618762;152;1 A
149.966170621372;0.69964599609375;0.11102294921875;1.51999999616237;153;1 A
149.976170621347;0.699615478515625;0.110687255859375;1.52999999613712;154;1 A
149.986170621321;0.69964599609375;0.1103515625;1.53999999611187;155;1 A
149.996170621296;0.69964599609375;0.11004638671875;1.54999999608663;156;1 A
150.006170621271;0.69964599609375;0.109710693359375;1.55999999606138;157;1 A
150.016170621246;0.699676513671875;0.109405517578125;1.56999999603613;158;1 A
150.02617062122;0.699615478515625;0.109100341796875;1.57999999601088;159;1 A
150.036170621195;0.699615478515625;0.108795166015625;1.58999999598564;160;1 A
150.04617062117;0.69964599609375;0.108489990234375;1.59999999596039;161;1 A
150.056170621145;0.69964599609375;0.108184814453125;1.60999999593514;162;1 A
150.066170621119;0.6995849609375;0.107879638671875;1.61999999590989;163;1 A
150.076170621094;0.699676513671875;0.10760498046875;1.62999999588465;164;1 A
150.086170621069;0.69964599609375;0.1072998046875;1.6399999958594;165;1 A
150.096170621044;0.69964599609375;0.107025146484375;1.64999999583415;166;1 A
150.106170621018;0.699615478515625;0.106719970703125;1.6599999958089;167;1 A
150.116170620993;0.69970703125;0.1064453125;1.66999999578366;168;1 A
150.126170620968;0.69964599609375;0.106170654296875;1.67999999575841;169;1 A
150.136170620943;0.69964599609375;0.10589599609375;1.68999999573316;170;1 A
150.146170620917;0.699615478515625;0.105621337890625;1.69999999570791;171;1 A
150.156170620892;0.69964599609375;0.1053466796875;1.70999999568267;172;1 A
150.166170620867;0.699615478515625;0.105072021484375;1.71999999565742;173;1 A
150.176170620842;0.69970703125;0.10479736328125;1.72999999563217;174;1 A
150.186170620816;0.69964599609375;0.104522705078125;1.73999999560692;175;1 A
150.196170620791;0.69964599609375;0.104278564453125;1.74999999558167;176;1 A
150.206170620766;0.699676513671875;0.10400390625;1.75999999555643;177;1 A
150.216170620741;0.699676513671875;0.103759765625;1.76999999553118;178;1 A
150.226170620715;0.69964599609375;0.103515625;1.77999999550593;179;1 A
150.23617062069;0.69964599609375;0.103271484375;1.78999999548068;180;1 A
150.246170620665;0.69970703125;0.10302734375;1.79999999545544;181;1 A
150.25617062064;0.69970703125;0.102752685546875;1.80999999543019;182;1 A
150.266170620614;0.699676513671875;0.1025390625;1.81999999540494;183;1 A
150.276170620589;0.69964599609375;0.102294921875;1.82999999537969;184;1 A
150.286170620564;0.69964599609375;0.10205078125;1.83999999535445;185;1 A
150.296170620539;0.699676513671875;0.101806640625;1.8499999953292;186;1 A
150.306170620513;0.699615478515625;0.1015625;1.85999999530395;187;1 A
150.316170620488;0.699615478515625;0.101348876953125;1.8699999952787;188;1 A
150.326170620463;0.699676513671875;0.10113525390625;1.87999999525346;189;1 A
150.336170620438;0.69964599609375;0.10089111328125;1.88999999522821;190;1 A
150.346170620412;0.699615478515625;0.100677490234375;1.89999999520296;191;1 A
150.356170620387;0.699615478515625;0.1004638671875;1.90999999517771;192;1 A
150.366170620362;0.699676513671875;0.1002197265625;1.91999999515247;193;1 A
150.376170620337;0.699737548828125;0.10003662109375;1.92999999512722;194;1 A
150.386170620311;0.699676513671875;0.09979248046875;1.93999999510197;195;1 A
150.396170620286;0.699676513671875;0.099578857421875;1.94999999507672;196;1 A
150.406170620261;0.699676513671875;0.099365234375;1.95999999505148;197;1 A
150.416170620236;0.699676513671875;0.099151611328125;1.96999999502623;198;1 A
150.42617062021;0.699615478515625;0.09893798828125;1.97999999500098;199;1 A
150.436170620185;0.69964599609375;0.0987548828125;1.98999999497573;200;1 A
150.44617062016;0.699676513671875;0.098541259765625;1.99999999495049;201;1 A
150.456170620135;0.699676513671875;0.09832763671875;2.00999999492524;202;1 A
150.466170620109;0.699737548828125;0.09814453125;2.01999999489999;203;1 A
150.476170620084;0.699676513671875;0.097930908203125;2.02999999487474;204;1 A
150.486170620059;0.699676513671875;0.097747802734375;2.0399999948495;205;1 A
150.496170620034;0.69964599609375;0.0975341796875;2.04999999482425;206;1 A
150.506170620008;0.69970703125;0.09735107421875;2.059999994799;207;1 A
150.516170619983;0.69964599609375;0.097137451171875;2.06999999477375;208;1 A
150.526170619958;0.69964599609375;0.096954345703125;2.0799999947485;209;1 A
150.536170619933;0.69964599609375;0.096771240234375;2.08999999472326;210;1 A
150.546170619907;0.69970703125;0.096588134765625;2.09999999469801;211;1 A
150.556170619882;0.699676513671875;0.09637451171875;2.10999999467276;212;1 A
150.566170619857;0.699676513671875;0.096221923828125;2.11999999464751;213;1 A
150.576170619832;0.69964599609375;0.096038818359375;2.12999999462227;214;1 A
150.586170619806;0.6995849609375;0.095855712890625;2.13999999459702;215;1 A
150.596170619781;0.699676513671875;0.095672607421875;2.14999999457177;216;1 A
150.606170619756;0.699615478515625;0.095489501953125;2.15999999454652;217;1 A
150.616170619731;0.699676513671875;0.095306396484375;2.16999999452128;218;1 A
150.626170619705;0.699615478515625;0.095123291015625;2.17999999449603;219;1 A
150.63617061968;0.699676513671875;0.094940185546875;2.18999999447078;220;1 A
150.646170619655;0.699737548828125;0.09478759765625;2.19999999444553;221;1 A
150.65617061963;0.69970703125;0.0946044921875;2.20999999442029;222;1 A
150.666170619604;0.69964599609375;0.094451904296875;2.21999999439504;223;1 A
150.676170619579;0.699615478515625;0.094268798828125;2.22999999436979;224;1 A
150.686170619554;0.69964599609375;0.094085693359375;2.23999999434454;225;1 A
150.696170619529;0.699676513671875;0.09393310546875;2.2499999943193;226;1 A
150.706170619503;0.69964599609375;0.09375;2.25999999429405;227;1 A
150.716170619478;0.699615478515625;0.093597412109375;2.2699999942688;228;1 A
150.726170619453;0.69976806640625;0.09344482421875;2.27999999424355;229;1 A
150.736170619428;0.699615478515625;0.09326171875;2.28999999421831;230;1 A
150.746170619403;0.69964599609375;0.093109130859375;2.29999999419306;231;1 A
150.756170619377;0.699615478515625;0.09295654296875;2.30999999416781;232;1 A
150.766170619352;0.69970703125;0.092803955078125;2.31999999414256;233;1 A
150.776170619327;0.699737548828125;0.092620849609375;2.32999999411732;234;1 A
150.786170619302;0.69964599609375;0.09246826171875;2.33999999409207;235;1 A
150.796170619276;0.69964599609375;0.092315673828125;2.34999999406682;236;1 A
150.806170619251;0.699737548828125;0.0921630859375;2.35999999404157;237;1 A
150.816170619226;0.699615478515625;0.092010498046875;2.36999999401633;238;1 A
150.826170619201;0.69970703125;0.09185791015625;2.37999999399108;239;1 A
150.836170619175;0.69964599609375;0.091705322265625;2.38999999396583;240;1 A
150.84617061915;0.69964599609375;0.091552734375;2.39999999394058;241;1 A
150.856170619125;0.69964599609375;0.091400146484375;2.40999999391533;242;1 A
150.8661706191;0.699676513671875;0.091278076171875;2.41999999389009;243;1 A
150.876170619074;0.699676513671875;0.09112548828125;2.42999999386484;244;1 A
150.886170619049;0.69970703125;0.090972900390625;2.43999999383959;245;1 A
150.896170619024;0.69964599609375;0.0908203125;2.44999999381434;246;1 A
150.906170618999;0.69964599609375;0.0906982421875;2.4599999937891;247;1 A
150.916170618973;0.699615478515625;0.090545654296875;2.46999999376385;248;1 A
150.926170618948;0.699676513671875;0.09039306640625;2.4799999937386;249;1 A
150.936170618923;0.69964599609375;0.09027099609375;2.48999999371335;250;1 A
150.946170618898;0.699676513671875;0.090118408203125;2.49999999368811;251;1 A
150.956170618872;0.69964599609375;0.089996337890625;2.50999999366286;252;1 A
150.966170618847;0.69964599609375;0.08984375;2.51999999363761;253;1 A
150.976170618822;0.69964599609375;0.089691162109375;2.52999999361236;254;1 A
150.986170618797;0.699615478515625;0.089569091796875;2.53999999358712;255;1 A
150.996170618771;0.699676513671875;0.089447021484375;2.54999999356187;256;1 A
151.006170618746;0.69964599609375;0.08929443359375;2.55999999353662;257;1 A
151.016170618721;0.699615478515625;0.08917236328125;2.56999999351137;258;1 A
151.026170618696;0.699676513671875;0.08905029296875;2.57999999348613;259;1 A
151.03617061867;0.69964599609375;0.088897705078125;2.58999999346088;260;1 A
151.046170618645;0.69964599609375;0.088775634765625;2.59999999343563;261;1 A
151.05617061862;0.69964599609375;0.088653564453125;2.60999999341038;262;1 A
151.066170618595;0.699676513671875;0.088531494140625;2.61999999338514;263;1 A
151.076170618569;0.69970703125;0.08837890625;2.62999999335989;264;1 A
151.086170618544;0.699676513671875;0.0882568359375;2.63999999333464;265;1 A
151.096170618519;0.69964599609375;0.088134765625;2.64999999330939;266;1 A
151.106170618494;0.699737548828125;0.0880126953125;2.65999999328415;267;1 A
151.116170618468;0.69964599609375;0.087890625;2.6699999932589;268;1 A
151.126170618443;0.699676513671875;0.0877685546875;2.67999999323365;269;1 A
151.136170618418;0.69964599609375;0.087646484375;2.6899999932084;270;1 A
151.146170618393;0.699615478515625;0.0875244140625;2.69999999318316;271;1 A
151.156170618367;0.69970703125;0.08740234375;2.70999999315791;272;1 A
151.166170618342;0.699676513671875;0.0872802734375;2.71999999313266;273;1 A
151.176170618317;0.69964599609375;0.087158203125;2.72999999310741;274;1 A
151.186170618292;0.699676513671875;0.0870361328125;2.73999999308217;275;1 A
151.196170618266;0.69970703125;0.0869140625;2.74999999305692;276;1 A
151.206170618241;0.699676513671875;0.0867919921875;2.75999999303167;277;1 A
151.216170618216;0.6995849609375;0.086669921875;2.76999999300642;278;1 A
151.226170618191;0.69964599609375;0.086578369140625;2.77999999298117;279;1 A
151.236170618165;0.699676513671875;0.086456298828125;2.78999999295593;280;1 A
151.24617061814;0.699737548828125;0.086334228515625;2.79999999293068;281;1 A
151.256170618115;0.69970703125;0.086212158203125;2.80999999290543;282;1 A
151.26617061809;0.699676513671875;0.086090087890625;2.81999999288018;283;1 A
151.276170618064;0.699615478515625;0.085968017578125;2.82999999285494;284;1 A
151.286170618039;0.699676513671875;0.08587646484375;2.83999999282969;285;1 A
151.296170618014;0.699676513671875;0.08575439453125;2.84999999280444;286;1 A
151.306170617989;0.699615478515625;0.08563232421875;2.85999999277919;287;1 A
151.316170617963;0.69964599609375;0.085540771484375;2.86999999275395;288;1 A
151.326170617938;0.69964599609375;0.08544921875;2.8799999927287;289;1 A
151.336170617913;0.699676513671875;0.0853271484375;2.88999999270345;290;1 A
151.346170617888;0.699737548828125;0.085205078125;2.8999999926782;291;1 A
151.356170617862;0.699676513671875;0.0850830078125;2.90999999265296;292;1 A
151.366170617837;0.699676513671875;0.084991455078125;2.91999999262771;293;1 A
151.376170617812;0.699737548828125;0.084869384765625;2.92999999260246;294;1 A
151.386170617787;0.699676513671875;0.08477783203125;2.93999999257721;295;1 A
151.396170617761;0.69964599609375;0.08465576171875;2.94999999255197;296;1 A
151.406170617736;0.699676513671875;0.084564208984375;2.95999999252672;297;1 A
151.416170617711;0.699615478515625;0.084442138671875;2.96999999250147;298;1 A
151.426170617686;0.69964599609375;0.0843505859375;2.97999999247622;299;1 A
151.43617061766;0.69970703125;0.084228515625;2.98999999245098;300;1 A
151.446170617635;0.69970703125;0.084136962890625;2.99999999242573;301;1 A
151.45617061761;0.699676513671875;0.08404541015625;3.00999999240048;302;1 A
151.466170617585;0.699676513671875;0.08392333984375;3.01999999237523;303;1 A
151.476170617559;0.69964599609375;0.083831787109375;3.02999999234999;304;1 A
151.486170617534;0.69964599609375;0.083709716796875;3.03999999232474;305;1 A
151.496170617509;0.699676513671875;0.0836181640625;3.04999999229949;306;1 A
151.506170617484;0.69964599609375;0.083526611328125;3.05999999227424;307;1 A
151.516170617458;0.6995849609375;0.08343505859375;3.069999992249;308;1 A
151.526170617433;0.699676513671875;0.08331298828125;3.07999999222375;309;1 A
151.536170617408;0.699676513671875;0.083221435546875;3.0899999921985;310;1 A
151.546170617383;0.69970703125;0.0831298828125;3.09999999217325;311;1 A
151.556170617357;0.699676513671875;0.083038330078125;3.109999992148;312;1 A
151.566170617332;0.6995849609375;0.082916259765625;3.11999999212276;313;1 A
151.576170617307;0.69964599609375;0.08282470703125;3.12999999209751;314;1 A
151.586170617282;0.69964599609375;0.082733154296875;3.13999999207226;315;1 A
151.596170617256;0.699676513671875;0.0826416015625;3.14999999204701;316;1 A
151.606170617231;0.69964599609375;0.082550048828125;3.15999999202177;317;1 A
151.616170617206;0.69970703125;0.08245849609375;3.16999999199652;318;1 A
151.626170617181;0.69964599609375;0.082366943359375;3.17999999197127;319;1 A
151.636170617155;0.69964599609375;0.082244873046875;3.18999999194602;320;1 A
151.64617061713;0.699615478515625;0.0821533203125;3.19999999192078;321;1 A
151.656170617105;0.69964599609375;0.082061767578125;3.20999999189553;322;1 A
151.66617061708;0.699676513671875;0.08197021484375;3.21999999187028;323;1 A
151.676170617054;0.69964599609375;0.081878662109375;3.22999999184503;324;1 A
151.686170617029;0.699676513671875;0.081787109375;3.23999999181979;325;1 A
151.696170617004;0.699615478515625;0.081695556640625;3.24999999179454;326;1 A
151.706170616979;0.699676513671875;0.08160400390625;3.25999999176929;327;1 A
151.716170616953;0.69964599609375;0.081512451171875;3.26999999174404;328;1 A
151.726170616928;0.699676513671875;0.0814208984375;3.2799999917188;329;1 A
151.736170616903;0.69970703125;0.081329345703125;3.28999999169355;330;1 A
151.746170616878;0.69964599609375;0.08123779296875;3.2999999916683;331;1 A
151.756170616853;0.699615478515625;0.081146240234375;3.30999999164305;332;1 A
151.766170616827;0.69970703125;0.0810546875;3.31999999161781;333;1 A
151.776170616802;0.699676513671875;0.080963134765625;3.32999999159256;334;1 A
151.786170616777;0.699676513671875;0.08087158203125;3.33999999156731;335;1 A
151.796170616752;0.69964599609375;0.080780029296875;3.34999999154206;336;1 A
151.806170616726;0.69964599609375;0.0806884765625;3.35999999151682;337;1 A
151.816170616701;0.699615478515625;0.080596923828125;3.36999999149157;338;1 A
151.826170616676;0.699676513671875;0.08050537109375;3.37999999146632;339;1 A
151.836170616651;0.69964599609375;0.0804443359375;3.38999999144107;340;1 A
151.846170616625;0.69964599609375;0.080352783203125;3.39999999141583;341;1 A
151.8561706166;0.69964599609375;0.08026123046875;3.40999999139058;342;1 A
151.866170616575;0.699676513671875;0.080169677734375;3.41999999136533;343;1 A
151.87617061655;0.69964599609375;0.080078125;3.42999999134008;344;1 A
151.886170616524;0.6995849609375;0.079986572265625;3.43999999131483;345;1 A
151.896170616499;0.699676513671875;0.079925537109375;3.44999999128959;346;1 A
151.906170616474;0.699615478515625;0.079833984375;3.45999999126434;347;1 A
151.916170616449;0.699676513671875;0.079742431640625;3.46999999123909;348;1 A
151.926170616423;0.69964599609375;0.079681396484375;3.47999999121384;349;1 A
151.936170616398;0.6995849609375;0.07958984375;3.4899999911886;350;1 A
151.946170616373;0.69964599609375;0.079498291015625;3.49999999116335;351;1 A
151.956170616348;0.699676513671875;0.07940673828125;3.5099999911381;352;1 A
151.966170616322;0.69970703125;0.079345703125;3.51999999111285;353;1 A
151.976170616297;0.699676513671875;0.079254150390625;3.52999999108761;354;1 A
151.986170616272;0.699676513671875;0.079193115234375;3.53999999106236;355;1 A
151.996170616247;0.699676513671875;0.0791015625;3.54999999103711;356;1 A
152.006170616221;0.699676513671875;0.079010009765625;3.55999999101186;357;1 A
152.016170616196;0.699676513671875;0.078948974609375;3.56999999098662;358;1 A
152.026170616171;0.69970703125;0.078857421875;3.57999999096137;359;1 A
152.036170616146;0.69964599609375;0.07879638671875;3.58999999093612;360;1 A
152.04617061612;0.699676513671875;0.078704833984375;3.59999999091087;361;1 A
152.056170616095;0.699615478515625;0.078643798828125;3.60999999088563;362;1 A
152.06617061607;0.699676513671875;0.07855224609375;3.61999999086038;363;1 A
152.076170616045;0.69970703125;0.0784912109375;3.62999999083513;364;1 A
152.086170616019;0.69964599609375;0.078399658203125;3.63999999080988;365;1 A
152.096170615994;0.69964599609375;0.078338623046875;3.64999999078464;366;1 A
152.106170615969;0.699676513671875;0.0782470703125;3.65999999075939;367;1 A
152.116170615944;0.69964599609375;0.07818603515625;3.66999999073414;368;1 A
152.126170615918;0.699676513671875;0.078125;3.67999999070889;369;1 A
152.136170615893;0.69964599609375;0.078033447265625;3.68999999068365;370;1 A
152.146170615868;0.69964599609375;0.077972412109375;3.6999999906584;371;1 A
152.156170615843;0.69964599609375;0.077911376953125;3.70999999063315;372;1 A
152.166170615817;0.69970703125;0.07781982421875;3.7199999906079;373;1 A
152.176170615792;0.69964599609375;0.0777587890625;3.72999999058266;374;1 A
152.186170615767;0.699676513671875;0.07769775390625;3.73999999055741;375;1 A
152.196170615742;0.699615478515625;0.077606201171875;3.74999999053216;376;1 A
152.206170615716;0.69964599609375;0.077545166015625;3.75999999050691;377;1 A
152.216170615691;0.699676513671875;0.077484130859375;3.76999999048167;378;1 A
152.226170615666;0.699676513671875;0.077392578125;3.77999999045642;379;1 A
152.236170615641;0.699615478515625;0.07733154296875;3.78999999043117;380;1 A
152.246170615615;0.699676513671875;0.0772705078125;3.79999999040592;381;1 A
152.25617061559;0.699615478515625;0.077178955078125;3.80999999038067;382;1 A
152.266170615565;0.699676513671875;0.077117919921875;3.81999999035543;383;1 A
152.27617061554;0.699676513671875;0.077056884765625;3.82999999033018;384;1 A
152.286170615514;0.69970703125;0.076995849609375;3.83999999030493;385;1 A
152.296170615489;0.699676513671875;0.076934814453125;3.84999999027968;386;1 A
152.306170615464;0.69964599609375;0.07684326171875;3.85999999025444;387;1 A
152.316170615439;0.699615478515625;0.0767822265625;3.86999999022919;388;1 A
152.326170615413;0.69970703125;0.07672119140625;3.87999999020394;389;1 A
152.336170615388;0.699676513671875;0.07666015625;3.88999999017869;390;1 A
152.346170615363;0.69964599609375;0.07659912109375;3.89999999015345;391;1 A
152.356170615338;0.699737548828125;0.076507568359375;3.9099999901282;392;1 A
152.366170615312;0.699676513671875;0.076446533203125;3.91999999010295;393;1 A
152.376170615287;0.69964599609375;0.076385498046875;3.9299999900777;394;1 A
152.386170615262;0.699615478515625;0.076324462890625;3.93999999005246;395;1 A
152.396170615237;0.699676513671875;0.076263427734375;3.94999999002721;396;1 A
152.406170615211;0.699615478515625;0.076202392578125;3.95999999000196;397;1 A
152.416170615186;0.699676513671875;0.07611083984375;3.96999998997671;398;1 A
152.426170615161;0.69970703125;0.0760498046875;3.97999998995147;399;1 A
152.436170615136;0.69964599609375;0.07598876953125;3.98999998992622;400;1 A
152.44617061511;0.69964599609375;0.075927734375;3.99999998990097;401;1 A
152.456170615085;0.6995849609375;0.07586669921875;4.00999998987572;402;1 A
152.46617061506;0.699615478515625;0.0758056640625;4.01999998985048;403;1 A
152.476170615035;0.699676513671875;0.07574462890625;4.02999998982523;404;1 A
152.486170615009;0.699615478515625;0.07568359375;4.03999998979998;405;1 A
152.496170614984;0.699676513671875;0.07562255859375;4.04999998977473;406;1 A
152.506170614959;0.69964599609375;0.0755615234375;4.05999998974949;407;1 A
152.516170614934;0.69970703125;0.07550048828125;4.06999998972424;408;1 A
152.526170614908;0.69964599609375;0.075439453125;4.07999998969899;409;1 A
152.536170614883;0.699676513671875;0.07537841796875;4.08999998967374;410;1 A
152.546170614858;0.69964599609375;0.0753173828125;4.0999999896485;411;1 A
152.556170614833;0.69964599609375;0.07525634765625;4.10999998962325;412;1 A
152.566170614807;0.699676513671875;0.0751953125;4.119999989598;413;1 A
152.576170614782;0.699615478515625;0.07513427734375;4.12999998957275;414;1 A
152.586170614757;0.69964599609375;0.0750732421875;4.1399999895475;415;1 A
152.596170614732;0.69964599609375;0.07501220703125;4.14999998952226;416;1 A
152.606170614706;0.69964599609375;0.074981689453125;4.15999998949701;417;1 A
152.616170614681;0.69964599609375;0.074920654296875;4.16999998947176;418;1 A
152.626170614656;0.69964599609375;0.074859619140625;4.17999998944651;419;1 A
152.636170614631;0.699676513671875;0.074798583984375;4.18999998942127;420;1 A
152.646170614605;0.699676513671875;0.074737548828125;4.19999998939602;421;1 A
152.65617061458;0.69970703125;0.074676513671875;4.20999998937077;422;1 A
152.666170614555;0.699676513671875;0.074615478515625;4.21999998934552;423;1 A
152.67617061453;0.699615478515625;0.074554443359375;4.22999998932028;424;1 A
152.686170614504;0.699676513671875;0.07452392578125;4.23999998929503;425;1 A
152.696170614479;0.699615478515625;0.074462890625;4.24999998926978;426;1 A
152.706170614454;0.69970703125;0.07440185546875;4.25999998924453;427;1 A
152.716170614429;0.699676513671875;0.0743408203125;4.26999998921929;428;1 A
152.726170614403;0.69970703125;0.07427978515625;4.27999998919404;429;1 A
152.736170614378;0.69964599609375;0.07421875;4.28999998916879;430;1 A
152.746170614353;0.699676513671875;0.074188232421875;4.29999998914354;431;1 A
152.756170614328;0.69970703125;0.074127197265625;4.3099999891183;432;1 A
152.766170614302;0.69964599609375;0.074066162109375;4.31999998909305;433;1 A
152.776170614277;0.69964599609375;0.074005126953125;4.3299999890678;434;1 A
152.786170614252;0.699737548828125;0.073944091796875;4.33999998904255;435;1 A
152.796170614227;0.6995849609375;0.07391357421875;4.34999998901731;436;1 A
152.806170614202;0.699615478515625;0.0738525390625;4.35999998899206;437;1 A
152.816170614176;0.699676513671875;0.07379150390625;4.36999998896681;438;1 A
152.826170614151;0.699615478515625;0.073760986328125;4.37999998894156;439;1 A
152.836170614126;0.699676513671875;0.073699951171875;4.38999998891632;440;1 A
152.846170614101;0.69970703125;0.073638916015625;4.39999998889107;441;1 A
152.856170614075;0.699615478515625;0.073577880859375;4.40999998886582;442;1 A
152.86617061405;0.699676513671875;0.07354736328125;4.41999998884057;443;1 A
152.876170614025;0.69964599609375;0.073486328125;4.42999998881533;444;1 A
152.886170614;0.69964599609375;0.07342529296875;4.43999998879008;445;1 A
152.896170613974;0.699676513671875;0.073394775390625;4.44999998876483;446;1 A
152.906170613949;0.699676513671875;0.073333740234375;4.45999998873958;447;1 A
152.916170613924;0.69970703125;0.073272705078125;4.46999998871433;448;1 A
152.926170613899;0.69964599609375;0.0732421875;4.47999998868909;449;1 A
152.936170613873;0.699676513671875;0.07318115234375;4.48999998866384;450;1 A
152.946170613848;0.69964599609375;0.0731201171875;4.49999998863859;451;1 A
152.956170613823;0.699615478515625;0.07305908203125;4.50999998861334;452;1 A
152.966170613798;0.699676513671875;0.073028564453125;4.5199999885881;453;1 A
152.976170613772;0.69964599609375;0.072967529296875;4.52999998856285;454;1 A
152.986170613747;0.699676513671875;0.072906494140625;4.5399999885376;455;1 A
152.996170613722;0.69970703125;0.0728759765625;4.54999998851235;456;1 A
153.006170613697;0.69964599609375;0.07281494140625;4.55999998848711;457;1 A
153.016170613671;0.69970703125;0.072784423828125;4.56999998846186;458;1 A
153.026170613646;0.69964599609375;0.072723388671875;4.57999998843661;459;1 A
153.036170613621;0.699676513671875;0.072662353515625;4.58999998841136;460;1 A
153.046170613596;0.699676513671875;0.0726318359375;4.59999998838612;461;1 A
153.05617061357;0.69970703125;0.07257080078125;4.60999998836087;462;1 A
153.066170613545;0.699676513671875;0.072540283203125;4.61999998833562;463;1 A
153.07617061352;0.69964599609375;0.072479248046875;4.62999998831037;464;1 A
153.086170613495;0.699676513671875;0.072418212890625;4.63999998828513;465;1 A
153.096170613469;0.699676513671875;0.0723876953125;4.64999998825988;466;1 A
153.106170613444;0.699676513671875;0.07232666015625;4.65999998823463;467;1 A
153.116170613419;0.69970703125;0.072296142578125;4.66999998820938;468;1 A
153.126170613394;0.699615478515625;0.072235107421875;4.67999998818414;469;1 A
153.136170613368;0.69970703125;0.072174072265625;4.68999998815889;470;1 A
153.146170613343;0.699615478515625;0.0721435546875;4.69999998813364;471;1 A
153.156170613318;0.69970703125;0.07208251953125;4.70999998810839;472;1 A
153.166170613293;0.699676513671875;0.072052001953125;4.71999998808315;473;1 A
153.176170613267;0.699676513671875;0.071990966796875;4.7299999880579;474;1 A
153.186170613242;0.69964599609375;0.07196044921875;4.73999998803265;475;1 A
153.196170613217;0.699615478515625;0.0718994140625;4.7499999880074;476;1 A
153.206170613192;0.699676513671875;0.07183837890625;4.75999998798216;477;1 A
153.216170613166;0.699676513671875;0.071807861328125;4.76999998795691;478;1 A
153.226170613141;0.699615478515625;0.07177734375;4.77999998793166;479;1 A
153.236170613116;0.699615478515625;0.07171630859375;4.78999998790641;480;1 A
153.246170613091;0.699676513671875;0.071685791015625;4.79999998788116;481;1 A
153.256170613065;0.699676513671875;0.071624755859375;4.80999998785592;482;1 A
153.26617061304;0.699676513671875;0.071563720703125;4.81999998783067;483;1 A
153.276170613015;0.699676513671875;0.071533203125;4.82999998780542;484;1 A
153.28617061299;0.699737548828125;0.07147216796875;4.83999998778017;485;1 A
153.296170612964;0.69964599609375;0.071441650390625;4.84999998775493;486;1 A
153.306170612939;0.69964599609375;0.0714111328125;4.85999998772968;487;1 A
153.316170612914;0.699676513671875;0.07135009765625;4.86999998770443;488;1 A
153.326170612889;0.69970703125;0.071319580078125;4.87999998767918;489;1 A
153.336170612863;0.69970703125;0.071258544921875;4.88999998765394;490;1 A
153.346170612838;0.699676513671875;0.07122802734375;4.89999998762869;491;1 A
153.356170612813;0.699676513671875;0.0711669921875;4.90999998760344;492;1 A
153.366170612788;0.69964599609375;0.071136474609375;4.91999998757819;493;1 A
153.376170612762;0.699676513671875;0.071075439453125;4.92999998755295;494;1 A
153.386170612737;0.699676513671875;0.071044921875;4.9399999875277;495;1 A
153.396170612712;0.69964599609375;0.071014404296875;4.94999998750245;496;1 A
153.406170612687;0.699676513671875;0.070953369140625;4.9599999874772;497;1 A
153.416170612661;0.699676513671875;0.0709228515625;4.96999998745196;498;1 A
153.426170612636;0.69964599609375;0.07086181640625;4.97999998742671;499;1 A
153.436170612611;0.69964599609375;0.070831298828125;4.98999998740146;500;1 A
153.446170612586;0.69964599609375;0.07080078125;4.99999998737621;501;1 A
153.45617061256;0.699615478515625;0.07073974609375;5.00999998735097;502;1 A
153.466170612535;0.69964599609375;0.070709228515625;5.01999998732572;503;1 A
153.47617061251;0.69964599609375;0.070648193359375;5.02999998730047;504;1 A
153.486170612485;0.69970703125;0.07061767578125;5.03999998727522;505;1 A
153.496170612459;0.699676513671875;0.070587158203125;5.04999998724998;506;1 A
153.506170612434;0.69964599609375;0.070526123046875;5.05999998722473;507;1 A
153.516170612409;0.69964599609375;0.07049560546875;5.06999998719948;508;1 A
153.526170612384;0.699615478515625;0.0704345703125;5.07999998717423;509;1 A
153.536170612358;0.699676513671875;0.070404052734375;5.08999998714899;510;1 A
153.546170612333;0.699615478515625;0.07037353515625;5.09999998712374;511;1 A
153.556170612308;0.699676513671875;0.0703125;5.10999998709849;512;1 A
153.566170612283;0.699615478515625;0.070281982421875;5.11999998707324;513;1 A
153.576170612257;0.69964599609375;0.07025146484375;5.129999987048;514;1 A
153.586170612232;0.699676513671875;0.070220947265625;5.13999998702275;515;1 A
153.596170612207;0.699615478515625;0.0701904296875;5.1499999869975;516;1 A
153.606170612182;0.69970703125;0.07012939453125;5.15999998697225;517;1 A
153.616170612156;0.699676513671875;0.070098876953125;5.169999986947;518;1 A
153.626170612131;0.699676513671875;0.070068359375;5.17999998692176;519;1 A
153.636170612106;0.69964599609375;0.070037841796875;5.18999998689651;520;1 A
153.646170612081;0.69964599609375;0.069976806640625;5.19999998687126;521;1 A
153.656170612055;0.69964599609375;0.0699462890625;5.20999998684601;522;1 A
153.66617061203;0.69970703125;0.069915771484375;5.21999998682077;523;1 A
153.676170612005;0.69970703125;0.06988525390625;5.22999998679552;524;1 A
153.68617061198;0.69964599609375;0.06982421875;5.23999998677027;525;1 A
153.696170611954;0.69964599609375;0.069793701171875;5.24999998674502;526;1 A
153.706170611929;0.699676513671875;0.06976318359375;5.25999998671978;527;1 A
153.716170611904;0.69964599609375;0.069732666015625;5.26999998669453;528;1 A
153.726170611879;0.69964599609375;0.0697021484375;5.27999998666928;529;1 A
153.736170611853;0.699676513671875;0.069671630859375;5.28999998664403;530;1 A
153.746170611828;0.69970703125;0.06964111328125;5.29999998661879;531;1 A
153.756170611803;0.699676513671875;0.069580078125;5.30999998659354;532;1 A
153.766170611778;0.69970703125;0.069549560546875;5.31999998656829;533;1 A
153.776170611752;0.69964599609375;0.06951904296875;5.32999998654304;534;1 A
153.786170611727;0.699676513671875;0.069488525390625;5.3399999865178;535;1 A
153.796170611702;0.69964599609375;0.0694580078125;5.34999998649255;536;1 A
153.806170611677;0.699676513671875;0.069427490234375;5.3599999864673;537;1 A
153.816170611652;0.69970703125;0.06939697265625;5.36999998644205;538;1 A
153.826170611626;0.69970703125;0.069366455078125;5.37999998641681;539;1 A
153.836170611601;0.69970703125;0.069305419921875;5.38999998639156;540;1 A
153.846170611576;0.69964599609375;0.06927490234375;5.39999998636631;541;1 A
153.856170611551;0.69964599609375;0.069244384765625;5.40999998634106;542;1 A
153.866170611525;0.699676513671875;0.0692138671875;5.41999998631582;543;1 A
153.8761706115;0.69964599609375;0.069183349609375;5.42999998629057;544;1 A
153.886170611475;0.699676513671875;0.06915283203125;5.43999998626532;545;1 A
153.89617061145;0.69964599609375;0.069122314453125;5.44999998624007;546;1 A
153.906170611424;0.699615478515625;0.069091796875;5.45999998621483;547;1 A
153.916170611399;0.699615478515625;0.069061279296875;5.46999998618958;548;1 A
153.926170611374;0.699676513671875;0.06903076171875;5.47999998616433;549;1 A
153.936170611349;0.69964599609375;0.069000244140625;5.48999998613908;550;1 A
153.946170611323;0.699676513671875;0.0689697265625;5.49999998611383;551;1 A
153.956170611298;0.699676513671875;0.068939208984375;5.50999998608859;552;1 A
153.966170611273;0.69964599609375;0.06890869140625;5.51999998606334;553;1 A
153.976170611248;0.69964599609375;0.06890869140625;5.52999998603809;554;1 A
153.986170611222;0.69964599609375;0.06884765625;5.53999998601284;555;1 A
153.996170611197;0.69970703125;0.06884765625;5.5499999859876;556;1 A
154.006170611172;0.69970703125;0.068817138671875;5.55999998596235;557;1 A
154.016170611147;0.699615478515625;0.06878662109375;5.5699999859371;558;1 A
154.026170611121;0.69964599609375;0.068756103515625;5.57999998591185;559;1 A
154.036170611096;0.699676513671875;0.0687255859375;5.58999998588661;560;1 A
154.046170611071;0.699676513671875;0.068695068359375;5.59999998586136;561;1 A
154.056170611046;0.699676513671875;0.06866455078125;5.60999998583611;562;1 A
154.06617061102;0.699676513671875;0.06866455078125;5.61999998581086;563;1 A
154.076170610995;0.699676513671875;0.068634033203125;5.62999998578562;564;1 A
154.08617061097;0.69964599609375;0.068603515625;5.63999998576037;565;1 A
154.096170610945;0.699615478515625;0.068572998046875;5.64999998573512;566;1 A
154.106170610919;0.69964599609375;0.06854248046875;5.65999998570987;567;1 A
154.116170610894;0.69964599609375;0.06854248046875;5.66999998568463;568;1 A
154.126170610869;0.69964599609375;0.068511962890625;5.67999998565938;569;1 A
154.136170610844;0.69964599609375;0.068511962890625;5.68999998563413;570;1 A
154.146170610818;0.69970703125;0.0684814453125;5.69999998560888;571;1 A
154.156170610793;0.69964599609375;0.068450927734375;5.70999998558364;572;1 A
154.166170610768;0.69970703125;0.06842041015625;5.71999998555839;573;1 A
154.176170610743;0.69970703125;0.06842041015625;5.72999998553314;574;1 A
154.186170610717;0.699676513671875;0.068389892578125;5.73999998550789;575;1 A
154.196170610692;0.69964599609375;0.068359375;5.74999998548265;576;1 A
154.206170610667;0.69964599609375;0.068359375;5.7599999854574;577;1 A
154.216170610642;0.69964599609375;0.068328857421875;5.76999998543215;578;1 A
154.226170610616;0.69970703125;0.06829833984375;5.7799999854069;579;1 A
154.236170610591;0.69970703125;0.068267822265625;5.78999998538166;580;1 A
154.246170610566;0.699615478515625;0.068267822265625;5.79999998535641;581;1 A
154.256170610541;0.69970703125;0.0682373046875;5.80999998533116;582;1 A
154.266170610515;0.69964599609375;0.0682373046875;5.81999998530591;583;1 A
154.27617061049;0.699676513671875;0.068206787109375;5.82999998528066;584;1 A
154.286170610465;0.699676513671875;0.06817626953125;5.83999998525542;585;1 A
154.29617061044;0.699676513671875;0.06817626953125;5.84999998523017;586;1 A
154.306170610414;0.699676513671875;0.068145751953125;5.85999998520492;587;1 A
154.316170610389;0.69964599609375;0.068145751953125;5.86999998517967;588;1 A
154.326170610364;0.699676513671875;0.068115234375;5.87999998515443;589;1 A
154.336170610339;0.699676513671875;0.068084716796875;5.88999998512918;590;1 A
154.346170610313;0.699676513671875;0.068084716796875;5.89999998510393;591;1 A
154.356170610288;0.69970703125;0.06805419921875;5.90999998507868;592;1 A
154.366170610263;0.69970703125;0.06805419921875;5.91999998505344;593;1 A
154.376170610238;0.69970703125;0.068023681640625;5.92999998502819;594;1 A
154.386170610212;0.69964599609375;0.0679931640625;5.93999998500294;595;1 A
154.396170610187;0.699676513671875;0.0679931640625;5.94999998497769;596;1 A
154.406170610162;0.69964599609375;0.067962646484375;5.95999998495245;597;1 A
154.416170610137;0.69964599609375;0.067962646484375;5.9699999849272;598;1 A
154.426170610111;0.69964599609375;0.06793212890625;5.97999998490195;599;1 A
154.436170610086;0.699676513671875;0.06793212890625;5.9899999848767;600;1 A
154.446170610061;0.699676513671875;0.067901611328125;5.99999998485146;601;1 A
154.456170610036;0.699615478515625;0.067901611328125;6.00999998482621;602;1 A
154.46617061001;0.69964599609375;0.06787109375;6.01999998480096;603;1 A
154.476170609985;0.699676513671875;0.067840576171875;6.02999998477571;604;1 A
154.48617060996;0.69970703125;0.067840576171875;6.03999998475047;605;1 A
154.496170609935;0.69964599609375;0.067840576171875;6.04999998472522;606;1 A
154.506170609909;0.699676513671875;0.06781005859375;6.05999998469997;607;1 A
154.516170609884;0.69970703125;0.067779541015625;6.06999998467472;608;1 A
154.526170609859;0.69970703125;0.067779541015625;6.07999998464948;609;1 A
154.536170609834;0.699676513671875;0.0677490234375;6.08999998462423;610;1 A
154.546170609808;0.699615478515625;0.0677490234375;6.09999998459898;611;1 A
154.556170609783;0.699676513671875;0.067718505859375;6.10999998457373;612;1 A
154.566170609758;0.699676513671875;0.067718505859375;6.11999998454849;613;1 A
154.576170609733;0.69964599609375;0.06768798828125;6.12999998452324;614;1 A
154.586170609707;0.69970703125;0.06768798828125;6.13999998449799;615;1 A
154.596170609682;0.69976806640625;0.06768798828125;6.14999998447274;616;1 A
154.606170609657;0.69964599609375;0.067657470703125;6.1599999844475;617;1 A
154.616170609632;0.699615478515625;0.067626953125;6.16999998442225;618;1 A
154.626170609606;0.69970703125;0.067626953125;6.179999984397;619;1 A
154.636170609581;0.69964599609375;0.067626953125;6.18999998437175;620;1 A
154.646170609556;0.699676513671875;0.067596435546875;6.1999999843465;621;1 A
154.656170609531;0.699676513671875;0.067596435546875;6.20999998432126;622;1 A
154.666170609505;0.69964599609375;0.06756591796875;6.21999998429601;623;1 A
154.67617060948;0.699676513671875;0.06756591796875;6.22999998427076;624;1 A
154.686170609455;0.69964599609375;0.067535400390625;6.23999998424551;625;1 A
154.69617060943;0.699676513671875;0.067535400390625;6.24999998422027;626;1 A
154.706170609404;0.69964599609375;0.0675048828125;6.25999998419502;627;1 A
154.716170609379;0.69964599609375;0.0675048828125;6.26999998416977;628;1 A
154.726170609354;0.69964599609375;0.0675048828125;6.27999998414452;629;1 A
154.736170609329;0.699676513671875;0.067474365234375;6.28999998411928;630;1 A
154.746170609303;0.699676513671875;0.067474365234375;6.29999998409403;631;1 A
154.756170609278;0.69964599609375;0.06744384765625;6.30999998406878;632;1 A
154.766170609253;0.699615478515625;0.06744384765625;6.31999998404353;633;1 A
154.776170609228;0.699615478515625;0.067413330078125;6.32999998401829;634;1 A
154.786170609202;0.69964599609375;0.067413330078125;6.33999998399304;635;1 A
154.796170609177;0.699676513671875;0.067413330078125;6.34999998396779;636;1 A
154.806170609152;0.69970703125;0.0673828125;6.35999998394254;637;1 A
154.816170609127;0.69964599609375;0.0673828125;6.3699999839173;638;1 A
154.826170609101;0.699615478515625;0.067352294921875;6.37999998389205;639;1 A
154.836170609076;0.69964599609375;0.067352294921875;6.3899999838668;640;1 A
154.846170609051;0.69964599609375;0.067352294921875;6.39999998384155;641;1 A
154.856170609026;0.699676513671875;0.06732177734375;6.40999998381631;642;1 A
154.866170609001;0.699676513671875;0.067291259765625;6.41999998379106;643;1 A
154.876170608975;0.69964599609375;0.067291259765625;6.42999998376581;644;1 A
154.88617060895;0.69964599609375;0.067291259765625;6.43999998374056;645;1 A
154.896170608925;0.699676513671875;0.067291259765625;6.44999998371532;646;1 A
154.9061706089;0.69964599609375;0.0672607421875;6.45999998369007;647;1 A
154.916170608874;0.699737548828125;0.067230224609375;6.46999998366482;648;1 A
154.926170608849;0.699615478515625;0.067230224609375;6.47999998363957;649;1 A
154.936170608824;0.69964599609375;0.067230224609375;6.48999998361433;650;1 A
154.946170608799;0.699676513671875;0.06719970703125;6.49999998358908;651;1 A
154.956170608773;0.699615478515625;0.06719970703125;6.50999998356383;652;1 A
154.966170608748;0.699676513671875;0.067169189453125;6.51999998353858;653;1 A
154.976170608723;0.69970703125;0.067169189453125;6.52999998351333;654;1 A
154.986170608698;0.699676513671875;0.067169189453125;6.53999998348809;655;1 A
154.996170608672;0.69964599609375;0.067138671875;6.54999998346284;656;1 A
155.006170608647;0.69964599609375;0.067138671875;6.55999998343759;657;1 A
155.016170608622;0.69970703125;0.067108154296875;6.56999998341234;658;1 A
155.026170608597;0.69964599609375;0.067108154296875;6.5799999833871;659;1 A
155.036170608571;0.69964599609375;0.067108154296875;6.58999998336185;660;1 A
155.046170608546;0.699676513671875;0.06707763671875;6.5999999833366;661;1 A
155.056170608521;0.69964599609375;0.06707763671875;6.60999998331135;662;1 A
155.066170608496;0.69970703125;0.067047119140625;6.61999998328611;663;1 A
155.07617060847;0.69970703125;0.067047119140625;6.62999998326086;664;1 A
155.086170608445;0.69964599609375;0.0670166015625;6.63999998323561;665;1 A
155.09617060842;0.699676513671875;0.0670166015625;6.64999998321036;666;1 A
155.106170608395;0.69970703125;0.0670166015625;6.65999998318512;667;1 A
155.116170608369;0.699615478515625;0.066986083984375;6.66999998315987;668;1 A
155.126170608344;0.69964599609375;0.066986083984375;6.67999998313462;669;1 A
155.136170608319;0.69964599609375;0.06695556640625;6.68999998310937;670;1 A
155.146170608294;0.69970703125;0.06695556640625;6.69999998308413;671;1 A
155.156170608268;0.699615478515625;0.06695556640625;6.70999998305888;672;1 A
155.166170608243;0.699676513671875;0.066925048828125;6.71999998303363;673;1 A
155.176170608218;0.69964599609375;0.066925048828125;6.72999998300838;674;1 A
155.186170608193;0.699676513671875;0.06689453125;6.73999998298314;675;1 A
155.196170608167;0.699676513671875;0.06689453125;6.74999998295789;676;1 A
155.206170608142;0.69964599609375;0.06689453125;6.75999998293264;677;1 A
155.216170608117;0.699615478515625;0.066864013671875;6.76999998290739;678;1 A
155.226170608092;0.699676513671875;0.066864013671875;6.77999998288215;679;1 A
155.236170608066;0.699676513671875;0.06683349609375;6.7899999828569;680;1 A
155.246170608041;0.69970703125;0.06683349609375;6.79999998283165;681;1 A
155.256170608016;0.69964599609375;0.06683349609375;6.8099999828064;682;1 A
155.266170607991;0.699676513671875;0.066802978515625;6.81999998278116;683;1 A
155.276170607965;0.69970703125;0.066802978515625;6.82999998275591;684;1 A
155.28617060794;0.699676513671875;0.0667724609375;6.83999998273066;685;1 A
155.296170607915;0.69964599609375;0.0667724609375;6.84999998270541;686;1 A
155.30617060789;0.69964599609375;0.0667724609375;6.85999998268016;687;1 A
155.316170607864;0.69970703125;0.066741943359375;6.86999998265492;688;1 A
155.326170607839;0.69964599609375;0.066741943359375;6.87999998262967;689;1 A
155.336170607814;0.699676513671875;0.06671142578125;6.88999998260442;690;1 A
155.346170607789;0.69964599609375;0.06671142578125;6.89999998257917;691;1 A
155.356170607763;0.69964599609375;0.06671142578125;6.90999998255393;692;1 A
155.366170607738;0.69964599609375;0.066680908203125;6.91999998252868;693;1 A
155.376170607713;0.699676513671875;0.066680908203125;6.92999998250343;694;1 A
155.386170607688;0.699676513671875;0.066650390625;6.93999998247818;695;1 A
155.396170607662;0.69970703125;0.066680908203125;6.94999998245294;696;1 A
155.406170607637;0.69964599609375;0.066650390625;6.95999998242769;697;1 A
155.416170607612;0.69964599609375;0.066619873046875;6.96999998240244;698;1 A
155.426170607587;0.69970703125;0.066619873046875;6.97999998237719;699;1 A
155.436170607561;0.69970703125;0.066619873046875;6.98999998235195;700;1 A
155.446170607536;0.69970703125;0.066619873046875;6.9999999823267;701;1 A
155.456170607511;0.699554443359375;0.06658935546875;7.00999998230145;702;1 A
155.466170607486;0.699615478515625;0.06658935546875;7.0199999822762;703;1 A
155.47617060746;0.69970703125;0.066558837890625;7.02999998225096;704;1 A
155.486170607435;0.699676513671875;0.066558837890625;7.03999998222571;705;1 A
155.49617060741;0.69964599609375;0.066558837890625;7.04999998220046;706;1 A
155.506170607385;0.699676513671875;0.0665283203125;7.05999998217521;707;1 A
155.516170607359;0.69970703125;0.0665283203125;7.06999998214997;708;1 A
155.526170607334;0.699676513671875;0.066497802734375;7.07999998212472;709;1 A
155.536170607309;0.69964599609375;0.066497802734375;7.08999998209947;710;1 A
155.546170607284;0.699676513671875;0.066497802734375;7.09999998207422;711;1 A
155.556170607258;0.699615478515625;0.06646728515625;7.10999998204898;712;1 A
155.566170607233;0.6995849609375;0.06646728515625;7.11999998202373;713;1 A
155.576170607208;0.69970703125;0.06646728515625;7.12999998199848;714;1 A
155.586170607183;0.69964599609375;0.066436767578125;7.13999998197323;715;1 A
155.596170607157;0.699615478515625;0.066436767578125;7.14999998194799;716;1 A
155.606170607132;0.69964599609375;0.066436767578125;7.15999998192274;717;1 A
155.616170607107;0.699676513671875;0.06640625;7.16999998189749;718;1 A
155.626170607082;0.69964599609375;0.06640625;7.17999998187224;719;1 A
155.636170607056;0.699676513671875;0.066375732421875;7.189999981847;720;1 A
155.646170607031;0.69964599609375;0.066375732421875;7.19999998182175;721;1 A
155.656170607006;0.699615478515625;0.066375732421875;7.2099999817965;722;1 A
155.666170606981;0.69964599609375;0.06634521484375;7.21999998177125;723;1 A
155.676170606955;0.69964599609375;0.06634521484375;7.229999981746;724;1 A
155.68617060693;0.69964599609375;0.06634521484375;7.23999998172076;725;1 A
155.696170606905;0.69970703125;0.066314697265625;7.24999998169551;726;1 A
155.70617060688;0.69964599609375;0.066314697265625;7.25999998167026;727;1 A
155.716170606854;0.699737548828125;0.0662841796875;7.26999998164501;728;1 A
155.726170606829;0.699676513671875;0.0662841796875;7.27999998161977;729;1 A
155.736170606804;0.699615478515625;0.0662841796875;7.28999998159452;730;1 A
155.746170606779;0.699676513671875;0.0662841796875;7.29999998156927;731;1 A
155.756170606753;0.69970703125;0.066253662109375;7.30999998154402;732;1 A
155.766170606728;0.699615478515625;0.066253662109375;7.31999998151878;733;1 A
155.776170606703;0.69964599609375;0.06622314453125;7.32999998149353;734;1 A
155.786170606678;0.69970703125;0.06622314453125;7.33999998146828;735;1 A
155.796170606652;0.699676513671875;0.06622314453125;7.34999998144303;736;1 A
155.806170606627;0.69964599609375;0.066192626953125;7.35999998141779;737;1 A
155.816170606602;0.69964599609375;0.066192626953125;7.36999998139254;738;1 A
155.826170606577;0.699676513671875;0.066162109375;7.37999998136729;739;1 A
155.836170606551;0.699676513671875;0.066162109375;7.38999998134204;740;1 A
155.846170606526;0.69970703125;0.066162109375;7.3999999813168;741;1 A
155.856170606501;0.69964599609375;0.066131591796875;7.40999998129155;742;1 A
155.866170606476;0.69964599609375;0.066131591796875;7.4199999812663;743;1 A
155.876170606451;0.699615478515625;0.066131591796875;7.42999998124105;744;1 A
155.886170606425;0.699676513671875;0.06610107421875;7.43999998121581;745;1 A
155.8961706064;0.69964599609375;0.06610107421875;7.44999998119056;746;1 A
155.906170606375;0.69964599609375;0.06610107421875;7.45999998116531;747;1 A
155.91617060635;0.699676513671875;0.066070556640625;7.46999998114006;748;1 A
155.926170606324;0.699676513671875;0.066070556640625;7.47999998111482;749;1 A
155.936170606299;0.69964599609375;0.0660400390625;7.48999998108957;750;1 A
155.946170606274;0.699676513671875;0.0660400390625;7.49999998106432;751;1 A
155.956170606249;0.699676513671875;0.0660400390625;7.50999998103907;752;1 A
155.966170606223;0.699676513671875;0.066009521484375;7.51999998101383;753;1 A
155.976170606198;0.699615478515625;0.066009521484375;7.52999998098858;754;1 A
155.986170606173;0.699676513671875;0.06597900390625;7.53999998096333;755;1 A
155.996170606148;0.69964599609375;0.06597900390625;7.54999998093808;756;1 A
156.006170606122;0.69970703125;0.06597900390625;7.55999998091283;757;1 A
156.016170606097;0.699676513671875;0.065948486328125;7.56999998088759;758;1 A
156.026170606072;0.69964599609375;0.065948486328125;7.57999998086234;759;1 A
156.036170606047;0.699615478515625;0.06591796875;7.58999998083709;760;1 A
156.046170606021;0.69970703125;0.06591796875;7.59999998081184;761;1 A
156.056170605996;0.699676513671875;0.06591796875;7.6099999807866;762;1 A
156.066170605971;0.69964599609375;0.065887451171875;7.61999998076135;763;1 A
156.076170605946;0.699676513671875;0.065887451171875;7.6299999807361;764;1 A
156.08617060592;0.69970703125;0.06585693359375;7.63999998071085;765;1 A
156.096170605895;0.699676513671875;0.06585693359375;7.64999998068561;766;1 A
156.10617060587;0.69964599609375;0.06585693359375;7.65999998066036;767;1 A
156.116170605845;0.69964599609375;0.065826416015625;7.66999998063511;768;1 A
156.126170605819;0.69964599609375;0.065826416015625;7.67999998060986;769;1 A
156.136170605794;0.699676513671875;0.0657958984375;7.68999998058462;770;1 A
156.146170605769;0.69970703125;0.0657958984375;7.69999998055937;771;1 A
156.156170605744;0.699676513671875;0.0657958984375;7.70999998053412;772;1 A
156.166170605718;0.69964599609375;0.065765380859375;7.71999998050887;773;1 A
156.176170605693;0.699615478515625;0.065765380859375;7.72999998048363;774;1 A
156.186170605668;0.69964599609375;0.06573486328125;7.73999998045838;775;1 A
156.196170605643;0.69970703125;0.06573486328125;7.74999998043313;776;1 A
156.206170605617;0.69970703125;0.065704345703125;7.75999998040788;777;1 A
156.216170605592;0.69964599609375;0.065704345703125;7.76999998038264;778;1 A
156.226170605567;0.699737548828125;0.065673828125;7.77999998035739;779;1 A
156.236170605542;0.69964599609375;0.065673828125;7.78999998033214;780;1 A
156.246170605516;0.69964599609375;0.065673828125;7.79999998030689;781;1 A
156.256170605491;0.699676513671875;0.065643310546875;7.80999998028165;782;1 A
156.266170605466;0.699676513671875;0.065643310546875;7.8199999802564;783;1 A
156.276170605441;0.699615478515625;0.06561279296875;7.82999998023115;784;1 A
156.286170605415;0.699615478515625;0.06561279296875;7.8399999802059;785;1 A
156.29617060539;0.69964599609375;0.065582275390625;7.84999998018066;786;1 A
156.306170605365;0.69964599609375;0.065582275390625;7.85999998015541;787;1 A
156.31617060534;0.69964599609375;0.0655517578125;7.86999998013016;788;1 A
156.326170605314;0.69964599609375;0.0655517578125;7.87999998010491;789;1 A
156.336170605289;0.699676513671875;0.065521240234375;7.88999998007966;790;1 A
156.346170605264;0.69970703125;0.065521240234375;7.89999998005442;791;1 A
156.356170605239;0.699676513671875;0.065521240234375;7.90999998002917;792;1 A
156.366170605213;0.69964599609375;0.06549072265625;7.91999998000392;793;1 A
156.376170605188;0.69964599609375;0.06549072265625;7.92999997997867;794;1 A
156.386170605163;0.69964599609375;0.065460205078125;7.93999997995343;795;1 A
156.396170605138;0.69964599609375;0.065460205078125;7.94999997992818;796;1 A
156.406170605112;0.69970703125;0.0654296875;7.95999997990293;797;1 A
156.416170605087;0.69964599609375;0.0654296875;7.96999997987768;798;1 A
156.426170605062;0.699676513671875;0.0654296875;7.97999997985244;799;1 A
156.436170605037;0.69964599609375;0.065399169921875;7.98999997982719;800;1 A
156.446170605011;0.699676513671875;0.065399169921875;7.99999997980194;801;1 A
156.456170604986;0.6995849609375;0.06536865234375;8.00999997977669;802;1 A
156.466170604961;0.69964599609375;0.06536865234375;8.01999997975145;803;1 A
156.476170604936;0.699676513671875;0.065338134765625;8.0299999797262;804;1 A
156.48617060491;0.699676513671875;0.0653076171875;8.03999997970095;805;1 A
156.496170604885;0.69964599609375;0.0653076171875;8.0499999796757;806;1 A
156.50617060486;0.69970703125;0.0653076171875;8.05999997965046;807;1 A
156.516170604835;0.699676513671875;0.065277099609375;8.06999997962521;808;1 A
156.526170604809;0.699615478515625;0.065277099609375;8.07999997959996;809;1 A
156.536170604784;0.69964599609375;0.06524658203125;8.08999997957471;810;1 A
156.546170604759;0.699676513671875;0.06524658203125;8.09999997954947;811;1 A
156.556170604734;0.69964599609375;0.065216064453125;8.10999997952422;812;1 A
156.566170604708;0.699676513671875;0.065216064453125;8.11999997949897;813;1 A
156.576170604683;0.6995849609375;0.065185546875;8.12999997947372;814;1 A
156.586170604658;0.699615478515625;0.065185546875;8.13999997944848;815;1 A
156.596170604633;0.69964599609375;0.065155029296875;8.14999997942323;816;1 A
156.606170604607;0.69964599609375;0.065155029296875;8.15999997939798;817;1 A
156.616170604582;0.69964599609375;0.06512451171875;8.16999997937273;818;1 A
156.626170604557;0.69964599609375;0.06512451171875;8.17999997934749;819;1 A
156.636170604532;0.699615478515625;0.065093994140625;8.18999997932224;820;1 A
156.646170604506;0.69964599609375;0.065093994140625;8.19999997929699;821;1 A
156.656170604481;0.69964599609375;0.0650634765625;8.20999997927174;822;1 A
156.666170604456;0.699615478515625;0.0650634765625;8.2199999792465;823;1 A
156.676170604431;0.699676513671875;0.0650634765625;8.22999997922125;824;1 A
156.686170604405;0.699737548828125;0.065032958984375;8.239999979196;825;1 A
156.69617060438;0.699615478515625;0.065032958984375;8.24999997917075;826;1 A
156.706170604355;0.699676513671875;0.06500244140625;8.2599999791455;827;1 A
156.71617060433;0.699615478515625;0.064971923828125;8.26999997912026;828;1 A
156.726170604304;0.69970703125;0.064971923828125;8.27999997909501;829;1 A
156.736170604279;0.699676513671875;0.06494140625;8.28999997906976;830;1 A
156.746170604254;0.69964599609375;0.06494140625;8.29999997904451;831;1 A
156.756170604229;0.69970703125;0.064910888671875;8.30999997901927;832;1 A
156.766170604203;0.69964599609375;0.064910888671875;8.31999997899402;833;1 A
156.776170604178;0.69970703125;0.064910888671875;8.32999997896877;834;1 A
156.786170604153;0.699676513671875;0.06488037109375;8.33999997894352;835;1 A
156.796170604128;0.69964599609375;0.06488037109375;8.34999997891828;836;1 A
156.806170604102;0.699676513671875;0.064849853515625;8.35999997889303;837;1 A
156.816170604077;0.699615478515625;0.064849853515625;8.36999997886778;838;1 A
156.826170604052;0.69964599609375;0.0648193359375;8.37999997884253;839;1 A
156.836170604027;0.69964599609375;0.0648193359375;8.38999997881729;840;1 A
156.846170604001;0.699676513671875;0.064788818359375;8.39999997879204;841;1 A
156.856170603976;0.69970703125;0.064788818359375;8.40999997876679;842;1 A
156.866170603951;0.699676513671875;0.06475830078125;8.41999997874154;843;1 A
156.876170603926;0.69964599609375;0.06475830078125;8.4299999787163;844;1 A
156.8861706039;0.69970703125;0.064727783203125;8.43999997869105;845;1 A
156.896170603875;0.699676513671875;0.064727783203125;8.4499999786658;846;1 A
156.90617060385;0.69970703125;0.064697265625;8.45999997864055;847;1 A
156.916170603825;0.699615478515625;0.064697265625;8.46999997861531;848;1 A
156.9261706038;0.699615478515625;0.064666748046875;8.47999997859006;849;1 A
156.936170603774;0.699676513671875;0.064666748046875;8.48999997856481;850;1 A
156.946170603749;0.699676513671875;0.06463623046875;8.49999997853956;851;1 A
156.956170603724;0.69964599609375;0.06463623046875;8.50999997851432;852;1 A
156.966170603699;0.69964599609375;0.064605712890625;8.51999997848907;853;1 A
156.976170603673;0.699676513671875;0.064605712890625;8.52999997846382;854;1 A
156.986170603648;0.699615478515625;0.0645751953125;8.53999997843857;855;1 A
156.996170603623;0.699676513671875;0.0645751953125;8.54999997841333;856;1 A
157.006170603598;0.699676513671875;0.064544677734375;8.55999997838808;857;1 A
157.016170603572;0.699676513671875;0.064544677734375;8.56999997836283;858;1 A
157.026170603547;0.699615478515625;0.06451416015625;8.57999997833758;859;1 A
157.036170603522;0.69964599609375;0.064483642578125;8.58999997831233;860;1 A
157.046170603497;0.69964599609375;0.064483642578125;8.59999997828709;861;1 A
157.056170603471;0.69964599609375;0.064453125;8.60999997826184;862;1 A
157.066170603446;0.69970703125;0.064453125;8.61999997823659;863;1 A
157.076170603421;0.69964599609375;0.064422607421875;8.62999997821134;864;1 A
157.086170603396;0.69964599609375;0.064422607421875;8.6399999781861;865;1 A
157.09617060337;0.69970703125;0.06439208984375;8.64999997816085;866;1 A
157.106170603345;0.699676513671875;0.06439208984375;8.6599999781356;867;1 A
157.11617060332;0.69964599609375;0.064361572265625;8.66999997811035;868;1 A
157.126170603295;0.69970703125;0.064361572265625;8.67999997808511;869;1 A
157.136170603269;0.699676513671875;0.0643310546875;8.68999997805986;870;1 A
157.146170603244;0.699676513671875;0.0643310546875;8.69999997803461;871;1 A
157.156170603219;0.69970703125;0.064300537109375;8.70999997800936;872;1 A
157.166170603194;0.699615478515625;0.064300537109375;8.71999997798412;873;1 A
157.176170603168;0.69964599609375;0.06427001953125;8.72999997795887;874;1 A
157.186170603143;0.699676513671875;0.06427001953125;8.73999997793362;875;1 A
157.196170603118;0.69964599609375;0.064239501953125;8.74999997790837;876;1 A
157.206170603093;0.69970703125;0.064239501953125;8.75999997788313;877;1 A
157.216170603067;0.699615478515625;0.064208984375;8.76999997785788;878;1 A
157.226170603042;0.69970703125;0.064208984375;8.77999997783263;879;1 A
157.236170603017;0.699676513671875;0.064178466796875;8.78999997780738;880;1 A
157.246170602992;0.69964599609375;0.064178466796875;8.79999997778214;881;1 A
157.256170602966;0.69964599609375;0.06414794921875;8.80999997775689;882;1 A
157.266170602941;0.69964599609375;0.06414794921875;8.81999997773164;883;1 A
157.276170602916;0.69970703125;0.064117431640625;8.82999997770639;884;1 A
157.286170602891;0.69964599609375;0.0640869140625;8.83999997768115;885;1 A
157.296170602865;0.699615478515625;0.0640869140625;8.8499999776559;886;1 A
157.30617060284;0.699676513671875;0.0640869140625;8.85999997763065;887;1 A
157.316170602815;0.699676513671875;0.064056396484375;8.8699999776054;888;1 A
157.32617060279;0.699676513671875;0.064056396484375;8.87999997758016;889;1 A
157.336170602764;0.69970703125;0.06402587890625;8.88999997755491;890;1 A
157.346170602739;0.69970703125;0.063995361328125;8.89999997752966;891;1 A
157.356170602714;0.699676513671875;0.063995361328125;8.90999997750441;892;1 A
157.366170602689;0.69970703125;0.06396484375;8.91999997747916;893;1 A
157.376170602663;0.69964599609375;0.06396484375;8.92999997745392;894;1 A
157.386170602638;0.69964599609375;0.063934326171875;8.93999997742867;895;1 A
157.396170602613;0.699676513671875;0.063934326171875;8.94999997740342;896;1 A
157.406170602588;0.69964599609375;0.06390380859375;8.95999997737817;897;1 A
157.416170602562;0.699676513671875;0.06390380859375;8.96999997735293;898;1 A
157.426170602537;0.69964599609375;0.063873291015625;8.97999997732768;899;1 A
157.436170602512;0.69970703125;0.063873291015625;8.98999997730243;900;1 A
157.446170602487;0.699676513671875;0.0638427734375;8.99999997727718;901;1 A
157.456170602461;0.69964599609375;0.0638427734375;9.00999997725194;902;1 A
157.466170602436;0.699676513671875;0.063812255859375;9.01999997722669;903;1 A
157.476170602411;0.699676513671875;0.063812255859375;9.02999997720144;904;1 A
157.486170602386;0.699615478515625;0.06378173828125;9.03999997717619;905;1 A
157.49617060236;0.699676513671875;0.06378173828125;9.04999997715095;906;1 A
157.506170602335;0.69964599609375;0.063751220703125;9.0599999771257;907;1 A
157.51617060231;0.69964599609375;0.063751220703125;9.06999997710045;908;1 A
157.526170602285;0.69964599609375;0.063720703125;9.0799999770752;909;1 A
157.536170602259;0.699676513671875;0.063720703125;9.08999997704996;910;1 A
157.546170602234;0.69964599609375;0.063690185546875;9.09999997702471;911;1 A
157.556170602209;0.69964599609375;0.063690185546875;9.10999997699946;912;1 A
157.566170602184;0.69964599609375;0.06365966796875;9.11999997697421;913;1 A
157.576170602158;0.69964599609375;0.06365966796875;9.12999997694897;914;1 A
157.586170602133;0.699615478515625;0.063629150390625;9.13999997692372;915;1 A
157.596170602108;0.699676513671875;0.063629150390625;9.14999997689847;916;1 A
157.606170602083;0.69964599609375;0.0635986328125;9.15999997687322;917;1 A
157.616170602057;0.699676513671875;0.0635986328125;9.16999997684798;918;1 A
157.626170602032;0.69964599609375;0.063568115234375;9.17999997682273;919;1 A
157.636170602007;0.69964599609375;0.063568115234375;9.18999997679748;920;1 A
157.646170601982;0.699676513671875;0.06353759765625;9.19999997677223;921;1 A
157.656170601956;0.699676513671875;0.06353759765625;9.20999997674699;922;1 A
157.666170601931;0.699676513671875;0.063507080078125;9.21999997672174;923;1 A
157.676170601906;0.69970703125;0.063507080078125;9.22999997669649;924;1 A
157.686170601881;0.699676513671875;0.0634765625;9.23999997667124;925;1 A
157.696170601855;0.699676513671875;0.0634765625;9.249999976646;926;1 A
157.70617060183;0.699676513671875;0.063446044921875;9.25999997662075;927;1 A
157.716170601805;0.69970703125;0.063446044921875;9.2699999765955;928;1 A
157.72617060178;0.699615478515625;0.06341552734375;9.27999997657025;929;1 A
157.736170601754;0.69970703125;0.06341552734375;9.289999976545;930;1 A
157.746170601729;0.699676513671875;0.063385009765625;9.29999997651976;931;1 A
157.756170601704;0.69970703125;0.063385009765625;9.30999997649451;932;1 A
157.766170601679;0.699676513671875;0.063385009765625;9.31999997646926;933;1 A
157.776170601653;0.69964599609375;0.0633544921875;9.32999997644401;934;1 A
157.786170601628;0.699676513671875;0.0633544921875;9.33999997641877;935;1 A
157.796170601603;0.69964599609375;0.063323974609375;9.34999997639352;936;1 A
157.806170601578;0.699615478515625;0.063323974609375;9.35999997636827;937;1 A
157.816170601552;0.69964599609375;0.06329345703125;9.36999997634302;938;1 A
157.826170601527;0.699676513671875;0.06329345703125;9.37999997631778;939;1 A
157.836170601502;0.69964599609375;0.063262939453125;9.38999997629253;940;1 A
157.846170601477;0.69970703125;0.063262939453125;9.39999997626728;941;1 A
157.856170601451;0.699676513671875;0.063232421875;9.40999997624203;942;1 A
157.866170601426;0.69964599609375;0.063232421875;9.41999997621679;943;1 A
157.876170601401;0.69964599609375;0.063232421875;9.42999997619154;944;1 A
157.886170601376;0.699676513671875;0.063201904296875;9.43999997616629;945;1 A
157.89617060135;0.699676513671875;0.063201904296875;9.44999997614104;946;1 A
157.906170601325;0.699676513671875;0.06317138671875;9.4599999761158;947;1 A
157.9161706013;0.69964599609375;0.06317138671875;9.46999997609055;948;1 A
157.926170601275;0.69970703125;0.06317138671875;9.4799999760653;949;1 A
157.93617060125;0.699676513671875;0.063140869140625;9.48999997604005;950;1 A
157.946170601224;0.69964599609375;0.063140869140625;9.49999997601481;951;1 A
157.956170601199;0.69970703125;0.0631103515625;9.50999997598956;952;1 A
157.966170601174;0.69964599609375;0.0631103515625;9.51999997596431;953;1 A
157.976170601149;0.699676513671875;0.063079833984375;9.52999997593906;954;1 A
157.986170601123;0.699676513671875;0.063079833984375;9.53999997591382;955;1 A
157.996170601098;0.699676513671875;0.063079833984375;9.54999997588857;956;1 A
158.006170601073;0.699615478515625;0.06304931640625;9.55999997586332;957;1 A
158.016170601048;0.699676513671875;0.06304931640625;9.56999997583807;958;1 A
158.026170601022;0.699676513671875;0.063018798828125;9.57999997581283;959;1 A
158.036170600997;0.69964599609375;0.063018798828125;9.58999997578758;960;1 A
158.046170600972;0.69964599609375;0.06298828125;9.59999997576233;961;1 A
158.056170600947;0.699676513671875;0.06298828125;9.60999997573708;962;1 A
158.066170600921;0.699737548828125;0.06298828125;9.61999997571183;963;1 A
158.076170600896;0.699676513671875;0.062957763671875;9.62999997568659;964;1 A
158.086170600871;0.69970703125;0.062957763671875;9.63999997566134;965;1 A
158.096170600846;0.699615478515625;0.06292724609375;9.64999997563609;966;1 A
158.10617060082;0.69964599609375;0.06292724609375;9.65999997561084;967;1 A
158.116170600795;0.699676513671875;0.06292724609375;9.6699999755856;968;1 A
158.12617060077;0.69964599609375;0.062896728515625;9.67999997556035;969;1 A
158.136170600745;0.699676513671875;0.062896728515625;9.6899999755351;970;1 A
158.146170600719;0.699615478515625;0.062896728515625;9.69999997550985;971;1 A
158.156170600694;0.69964599609375;0.0628662109375;9.70999997548461;972;1 A
158.166170600669;0.69964599609375;0.0628662109375;9.71999997545936;973;1 A
158.176170600644;0.69964599609375;0.062835693359375;9.72999997543411;974;1 A
158.186170600618;0.69964599609375;0.062835693359375;9.73999997540886;975;1 A
158.196170600593;0.69964599609375;0.062835693359375;9.74999997538362;976;1 A
158.206170600568;0.699737548828125;0.06280517578125;9.75999997535837;977;1 A
158.216170600543;0.699615478515625;0.06280517578125;9.76999997533312;978;1 A
158.226170600517;0.69964599609375;0.06280517578125;9.77999997530787;979;1 A
158.236170600492;0.69970703125;0.062774658203125;9.78999997528263;980;1 A
158.246170600467;0.69964599609375;0.062774658203125;9.79999997525738;981;1 A
158.256170600442;0.699615478515625;0.062774658203125;9.80999997523213;982;1 A
158.266170600416;0.699615478515625;0.062744140625;9.81999997520688;983;1 A
158.276170600391;0.69970703125;0.062744140625;9.82999997518164;984;1 A
158.286170600366;0.69964599609375;0.062713623046875;9.83999997515639;985;1 A
158.296170600341;0.69970703125;0.062713623046875;9.84999997513114;986;1 A
158.306170600315;0.699676513671875;0.062713623046875;9.85999997510589;987;1 A
158.31617060029;0.699676513671875;0.06268310546875;9.86999997508065;988;1 A
158.326170600265;0.699676513671875;0.06268310546875;9.8799999750554;989;1 A
158.33617060024;0.69964599609375;0.062652587890625;9.88999997503015;990;1 A
158.346170600214;0.699676513671875;0.062652587890625;9.8999999750049;991;1 A
158.356170600189;0.6995849609375;0.062652587890625;9.90999997497966;992;1 A
158.366170600164;0.69964599609375;0.062652587890625;9.91999997495441;993;1 A
158.376170600139;0.699676513671875;0.062652587890625;9.92999997492916;994;1 A
158.386170600113;0.69970703125;0.0626220703125;9.93999997490391;995;1 A
158.396170600088;0.699676513671875;0.0626220703125;9.94999997487866;996;1 A
158.406170600063;0.699676513671875;0.062591552734375;9.95999997485342;997;1 A
158.416170600038;0.69964599609375;0.062591552734375;9.96999997482817;998;1 A
158.426170600012;0.69964599609375;0.062591552734375;9.97999997480292;999;1 A
158.436170599987;0.69970703125;0.06256103515625;9.98999997477767;1000;1 A
