Time (s);WE(1).Potential (V);WE(1).Current (A);Corrected time (s);Index;Current range;Overload
220.035667444463;0.686614990234375;2.06268310546875;0;1;1 A;Current overload
220.045667444438;0.7503662109375;1.3641357421875;0.00999999997475243;2;1 A;
220.055667444413;0.75;1.02020263671875;0.0199999999495049;3;1 A;
220.065667444388;0.7498779296875;0.78643798828125;0.0299999999242573;4;1 A;
220.075667444362;0.749786376953125;0.6365966796875;0.0399999998990097;5;1 A;
220.085667444337;0.749664306640625;0.54779052734375;0.0499999998737621;6;1 A;
220.095667444312;0.74957275390625;0.49774169921875;0.0599999998485146;7;1 A;
220.105667444287;0.74951171875;0.4639892578125;0.069999999823267;8;1 A;
220.115667444261;0.749542236328125;0.43731689453125;0.0799999997980194;9;1 A;
220.125667444236;0.749542236328125;0.415374755859375;0.0899999997727718;10;1 A;
220.135667444211;0.74957275390625;0.396881103515625;0.0999999997475243;11;1 A;
220.145667444186;0.749542236328125;0.381011962890625;0.109999999722277;12;1 A;
220.15566744416;0.74957275390625;0.367218017578125;0.119999999697029;13;1 A;
220.165667444135;0.74957275390625;0.355072021484375;0.129999999671782;14;1 A;
220.17566744411;0.749542236328125;0.34429931640625;0.139999999646534;15;1 A;
220.185667444085;0.74957275390625;0.334686279296875;0.149999999621286;16;1 A;
220.195667444059;0.749603271484375;0.326019287109375;0.159999999596039;17;1 A;
220.205667444034;0.749481201171875;0.318206787109375;0.169999999570791;18;1 A;
220.215667444009;0.749542236328125;0.31109619140625;0.179999999545544;19;1 A;
220.225667443984;0.749542236328125;0.304595947265625;0.189999999520296;20;1 A;
220.235667443958;0.74957275390625;0.29864501953125;0.199999999495049;21;1 A;
220.245667443933;0.749542236328125;0.293182373046875;0.209999999469801;22;1 A;
220.255667443908;0.74957275390625;0.288116455078125;0.219999999444553;23;1 A;
220.265667443883;0.749481201171875;0.283447265625;0.229999999419306;24;1 A;
220.275667443857;0.74951171875;0.27911376953125;0.239999999394058;25;1 A;
220.285667443832;0.749542236328125;0.27508544921875;0.249999999368811;26;1 A;
220.295667443807;0.749542236328125;0.27130126953125;0.259999999343563;27;1 A;
220.305667443782;0.749542236328125;0.267791748046875;0.269999999318316;28;1 A;
220.315667443756;0.749542236328125;0.2645263671875;0.279999999293068;29;1 A;
220.325667443731;0.74957275390625;0.26141357421875;0.28999999926782;30;1 A;
220.335667443706;0.74945068359375;0.258514404296875;0.299999999242573;31;1 A;
220.345667443681;0.749542236328125;0.255767822265625;0.309999999217325;32;1 A;
220.355667443655;0.749481201171875;0.253204345703125;0.319999999192078;33;1 A;
220.36566744363;0.749542236328125;0.250732421875;0.32999999916683;34;1 A;
220.375667443605;0.749542236328125;0.2484130859375;0.339999999141583;35;1 A;
220.38566744358;0.74957275390625;0.246185302734375;0.349999999116335;36;1 A;
220.395667443554;0.74957275390625;0.244049072265625;0.359999999091087;37;1 A;
220.405667443529;0.749542236328125;0.242034912109375;0.36999999906584;38;1 A;
220.415667443504;0.749542236328125;0.240081787109375;0.379999999040592;39;1 A;
220.425667443479;0.74957275390625;0.2381591796875;0.389999999015345;40;1 A;
220.435667443453;0.749542236328125;0.236358642578125;0.399999998990097;41;1 A;
220.445667443428;0.74957275390625;0.234588623046875;0.40999999896485;42;1 A;
220.455667443403;0.749542236328125;0.232879638671875;0.419999998939602;43;1 A;
220.465667443378;0.74957275390625;0.231201171875;0.429999998914354;44;1 A;
220.475667443352;0.74957275390625;0.22955322265625;0.439999998889107;45;1 A;
220.485667443327;0.749603271484375;0.22796630859375;0.449999998863859;46;1 A;
220.495667443302;0.749542236328125;0.22637939453125;0.459999998838612;47;1 A;
220.505667443277;0.749542236328125;0.224822998046875;0.469999998813364;48;1 A;
220.515667443251;0.74951171875;0.223297119140625;0.479999998788116;49;1 A;
220.525667443226;0.749542236328125;0.221771240234375;0.489999998762869;50;1 A;
220.535667443201;0.749603271484375;0.220245361328125;0.499999998737621;51;1 A;
220.545667443176;0.74951171875;0.218719482421875;0.509999998712374;52;1 A;
220.55566744315;0.749542236328125;0.217254638671875;0.519999998687126;53;1 A;
220.565667443125;0.74957275390625;0.21575927734375;0.529999998661879;54;1 A;
220.5756674431;0.74957275390625;0.2142333984375;0.539999998636631;55;1 A;
220.585667443075;0.749542236328125;0.2127685546875;0.549999998611383;56;1 A;
220.595667443049;0.74957275390625;0.211273193359375;0.559999998586136;57;1 A;
220.605667443024;0.749542236328125;0.20977783203125;0.569999998560888;58;1 A;
220.615667442999;0.749603271484375;0.208282470703125;0.579999998535641;59;1 A;
220.625667442974;0.749542236328125;0.206787109375;0.589999998510393;60;1 A;
220.635667442948;0.749542236328125;0.205291748046875;0.599999998485146;61;1 A;
220.645667442923;0.749542236328125;0.20379638671875;0.609999998459898;62;1 A;
220.655667442898;0.74957275390625;0.202301025390625;0.61999999843465;63;1 A;
220.665667442873;0.749542236328125;0.2008056640625;0.629999998409403;64;1 A;
220.675667442847;0.74951171875;0.19927978515625;0.639999998384155;65;1 A;
220.685667442822;0.749542236328125;0.197784423828125;0.649999998358908;66;1 A;
220.695667442797;0.749603271484375;0.196258544921875;0.65999999833366;67;1 A;
220.705667442772;0.749542236328125;0.19476318359375;0.669999998308413;68;1 A;
220.715667442747;0.74957275390625;0.193267822265625;0.679999998283165;69;1 A;
220.725667442721;0.749542236328125;0.191741943359375;0.689999998257917;70;1 A;
220.735667442696;0.749603271484375;0.19024658203125;0.69999999823267;71;1 A;
220.745667442671;0.749542236328125;0.188751220703125;0.709999998207422;72;1 A;
220.755667442646;0.749542236328125;0.187255859375;0.719999998182175;73;1 A;
220.76566744262;0.749542236328125;0.185791015625;0.729999998156927;74;1 A;
220.775667442595;0.74957275390625;0.184326171875;0.73999999813168;75;1 A;
220.78566744257;0.749603271484375;0.182861328125;0.749999998106432;76;1 A;
220.795667442545;0.74957275390625;0.181396484375;0.759999998081184;77;1 A;
220.805667442519;0.749542236328125;0.179962158203125;0.769999998055937;78;1 A;
220.815667442494;0.74957275390625;0.178558349609375;0.779999998030689;79;1 A;
220.825667442469;0.749603271484375;0.177154541015625;0.789999998005442;80;1 A;
220.835667442444;0.74957275390625;0.17578125;0.799999997980194;81;1 A;
220.845667442418;0.74957275390625;0.174407958984375;0.809999997954947;82;1 A;
220.855667442393;0.74957275390625;0.173065185546875;0.819999997929699;83;1 A;
220.865667442368;0.749603271484375;0.1717529296875;0.829999997904451;84;1 A;
220.875667442343;0.749542236328125;0.170440673828125;0.839999997879204;85;1 A;
220.885667442317;0.749542236328125;0.169158935546875;0.849999997853956;86;1 A;
220.895667442292;0.749603271484375;0.16790771484375;0.859999997828709;87;1 A;
220.905667442267;0.749542236328125;0.166656494140625;0.869999997803461;88;1 A;
220.915667442242;0.749542236328125;0.165435791015625;0.879999997778214;89;1 A;
220.925667442216;0.749481201171875;0.16424560546875;0.889999997752966;90;1 A;
220.935667442191;0.74951171875;0.1630859375;0.899999997727718;91;1 A;
220.945667442166;0.749603271484375;0.16192626953125;0.909999997702471;92;1 A;
220.955667442141;0.74957275390625;0.160797119140625;0.919999997677223;93;1 A;
220.965667442115;0.749542236328125;0.159698486328125;0.929999997651976;94;1 A;
220.97566744209;0.74957275390625;0.158599853515625;0.939999997626728;95;1 A;
220.985667442065;0.74951171875;0.15753173828125;0.949999997601481;96;1 A;
220.99566744204;0.74957275390625;0.156494140625;0.959999997576233;97;1 A;
221.005667442014;0.749542236328125;0.15545654296875;0.969999997550985;98;1 A;
221.015667441989;0.749603271484375;0.154449462890625;0.979999997525738;99;1 A;
221.025667441964;0.74957275390625;0.1534423828125;0.98999999750049;100;1 A;
221.035667441939;0.749481201171875;0.152496337890625;0.999999997475243;101;1 A;
221.045667441913;0.749603271484375;0.151519775390625;1.00999999745;102;1 A;
221.055667441888;0.749542236328125;0.150604248046875;1.01999999742475;103;1 A;
221.065667441863;0.749542236328125;0.14971923828125;1.0299999973995;104;1 A;
221.075667441838;0.74957275390625;0.1488037109375;1.03999999737425;105;1 A;
221.085667441812;0.74951171875;0.14794921875;1.049999997349;106;1 A;
221.095667441787;0.74957275390625;0.1470947265625;1.05999999732376;107;1 A;
221.105667441762;0.74951171875;0.146240234375;1.06999999729851;108;1 A;
221.115667441737;0.749603271484375;0.145416259765625;1.07999999727326;109;1 A;
221.125667441711;0.74957275390625;0.144622802734375;1.08999999724801;110;1 A;
221.135667441686;0.749542236328125;0.143829345703125;1.09999999722277;111;1 A;
221.145667441661;0.74951171875;0.14306640625;1.10999999719752;112;1 A;
221.155667441636;0.74957275390625;0.142303466796875;1.11999999717227;113;1 A;
221.16566744161;0.74957275390625;0.14154052734375;1.12999999714702;114;1 A;
221.175667441585;0.749542236328125;0.14080810546875;1.13999999712178;115;1 A;
221.18566744156;0.749603271484375;0.14013671875;1.14999999709653;116;1 A;
221.195667441535;0.74951171875;0.139404296875;1.15999999707128;117;1 A;
221.205667441509;0.749542236328125;0.13873291015625;1.16999999704603;118;1 A;
221.215667441484;0.749542236328125;0.1380615234375;1.17999999702079;119;1 A;
221.225667441459;0.74957275390625;0.13739013671875;1.18999999699554;120;1 A;
221.235667441434;0.749542236328125;0.136749267578125;1.19999999697029;121;1 A;
221.245667441408;0.74957275390625;0.1361083984375;1.20999999694504;122;1 A;
221.255667441383;0.749542236328125;0.135498046875;1.2199999969198;123;1 A;
221.265667441358;0.749603271484375;0.1348876953125;1.22999999689455;124;1 A;
221.275667441333;0.74951171875;0.13427734375;1.2399999968693;125;1 A;
221.285667441307;0.74951171875;0.133697509765625;1.24999999684405;126;1 A;
221.295667441282;0.749542236328125;0.13311767578125;1.25999999681881;127;1 A;
221.305667441257;0.74957275390625;0.132568359375;1.26999999679356;128;1 A;
221.315667441232;0.74957275390625;0.131988525390625;1.27999999676831;129;1 A;
221.325667441206;0.749542236328125;0.131439208984375;1.28999999674306;130;1 A;
221.335667441181;0.749542236328125;0.13092041015625;1.29999999671782;131;1 A;
221.345667441156;0.749603271484375;0.130401611328125;1.30999999669257;132;1 A;
221.355667441131;0.749542236328125;0.129852294921875;1.31999999666732;133;1 A;
221.365667441105;0.74951171875;0.129364013671875;1.32999999664207;134;1 A;
221.37566744108;0.749542236328125;0.12884521484375;1.33999999661683;135;1 A;
221.385667441055;0.74957275390625;0.128387451171875;1.34999999659158;136;1 A;
221.39566744103;0.749603271484375;0.127899169921875;1.35999999656633;137;1 A;
221.405667441004;0.749603271484375;0.127410888671875;1.36999999654108;138;1 A;
221.415667440979;0.74957275390625;0.126953125;1.37999999651583;139;1 A;
221.425667440954;0.74951171875;0.12646484375;1.38999999649059;140;1 A;
221.435667440929;0.749603271484375;0.12603759765625;1.39999999646534;141;1 A;
221.445667440903;0.749603271484375;0.1256103515625;1.40999999644009;142;1 A;
221.455667440878;0.749542236328125;0.125152587890625;1.41999999641484;143;1 A;
221.465667440853;0.74957275390625;0.124725341796875;1.4299999963896;144;1 A;
221.475667440828;0.74957275390625;0.124298095703125;1.43999999636435;145;1 A;
221.485667440802;0.74957275390625;0.1239013671875;1.4499999963391;146;1 A;
221.495667440777;0.749603271484375;0.123504638671875;1.45999999631385;147;1 A;
221.505667440752;0.749542236328125;0.123077392578125;1.46999999628861;148;1 A;
221.515667440727;0.749603271484375;0.122711181640625;1.47999999626336;149;1 A;
221.525667440701;0.74957275390625;0.122283935546875;1.48999999623811;150;1 A;
221.535667440676;0.749542236328125;0.121917724609375;1.49999999621286;151;1 A;
221.545667440651;0.749542236328125;0.121551513671875;1.50999999618762;152;1 A;
221.555667440626;0.7496337890625;0.121185302734375;1.51999999616237;153;1 A;
221.5656674406;0.749542236328125;0.120819091796875;1.52999999613712;154;1 A;
221.575667440575;0.74957275390625;0.120452880859375;1.53999999611187;155;1 A;
221.58566744055;0.74957275390625;0.120086669921875;1.54999999608663;156;1 A;
221.595667440525;0.74957275390625;0.1197509765625;1.55999999606138;157;1 A;
221.605667440499;0.749542236328125;0.119384765625;1.56999999603613;158;1 A;
221.615667440474;0.749542236328125;0.119049072265625;1.57999999601088;159;1 A;
221.625667440449;0.74957275390625;0.11871337890625;1.58999999598564;160;1 A;
221.635667440424;0.74951171875;0.118408203125;1.59999999596039;161;1 A;
221.645667440398;0.74957275390625;0.118072509765625;1.60999999593514;162;1 A;
221.655667440373;0.74951171875;0.11773681640625;1.61999999590989;163;1 A;
221.665667440348;0.74951171875;0.117431640625;1.62999999588465;164;1 A;
221.675667440323;0.74951171875;0.117095947265625;1.6399999958594;165;1 A;
221.685667440297;0.74951171875;0.1168212890625;1.64999999583415;166;1 A;
221.695667440272;0.749542236328125;0.11651611328125;1.6599999958089;167;1 A;
221.705667440247;0.749542236328125;0.1162109375;1.66999999578366;168;1 A;
221.715667440222;0.74957275390625;0.11590576171875;1.67999999575841;169;1 A;
221.725667440197;0.749603271484375;0.115631103515625;1.68999999573316;170;1 A;
221.735667440171;0.74951171875;0.115325927734375;1.69999999570791;171;1 A;
221.745667440146;0.74957275390625;0.11505126953125;1.70999999568267;172;1 A;
221.755667440121;0.74957275390625;0.114776611328125;1.71999999565742;173;1 A;
221.765667440096;0.749603271484375;0.114501953125;1.72999999563217;174;1 A;
221.77566744007;0.749603271484375;0.114227294921875;1.73999999560692;175;1 A;
221.785667440045;0.74957275390625;0.11395263671875;1.74999999558167;176;1 A;
221.79566744002;0.749603271484375;0.113677978515625;1.75999999555643;177;1 A;
221.805667439995;0.74957275390625;0.1134033203125;1.76999999553118;178;1 A;
221.815667439969;0.74957275390625;0.1131591796875;1.77999999550593;179;1 A;
221.825667439944;0.74951171875;0.112884521484375;1.78999999548068;180;1 A;
221.835667439919;0.749603271484375;0.112640380859375;1.79999999545544;181;1 A;
221.845667439894;0.749603271484375;0.112396240234375;1.80999999543019;182;1 A;
221.855667439868;0.749603271484375;0.112152099609375;1.81999999540494;183;1 A;
221.865667439843;0.749603271484375;0.111907958984375;1.82999999537969;184;1 A;
221.875667439818;0.749542236328125;0.11163330078125;1.83999999535445;185;1 A;
221.885667439793;0.749603271484375;0.111419677734375;1.8499999953292;186;1 A;
221.895667439767;0.74957275390625;0.111175537109375;1.85999999530395;187;1 A;
221.905667439742;0.7496337890625;0.110931396484375;1.8699999952787;188;1 A;
221.915667439717;0.749542236328125;0.1107177734375;1.87999999525346;189;1 A;
221.925667439692;0.74957275390625;0.1104736328125;1.88999999522821;190;1 A;
221.935667439666;0.749603271484375;0.110260009765625;1.89999999520296;191;1 A;
221.945667439641;0.749542236328125;0.110015869140625;1.90999999517771;192;1 A;
221.955667439616;0.74957275390625;0.10980224609375;1.91999999515247;193;1 A;
221.965667439591;0.74957275390625;0.109588623046875;1.92999999512722;194;1 A;
221.975667439565;0.749542236328125;0.109344482421875;1.93999999510197;195;1 A;
221.98566743954;0.74957275390625;0.109161376953125;1.94999999507672;196;1 A;
221.995667439515;0.749542236328125;0.10894775390625;1.95999999505148;197;1 A;
222.00566743949;0.74957275390625;0.108734130859375;1.96999999502623;198;1 A;
222.015667439464;0.74951171875;0.1085205078125;1.97999999500098;199;1 A;
222.025667439439;0.74957275390625;0.108306884765625;1.98999999497573;200;1 A;
222.035667439414;0.74957275390625;0.108123779296875;1.99999999495049;201;1 A;
222.045667439389;0.749542236328125;0.10791015625;2.00999999492524;202;1 A;
222.055667439363;0.74957275390625;0.107696533203125;2.01999999489999;203;1 A;
222.065667439338;0.749542236328125;0.107513427734375;2.02999999487474;204;1 A;
222.075667439313;0.749603271484375;0.1072998046875;2.0399999948495;205;1 A;
222.085667439288;0.74957275390625;0.10711669921875;2.04999999482425;206;1 A;
222.095667439262;0.74957275390625;0.10693359375;2.059999994799;207;1 A;
222.105667439237;0.749603271484375;0.10675048828125;2.06999999477375;208;1 A;
222.115667439212;0.74957275390625;0.1065673828125;2.0799999947485;209;1 A;
222.125667439187;0.74951171875;0.106353759765625;2.08999999472326;210;1 A;
222.135667439161;0.749542236328125;0.106170654296875;2.09999999469801;211;1 A;
222.145667439136;0.74951171875;0.105987548828125;2.10999999467276;212;1 A;
222.155667439111;0.74957275390625;0.105804443359375;2.11999999464751;213;1 A;
222.165667439086;0.74951171875;0.105621337890625;2.12999999462227;214;1 A;
222.17566743906;0.74957275390625;0.105438232421875;2.13999999459702;215;1 A;
222.185667439035;0.749542236328125;0.105255126953125;2.14999999457177;216;1 A;
222.19566743901;0.7496337890625;0.105072021484375;2.15999999454652;217;1 A;
222.205667438985;0.749542236328125;0.10491943359375;2.16999999452128;218;1 A;
222.215667438959;0.7496337890625;0.104736328125;2.17999999449603;219;1 A;
222.225667438934;0.749542236328125;0.10455322265625;2.18999999447078;220;1 A;
222.235667438909;0.7496337890625;0.104400634765625;2.19999999444553;221;1 A;
222.245667438884;0.74951171875;0.104217529296875;2.20999999442029;222;1 A;
222.255667438858;0.74957275390625;0.10406494140625;2.21999999439504;223;1 A;
222.265667438833;0.749542236328125;0.1038818359375;2.22999999436979;224;1 A;
222.275667438808;0.74951171875;0.103729248046875;2.23999999434454;225;1 A;
222.285667438783;0.74957275390625;0.10357666015625;2.2499999943193;226;1 A;
222.295667438757;0.749481201171875;0.1033935546875;2.25999999429405;227;1 A;
222.305667438732;0.749542236328125;0.103240966796875;2.2699999942688;228;1 A;
222.315667438707;0.74957275390625;0.10308837890625;2.27999999424355;229;1 A;
222.325667438682;0.749542236328125;0.1029052734375;2.28999999421831;230;1 A;
222.335667438656;0.749542236328125;0.102752685546875;2.29999999419306;231;1 A;
222.345667438631;0.749542236328125;0.10260009765625;2.30999999416781;232;1 A;
222.355667438606;0.74951171875;0.102447509765625;2.31999999414256;233;1 A;
222.365667438581;0.749481201171875;0.102294921875;2.32999999411732;234;1 A;
222.375667438555;0.74957275390625;0.102142333984375;2.33999999409207;235;1 A;
222.38566743853;0.749542236328125;0.10198974609375;2.34999999406682;236;1 A;
222.395667438505;0.749542236328125;0.10186767578125;2.35999999404157;237;1 A;
222.40566743848;0.749542236328125;0.101715087890625;2.36999999401633;238;1 A;
222.415667438454;0.74957275390625;0.1015625;2.37999999399108;239;1 A;
222.425667438429;0.74957275390625;0.101409912109375;2.38999999396583;240;1 A;
222.435667438404;0.74957275390625;0.101287841796875;2.39999999394058;241;1 A;
222.445667438379;0.74957275390625;0.10113525390625;2.40999999391533;242;1 A;
222.455667438353;0.74957275390625;0.100982666015625;2.41999999389009;243;1 A;
222.465667438328;0.74957275390625;0.100860595703125;2.42999999386484;244;1 A;
222.475667438303;0.7496337890625;0.1007080078125;2.43999999383959;245;1 A;
222.485667438278;0.74957275390625;0.1005859375;2.44999999381434;246;1 A;
222.495667438252;0.74957275390625;0.100433349609375;2.4599999937891;247;1 A;
222.505667438227;0.749603271484375;0.100311279296875;2.46999999376385;248;1 A;
222.515667438202;0.74957275390625;0.10015869140625;2.4799999937386;249;1 A;
222.525667438177;0.749603271484375;0.100006103515625;2.48999999371335;250;1 A;
222.535667438151;0.74957275390625;0.099884033203125;2.49999999368811;251;1 A;
222.545667438126;0.74951171875;0.099761962890625;2.50999999366286;252;1 A;
222.555667438101;0.74957275390625;0.099609375;2.51999999363761;253;1 A;
222.565667438076;0.74957275390625;0.0994873046875;2.52999999361236;254;1 A;
222.57566743805;0.749603271484375;0.099334716796875;2.53999999358712;255;1 A;
222.585667438025;0.74957275390625;0.099212646484375;2.54999999356187;256;1 A;
222.595667438;0.749603271484375;0.099090576171875;2.55999999353662;257;1 A;
222.605667437975;0.74957275390625;0.098968505859375;2.56999999351137;258;1 A;
222.615667437949;0.749603271484375;0.098846435546875;2.57999999348613;259;1 A;
222.625667437924;0.74951171875;0.09869384765625;2.58999999346088;260;1 A;
222.635667437899;0.749542236328125;0.098602294921875;2.59999999343563;261;1 A;
222.645667437874;0.749542236328125;0.09844970703125;2.60999999341038;262;1 A;
222.655667437848;0.749603271484375;0.09832763671875;2.61999999338514;263;1 A;
222.665667437823;0.749603271484375;0.09820556640625;2.62999999335989;264;1 A;
222.675667437798;0.749603271484375;0.09808349609375;2.63999999333464;265;1 A;
222.685667437773;0.749542236328125;0.09796142578125;2.64999999330939;266;1 A;
222.695667437747;0.74951171875;0.09783935546875;2.65999999328415;267;1 A;
222.705667437722;0.74951171875;0.097747802734375;2.6699999932589;268;1 A;
222.715667437697;0.74957275390625;0.097625732421875;2.67999999323365;269;1 A;
222.725667437672;0.74957275390625;0.09747314453125;2.6899999932084;270;1 A;
222.735667437646;0.74957275390625;0.097381591796875;2.69999999318316;271;1 A;
222.745667437621;0.74957275390625;0.097259521484375;2.70999999315791;272;1 A;
222.755667437596;0.749542236328125;0.097137451171875;2.71999999313266;273;1 A;
222.765667437571;0.74957275390625;0.097015380859375;2.72999999310741;274;1 A;
222.775667437546;0.749542236328125;0.096923828125;2.73999999308217;275;1 A;
222.78566743752;0.74951171875;0.0968017578125;2.74999999305692;276;1 A;
222.795667437495;0.74957275390625;0.0966796875;2.75999999303167;277;1 A;
222.80566743747;0.74957275390625;0.0965576171875;2.76999999300642;278;1 A;
222.815667437445;0.74957275390625;0.096466064453125;2.77999999298117;279;1 A;
222.825667437419;0.74957275390625;0.096343994140625;2.78999999295593;280;1 A;
222.835667437394;0.74957275390625;0.09625244140625;2.79999999293068;281;1 A;
222.845667437369;0.74957275390625;0.09613037109375;2.80999999290543;282;1 A;
222.855667437344;0.749542236328125;0.096038818359375;2.81999999288018;283;1 A;
222.865667437318;0.74957275390625;0.095916748046875;2.82999999285494;284;1 A;
222.875667437293;0.749542236328125;0.095794677734375;2.83999999282969;285;1 A;
222.885667437268;0.74957275390625;0.095703125;2.84999999280444;286;1 A;
222.895667437243;0.7496337890625;0.0955810546875;2.85999999277919;287;1 A;
222.905667437217;0.749603271484375;0.095489501953125;2.86999999275395;288;1 A;
222.915667437192;0.749542236328125;0.09539794921875;2.8799999927287;289;1 A;
222.925667437167;0.74951171875;0.09527587890625;2.88999999270345;290;1 A;
222.935667437142;0.7496337890625;0.095184326171875;2.8999999926782;291;1 A;
222.945667437116;0.74951171875;0.095062255859375;2.90999999265296;292;1 A;
222.955667437091;0.74957275390625;0.094970703125;2.91999999262771;293;1 A;
222.965667437066;0.74957275390625;0.094879150390625;2.92999999260246;294;1 A;
222.975667437041;0.74951171875;0.094757080078125;2.93999999257721;295;1 A;
222.985667437015;0.749603271484375;0.09466552734375;2.94999999255197;296;1 A;
222.99566743699;0.749603271484375;0.094573974609375;2.95999999252672;297;1 A;
223.005667436965;0.74951171875;0.094482421875;2.96999999250147;298;1 A;
223.01566743694;0.74957275390625;0.0943603515625;2.97999999247622;299;1 A;
223.025667436914;0.74957275390625;0.094268798828125;2.98999999245098;300;1 A;
223.035667436889;0.749542236328125;0.09417724609375;2.99999999242573;301;1 A;
223.045667436864;0.7496337890625;0.094085693359375;3.00999999240048;302;1 A;
223.055667436839;0.749542236328125;0.093994140625;3.01999999237523;303;1 A;
223.065667436813;0.74957275390625;0.093902587890625;3.02999999234999;304;1 A;
223.075667436788;0.74951171875;0.093780517578125;3.03999999232474;305;1 A;
223.085667436763;0.74957275390625;0.09368896484375;3.04999999229949;306;1 A;
223.095667436738;0.74957275390625;0.093597412109375;3.05999999227424;307;1 A;
223.105667436712;0.749542236328125;0.093505859375;3.069999992249;308;1 A;
223.115667436687;0.749542236328125;0.093414306640625;3.07999999222375;309;1 A;
223.125667436662;0.749542236328125;0.09332275390625;3.0899999921985;310;1 A;
223.135667436637;0.749603271484375;0.093231201171875;3.09999999217325;311;1 A;
223.145667436611;0.749542236328125;0.0931396484375;3.109999992148;312;1 A;
223.155667436586;0.749603271484375;0.093048095703125;3.11999999212276;313;1 A;
223.165667436561;0.749542236328125;0.09295654296875;3.12999999209751;314;1 A;
223.175667436536;0.74957275390625;0.092864990234375;3.13999999207226;315;1 A;
223.18566743651;0.74957275390625;0.0927734375;3.14999999204701;316;1 A;
223.195667436485;0.749542236328125;0.092681884765625;3.15999999202177;317;1 A;
223.20566743646;0.749542236328125;0.09259033203125;3.16999999199652;318;1 A;
223.215667436435;0.74951171875;0.092498779296875;3.17999999197127;319;1 A;
223.225667436409;0.749542236328125;0.0924072265625;3.18999999194602;320;1 A;
223.235667436384;0.74957275390625;0.09234619140625;3.19999999192078;321;1 A;
223.245667436359;0.74957275390625;0.092254638671875;3.20999999189553;322;1 A;
223.255667436334;0.749603271484375;0.0921630859375;3.21999999187028;323;1 A;
223.265667436308;0.74957275390625;0.092071533203125;3.22999999184503;324;1 A;
223.275667436283;0.749603271484375;0.09197998046875;3.23999999181979;325;1 A;
223.285667436258;0.749542236328125;0.0919189453125;3.24999999179454;326;1 A;
223.295667436233;0.7496337890625;0.091827392578125;3.25999999176929;327;1 A;
223.305667436207;0.74957275390625;0.09173583984375;3.26999999174404;328;1 A;
223.315667436182;0.74957275390625;0.091644287109375;3.2799999917188;329;1 A;
223.325667436157;0.749542236328125;0.091552734375;3.28999999169355;330;1 A;
223.335667436132;0.749603271484375;0.09149169921875;3.2999999916683;331;1 A;
223.345667436106;0.749603271484375;0.091400146484375;3.30999999164305;332;1 A;
223.355667436081;0.749542236328125;0.09130859375;3.31999999161781;333;1 A;
223.365667436056;0.74957275390625;0.09124755859375;3.32999999159256;334;1 A;
223.375667436031;0.74957275390625;0.091156005859375;3.33999999156731;335;1 A;
223.385667436005;0.749542236328125;0.091064453125;3.34999999154206;336;1 A;
223.39566743598;0.749603271484375;0.09100341796875;3.35999999151682;337;1 A;
223.405667435955;0.749542236328125;0.090911865234375;3.36999999149157;338;1 A;
223.41566743593;0.74957275390625;0.0908203125;3.37999999146632;339;1 A;
223.425667435904;0.749542236328125;0.090728759765625;3.38999999144107;340;1 A;
223.435667435879;0.74957275390625;0.090667724609375;3.39999999141583;341;1 A;
223.445667435854;0.74951171875;0.090576171875;3.40999999139058;342;1 A;
223.455667435829;0.749603271484375;0.09051513671875;3.41999999136533;343;1 A;
223.465667435803;0.749542236328125;0.090423583984375;3.42999999134008;344;1 A;
223.475667435778;0.74957275390625;0.090362548828125;3.43999999131483;345;1 A;
223.485667435753;0.749603271484375;0.09027099609375;3.44999999128959;346;1 A;
223.495667435728;0.749481201171875;0.0902099609375;3.45999999126434;347;1 A;
223.505667435702;0.749603271484375;0.090118408203125;3.46999999123909;348;1 A;
223.515667435677;0.74957275390625;0.090057373046875;3.47999999121384;349;1 A;
223.525667435652;0.749542236328125;0.0899658203125;3.4899999911886;350;1 A;
223.535667435627;0.7496337890625;0.08990478515625;3.49999999116335;351;1 A;
223.545667435601;0.749542236328125;0.089813232421875;3.5099999911381;352;1 A;
223.555667435576;0.74951171875;0.089752197265625;3.51999999111285;353;1 A;
223.565667435551;0.74951171875;0.08966064453125;3.52999999108761;354;1 A;
223.575667435526;0.749603271484375;0.089599609375;3.53999999106236;355;1 A;
223.5856674355;0.74957275390625;0.089508056640625;3.54999999103711;356;1 A;
223.595667435475;0.749542236328125;0.089447021484375;3.55999999101186;357;1 A;
223.60566743545;0.749542236328125;0.08935546875;3.56999999098662;358;1 A;
223.615667435425;0.74957275390625;0.08929443359375;3.57999999096137;359;1 A;
223.625667435399;0.749542236328125;0.089202880859375;3.58999999093612;360;1 A;
223.635667435374;0.74957275390625;0.089141845703125;3.59999999091087;361;1 A;
223.645667435349;0.74957275390625;0.089080810546875;3.60999999088563;362;1 A;
223.655667435324;0.74957275390625;0.0889892578125;3.61999999086038;363;1 A;
223.665667435298;0.74957275390625;0.08892822265625;3.62999999083513;364;1 A;
223.675667435273;0.74957275390625;0.088836669921875;3.63999999080988;365;1 A;
223.685667435248;0.74957275390625;0.088775634765625;3.64999999078464;366;1 A;
223.695667435223;0.749542236328125;0.088714599609375;3.65999999075939;367;1 A;
223.705667435197;0.749603271484375;0.088653564453125;3.66999999073414;368;1 A;
223.715667435172;0.74957275390625;0.088592529296875;3.67999999070889;369;1 A;
223.725667435147;0.74957275390625;0.0885009765625;3.68999999068365;370;1 A;
223.735667435122;0.749542236328125;0.08843994140625;3.6999999906584;371;1 A;
223.745667435096;0.74957275390625;0.08837890625;3.70999999063315;372;1 A;
223.755667435071;0.749603271484375;0.088287353515625;3.7199999906079;373;1 A;
223.765667435046;0.749542236328125;0.088226318359375;3.72999999058266;374;1 A;
223.775667435021;0.749603271484375;0.088165283203125;3.73999999055741;375;1 A;
223.785667434996;0.749603271484375;0.088104248046875;3.74999999053216;376;1 A;
223.79566743497;0.74951171875;0.0880126953125;3.75999999050691;377;1 A;
223.805667434945;0.749542236328125;0.08795166015625;3.76999999048167;378;1 A;
223.81566743492;0.749603271484375;0.087890625;3.77999999045642;379;1 A;
223.825667434895;0.74957275390625;0.087799072265625;3.78999999043117;380;1 A;
223.835667434869;0.749542236328125;0.0877685546875;3.79999999040592;381;1 A;
223.845667434844;0.74957275390625;0.087677001953125;3.80999999038067;382;1 A;
223.855667434819;0.749542236328125;0.087615966796875;3.81999999035543;383;1 A;
223.865667434794;0.74957275390625;0.087554931640625;3.82999999033018;384;1 A;
223.875667434768;0.74957275390625;0.087493896484375;3.83999999030493;385;1 A;
223.885667434743;0.749542236328125;0.087432861328125;3.84999999027968;386;1 A;
223.895667434718;0.74957275390625;0.08734130859375;3.85999999025444;387;1 A;
223.905667434693;0.749542236328125;0.0872802734375;3.86999999022919;388;1 A;
223.915667434667;0.74957275390625;0.08721923828125;3.87999999020394;389;1 A;
223.925667434642;0.74951171875;0.087158203125;3.88999999017869;390;1 A;
223.935667434617;0.74957275390625;0.08709716796875;3.89999999015345;391;1 A;
223.945667434592;0.74957275390625;0.0870361328125;3.9099999901282;392;1 A;
223.955667434566;0.749542236328125;0.08697509765625;3.91999999010295;393;1 A;
223.965667434541;0.749542236328125;0.0869140625;3.9299999900777;394;1 A;
223.975667434516;0.74957275390625;0.086822509765625;3.93999999005246;395;1 A;
223.985667434491;0.74951171875;0.0867919921875;3.94999999002721;396;1 A;
223.995667434465;0.749542236328125;0.08673095703125;3.95999999000196;397;1 A;
224.00566743444;0.749542236328125;0.086669921875;3.96999998997671;398;1 A;
224.015667434415;0.749542236328125;0.08660888671875;3.97999998995147;399;1 A;
224.02566743439;0.749603271484375;0.086517333984375;3.98999998992622;400;1 A;
224.035667434364;0.74957275390625;0.086456298828125;3.99999998990097;401;1 A;
224.045667434339;0.749542236328125;0.086395263671875;4.00999998987572;402;1 A;
224.055667434314;0.74957275390625;0.086334228515625;4.01999998985048;403;1 A;
224.065667434289;0.749542236328125;0.086273193359375;4.02999998982523;404;1 A;
224.075667434263;0.74957275390625;0.086212158203125;4.03999998979998;405;1 A;
224.085667434238;0.749542236328125;0.086151123046875;4.04999998977473;406;1 A;
224.095667434213;0.749603271484375;0.086090087890625;4.05999998974949;407;1 A;
224.105667434188;0.749603271484375;0.086029052734375;4.06999998972424;408;1 A;
224.115667434162;0.749603271484375;0.085968017578125;4.07999998969899;409;1 A;
224.125667434137;0.74957275390625;0.085906982421875;4.08999998967374;410;1 A;
224.135667434112;0.749542236328125;0.085845947265625;4.0999999896485;411;1 A;
224.145667434087;0.749542236328125;0.085784912109375;4.10999998962325;412;1 A;
224.155667434061;0.749542236328125;0.085723876953125;4.119999989598;413;1 A;
224.165667434036;0.74957275390625;0.085693359375;4.12999998957275;414;1 A;
224.175667434011;0.749542236328125;0.08563232421875;4.1399999895475;415;1 A;
224.185667433986;0.74957275390625;0.0855712890625;4.14999998952226;416;1 A;
224.19566743396;0.749542236328125;0.08551025390625;4.15999998949701;417;1 A;
224.205667433935;0.74951171875;0.08544921875;4.16999998947176;418;1 A;
224.21566743391;0.74957275390625;0.08538818359375;4.17999998944651;419;1 A;
224.225667433885;0.74951171875;0.0853271484375;4.18999998942127;420;1 A;
224.235667433859;0.74957275390625;0.08526611328125;4.19999998939602;421;1 A;
224.245667433834;0.74957275390625;0.085205078125;4.20999998937077;422;1 A;
224.255667433809;0.749542236328125;0.08514404296875;4.21999998934552;423;1 A;
224.265667433784;0.74951171875;0.085113525390625;4.22999998932028;424;1 A;
224.275667433758;0.749542236328125;0.08502197265625;4.23999998929503;425;1 A;
224.285667433733;0.749542236328125;0.084991455078125;4.24999998926978;426;1 A;
224.295667433708;0.74957275390625;0.084930419921875;4.25999998924453;427;1 A;
224.305667433683;0.749542236328125;0.084869384765625;4.26999998921929;428;1 A;
224.315667433657;0.74957275390625;0.084808349609375;4.27999998919404;429;1 A;
224.325667433632;0.74957275390625;0.084747314453125;4.28999998916879;430;1 A;
224.335667433607;0.749542236328125;0.084716796875;4.29999998914354;431;1 A;
224.345667433582;0.749603271484375;0.08465576171875;4.3099999891183;432;1 A;
224.355667433556;0.749603271484375;0.0845947265625;4.31999998909305;433;1 A;
224.365667433531;0.74957275390625;0.08453369140625;4.3299999890678;434;1 A;
224.375667433506;0.74957275390625;0.08447265625;4.33999998904255;435;1 A;
224.385667433481;0.74957275390625;0.084442138671875;4.34999998901731;436;1 A;
224.395667433455;0.749542236328125;0.084381103515625;4.35999998899206;437;1 A;
224.40566743343;0.749542236328125;0.084320068359375;4.36999998896681;438;1 A;
224.415667433405;0.74957275390625;0.084259033203125;4.37999998894156;439;1 A;
224.42566743338;0.74957275390625;0.084197998046875;4.38999998891632;440;1 A;
224.435667433354;0.749542236328125;0.08416748046875;4.39999998889107;441;1 A;
224.445667433329;0.749603271484375;0.0841064453125;4.40999998886582;442;1 A;
224.455667433304;0.74957275390625;0.08404541015625;4.41999998884057;443;1 A;
224.465667433279;0.749542236328125;0.084014892578125;4.42999998881533;444;1 A;
224.475667433253;0.749603271484375;0.08392333984375;4.43999998879008;445;1 A;
224.485667433228;0.749542236328125;0.083892822265625;4.44999998876483;446;1 A;
224.495667433203;0.749542236328125;0.083831787109375;4.45999998873958;447;1 A;
224.505667433178;0.74957275390625;0.083770751953125;4.46999998871433;448;1 A;
224.515667433152;0.749603271484375;0.083740234375;4.47999998868909;449;1 A;
224.525667433127;0.749603271484375;0.08367919921875;4.48999998866384;450;1 A;
224.535667433102;0.74957275390625;0.0836181640625;4.49999998863859;451;1 A;
224.545667433077;0.749603271484375;0.08355712890625;4.50999998861334;452;1 A;
224.555667433051;0.749542236328125;0.083526611328125;4.5199999885881;453;1 A;
224.565667433026;0.74957275390625;0.083465576171875;4.52999998856285;454;1 A;
224.575667433001;0.749603271484375;0.083404541015625;4.5399999885376;455;1 A;
224.585667432976;0.74951171875;0.0833740234375;4.54999998851235;456;1 A;
224.59566743295;0.749603271484375;0.08331298828125;4.55999998848711;457;1 A;
224.605667432925;0.749603271484375;0.083251953125;4.56999998846186;458;1 A;
224.6156674329;0.749542236328125;0.083221435546875;4.57999998843661;459;1 A;
224.625667432875;0.74957275390625;0.083160400390625;4.58999998841136;460;1 A;
224.635667432849;0.7496337890625;0.083099365234375;4.59999998838612;461;1 A;
224.645667432824;0.74957275390625;0.08306884765625;4.60999998836087;462;1 A;
224.655667432799;0.749542236328125;0.0830078125;4.61999998833562;463;1 A;
224.665667432774;0.749542236328125;0.08294677734375;4.62999998831037;464;1 A;
224.675667432748;0.74957275390625;0.0828857421875;4.63999998828513;465;1 A;
224.685667432723;0.749603271484375;0.082855224609375;4.64999998825988;466;1 A;
224.695667432698;0.74957275390625;0.082794189453125;4.65999998823463;467;1 A;
224.705667432673;0.74951171875;0.082763671875;4.66999998820938;468;1 A;
224.715667432647;0.74957275390625;0.08270263671875;4.67999998818414;469;1 A;
224.725667432622;0.74957275390625;0.0826416015625;4.68999998815889;470;1 A;
224.735667432597;0.749542236328125;0.082611083984375;4.69999998813364;471;1 A;
224.745667432572;0.749603271484375;0.082550048828125;4.70999998810839;472;1 A;
224.755667432546;0.74957275390625;0.082489013671875;4.71999998808315;473;1 A;
224.765667432521;0.749542236328125;0.08245849609375;4.7299999880579;474;1 A;
224.775667432496;0.74957275390625;0.0823974609375;4.73999998803265;475;1 A;
224.785667432471;0.749603271484375;0.082366943359375;4.7499999880074;476;1 A;
224.795667432445;0.749603271484375;0.082305908203125;4.75999998798216;477;1 A;
224.80566743242;0.749603271484375;0.082244873046875;4.76999998795691;478;1 A;
224.815667432395;0.74957275390625;0.08221435546875;4.77999998793166;479;1 A;
224.82566743237;0.74957275390625;0.0821533203125;4.78999998790641;480;1 A;
224.835667432345;0.749603271484375;0.082122802734375;4.79999998788116;481;1 A;
224.845667432319;0.749603271484375;0.082061767578125;4.80999998785592;482;1 A;
224.855667432294;0.749542236328125;0.08203125;4.81999998783067;483;1 A;
224.865667432269;0.74951171875;0.08197021484375;4.82999998780542;484;1 A;
224.875667432244;0.74957275390625;0.0819091796875;4.83999998778017;485;1 A;
224.885667432218;0.749603271484375;0.081878662109375;4.84999998775493;486;1 A;
224.895667432193;0.74951171875;0.081817626953125;4.85999998772968;487;1 A;
224.905667432168;0.749603271484375;0.081787109375;4.86999998770443;488;1 A;
224.915667432143;0.74957275390625;0.08172607421875;4.87999998767918;489;1 A;
224.925667432117;0.749603271484375;0.081695556640625;4.88999998765394;490;1 A;
224.935667432092;0.74957275390625;0.081634521484375;4.89999998762869;491;1 A;
224.945667432067;0.749542236328125;0.08160400390625;4.90999998760344;492;1 A;
224.955667432042;0.74957275390625;0.08154296875;4.91999998757819;493;1 A;
224.965667432016;0.749603271484375;0.081512451171875;4.92999998755295;494;1 A;
224.975667431991;0.74957275390625;0.081451416015625;4.9399999875277;495;1 A;
224.985667431966;0.749603271484375;0.0814208984375;4.94999998750245;496;1 A;
224.995667431941;0.74951171875;0.08135986328125;4.9599999874772;497;1 A;
225.005667431915;0.74957275390625;0.081329345703125;4.96999998745196;498;1 A;
225.01566743189;0.74957275390625;0.081298828125;4.97999998742671;499;1 A;
225.025667431865;0.749542236328125;0.08123779296875;4.98999998740146;500;1 A;
225.03566743184;0.74951171875;0.081207275390625;4.99999998737621;501;1 A;
225.045667431814;0.749542236328125;0.081146240234375;5.00999998735097;502;1 A;
225.055667431789;0.74957275390625;0.08111572265625;5.01999998732572;503;1 A;
225.065667431764;0.749603271484375;0.0810546875;5.02999998730047;504;1 A;
225.075667431739;0.749603271484375;0.081024169921875;5.03999998727522;505;1 A;
225.085667431713;0.74957275390625;0.080963134765625;5.04999998724998;506;1 A;
225.095667431688;0.749603271484375;0.0809326171875;5.05999998722473;507;1 A;
225.105667431663;0.74957275390625;0.08087158203125;5.06999998719948;508;1 A;
225.115667431638;0.749542236328125;0.080841064453125;5.07999998717423;509;1 A;
225.125667431612;0.74957275390625;0.080780029296875;5.08999998714899;510;1 A;
225.135667431587;0.749542236328125;0.08074951171875;5.09999998712374;511;1 A;
225.145667431562;0.74951171875;0.080718994140625;5.10999998709849;512;1 A;
225.155667431537;0.749542236328125;0.080657958984375;5.11999998707324;513;1 A;
225.165667431511;0.749542236328125;0.08062744140625;5.129999987048;514;1 A;
225.175667431486;0.74957275390625;0.080596923828125;5.13999998702275;515;1 A;
225.185667431461;0.749542236328125;0.080535888671875;5.1499999869975;516;1 A;
225.195667431436;0.749542236328125;0.08050537109375;5.15999998697225;517;1 A;
225.20566743141;0.749542236328125;0.0804443359375;5.169999986947;518;1 A;
225.215667431385;0.74957275390625;0.080413818359375;5.17999998692176;519;1 A;
225.22566743136;0.74951171875;0.080352783203125;5.18999998689651;520;1 A;
225.235667431335;0.74951171875;0.080322265625;5.19999998687126;521;1 A;
225.245667431309;0.74957275390625;0.080291748046875;5.20999998684601;522;1 A;
225.255667431284;0.74957275390625;0.080230712890625;5.21999998682077;523;1 A;
225.265667431259;0.74957275390625;0.0802001953125;5.22999998679552;524;1 A;
225.275667431234;0.74957275390625;0.080169677734375;5.23999998677027;525;1 A;
225.285667431208;0.74957275390625;0.08013916015625;5.24999998674502;526;1 A;
225.295667431183;0.7496337890625;0.080078125;5.25999998671978;527;1 A;
225.305667431158;0.74957275390625;0.080047607421875;5.26999998669453;528;1 A;
225.315667431133;0.74957275390625;0.079986572265625;5.27999998666928;529;1 A;
225.325667431107;0.749542236328125;0.0799560546875;5.28999998664403;530;1 A;
225.335667431082;0.749542236328125;0.079925537109375;5.29999998661879;531;1 A;
225.345667431057;0.74957275390625;0.079864501953125;5.30999998659354;532;1 A;
225.355667431032;0.74951171875;0.079833984375;5.31999998656829;533;1 A;
225.365667431006;0.74951171875;0.079803466796875;5.32999998654304;534;1 A;
225.375667430981;0.749603271484375;0.079742431640625;5.3399999865178;535;1 A;
225.385667430956;0.74957275390625;0.0797119140625;5.34999998649255;536;1 A;
225.395667430931;0.749542236328125;0.079681396484375;5.3599999864673;537;1 A;
225.405667430905;0.74957275390625;0.079620361328125;5.36999998644205;538;1 A;
225.41566743088;0.74945068359375;0.07958984375;5.37999998641681;539;1 A;
225.425667430855;0.749603271484375;0.079559326171875;5.38999998639156;540;1 A;
225.43566743083;0.74951171875;0.07952880859375;5.39999998636631;541;1 A;
225.445667430804;0.74951171875;0.0794677734375;5.40999998634106;542;1 A;
225.455667430779;0.749542236328125;0.079437255859375;5.41999998631582;543;1 A;
225.465667430754;0.749603271484375;0.07940673828125;5.42999998629057;544;1 A;
225.475667430729;0.749542236328125;0.079345703125;5.43999998626532;545;1 A;
225.485667430703;0.74957275390625;0.079315185546875;5.44999998624007;546;1 A;
225.495667430678;0.74957275390625;0.07928466796875;5.45999998621483;547;1 A;
225.505667430653;0.74957275390625;0.079254150390625;5.46999998618958;548;1 A;
225.515667430628;0.749542236328125;0.0792236328125;5.47999998616433;549;1 A;
225.525667430602;0.749542236328125;0.07916259765625;5.48999998613908;550;1 A;
225.535667430577;0.7496337890625;0.079132080078125;5.49999998611383;551;1 A;
225.545667430552;0.74957275390625;0.0791015625;5.50999998608859;552;1 A;
225.555667430527;0.749542236328125;0.079071044921875;5.51999998606334;553;1 A;
225.565667430501;0.74957275390625;0.07904052734375;5.52999998603809;554;1 A;
225.575667430476;0.74951171875;0.0789794921875;5.53999998601284;555;1 A;
225.585667430451;0.749542236328125;0.078948974609375;5.5499999859876;556;1 A;
225.595667430426;0.74951171875;0.07891845703125;5.55999998596235;557;1 A;
225.6056674304;0.74957275390625;0.078857421875;5.5699999859371;558;1 A;
225.615667430375;0.749542236328125;0.078826904296875;5.57999998591185;559;1 A;
225.62566743035;0.749603271484375;0.07879638671875;5.58999998588661;560;1 A;
225.635667430325;0.749542236328125;0.078765869140625;5.59999998586136;561;1 A;
225.645667430299;0.749542236328125;0.0787353515625;5.60999998583611;562;1 A;
225.655667430274;0.74951171875;0.07867431640625;5.61999998581086;563;1 A;
225.665667430249;0.749542236328125;0.078643798828125;5.62999998578562;564;1 A;
225.675667430224;0.749542236328125;0.07861328125;5.63999998576037;565;1 A;
225.685667430198;0.749603271484375;0.078582763671875;5.64999998573512;566;1 A;
225.695667430173;0.74957275390625;0.07855224609375;5.65999998570987;567;1 A;
225.705667430148;0.749481201171875;0.0784912109375;5.66999998568463;568;1 A;
225.715667430123;0.749542236328125;0.078460693359375;5.67999998565938;569;1 A;
225.725667430097;0.749542236328125;0.07843017578125;5.68999998563413;570;1 A;
225.735667430072;0.74957275390625;0.078399658203125;5.69999998560888;571;1 A;
225.745667430047;0.749603271484375;0.078369140625;5.70999998558364;572;1 A;
225.755667430022;0.74951171875;0.07830810546875;5.71999998555839;573;1 A;
225.765667429996;0.749542236328125;0.078277587890625;5.72999998553314;574;1 A;
225.775667429971;0.749603271484375;0.0782470703125;5.73999998550789;575;1 A;
225.785667429946;0.74957275390625;0.078216552734375;5.74999998548265;576;1 A;
225.795667429921;0.74957275390625;0.07818603515625;5.7599999854574;577;1 A;
225.805667429895;0.749603271484375;0.078125;5.76999998543215;578;1 A;
225.81566742987;0.74951171875;0.078125;5.7799999854069;579;1 A;
225.825667429845;0.74957275390625;0.07806396484375;5.78999998538166;580;1 A;
225.83566742982;0.749542236328125;0.07806396484375;5.79999998535641;581;1 A;
225.845667429795;0.74957275390625;0.078033447265625;5.80999998533116;582;1 A;
225.855667429769;0.74957275390625;0.077972412109375;5.81999998530591;583;1 A;
225.865667429744;0.74957275390625;0.07794189453125;5.82999998528066;584;1 A;
225.875667429719;0.74957275390625;0.077911376953125;5.83999998525542;585;1 A;
225.885667429694;0.74957275390625;0.077880859375;5.84999998523017;586;1 A;
225.895667429668;0.74957275390625;0.077850341796875;5.85999998520492;587;1 A;
225.905667429643;0.749542236328125;0.07781982421875;5.86999998517967;588;1 A;
225.915667429618;0.749542236328125;0.077789306640625;5.87999998515443;589;1 A;
225.925667429593;0.74957275390625;0.0777587890625;5.88999998512918;590;1 A;
225.935667429567;0.74957275390625;0.077728271484375;5.89999998510393;591;1 A;
225.945667429542;0.749603271484375;0.07769775390625;5.90999998507868;592;1 A;
225.955667429517;0.74957275390625;0.07763671875;5.91999998505344;593;1 A;
225.965667429492;0.74957275390625;0.077606201171875;5.92999998502819;594;1 A;
225.975667429466;0.749542236328125;0.07757568359375;5.93999998500294;595;1 A;
225.985667429441;0.74957275390625;0.077545166015625;5.94999998497769;596;1 A;
225.995667429416;0.749603271484375;0.0775146484375;5.95999998495245;597;1 A;
226.005667429391;0.74957275390625;0.077484130859375;5.9699999849272;598;1 A;
226.015667429365;0.7496337890625;0.07745361328125;5.97999998490195;599;1 A;
226.02566742934;0.74957275390625;0.077423095703125;5.9899999848767;600;1 A;
226.035667429315;0.749542236328125;0.077392578125;5.99999998485146;601;1 A;
226.04566742929;0.749603271484375;0.077362060546875;6.00999998482621;602;1 A;
226.055667429264;0.749542236328125;0.07733154296875;6.01999998480096;603;1 A;
226.065667429239;0.7496337890625;0.077301025390625;6.02999998477571;604;1 A;
226.075667429214;0.74951171875;0.0772705078125;6.03999998475047;605;1 A;
226.085667429189;0.74951171875;0.077239990234375;6.04999998472522;606;1 A;
226.095667429163;0.74957275390625;0.07720947265625;6.05999998469997;607;1 A;
226.105667429138;0.749603271484375;0.077178955078125;6.06999998467472;608;1 A;
226.115667429113;0.74957275390625;0.0771484375;6.07999998464948;609;1 A;
226.125667429088;0.74957275390625;0.077117919921875;6.08999998462423;610;1 A;
226.135667429062;0.749542236328125;0.07708740234375;6.09999998459898;611;1 A;
226.145667429037;0.74951171875;0.077056884765625;6.10999998457373;612;1 A;
226.155667429012;0.74957275390625;0.0770263671875;6.11999998454849;613;1 A;
226.165667428987;0.749542236328125;0.076995849609375;6.12999998452324;614;1 A;
226.175667428961;0.74957275390625;0.07696533203125;6.13999998449799;615;1 A;
226.185667428936;0.749542236328125;0.076934814453125;6.14999998447274;616;1 A;
226.195667428911;0.74957275390625;0.076904296875;6.1599999844475;617;1 A;
226.205667428886;0.749603271484375;0.076873779296875;6.16999998442225;618;1 A;
226.21566742886;0.74957275390625;0.076873779296875;6.179999984397;619;1 A;
226.225667428835;0.74957275390625;0.076812744140625;6.18999998437175;620;1 A;
226.23566742881;0.74957275390625;0.0767822265625;6.1999999843465;621;1 A;
226.245667428785;0.74951171875;0.0767822265625;6.20999998432126;622;1 A;
226.255667428759;0.74951171875;0.076751708984375;6.21999998429601;623;1 A;
226.265667428734;0.74957275390625;0.07672119140625;6.22999998427076;624;1 A;
226.275667428709;0.74957275390625;0.076690673828125;6.23999998424551;625;1 A;
226.285667428684;0.749542236328125;0.07666015625;6.24999998422027;626;1 A;
226.295667428658;0.74957275390625;0.076629638671875;6.25999998419502;627;1 A;
226.305667428633;0.74951171875;0.07659912109375;6.26999998416977;628;1 A;
226.315667428608;0.7496337890625;0.07659912109375;6.27999998414452;629;1 A;
226.325667428583;0.74957275390625;0.076568603515625;6.28999998411928;630;1 A;
226.335667428557;0.74951171875;0.0765380859375;6.29999998409403;631;1 A;
226.345667428532;0.749542236328125;0.076507568359375;6.30999998406878;632;1 A;
226.355667428507;0.749603271484375;0.07647705078125;6.31999998404353;633;1 A;
226.365667428482;0.749603271484375;0.07647705078125;6.32999998401829;634;1 A;
226.375667428456;0.749603271484375;0.076416015625;6.33999998399304;635;1 A;
226.385667428431;0.749603271484375;0.076416015625;6.34999998396779;636;1 A;
226.395667428406;0.7496337890625;0.076385498046875;6.35999998394254;637;1 A;
226.405667428381;0.749603271484375;0.07635498046875;6.3699999839173;638;1 A;
226.415667428355;0.749542236328125;0.076324462890625;6.37999998389205;639;1 A;
226.42566742833;0.74957275390625;0.0762939453125;6.3899999838668;640;1 A;
226.435667428305;0.749603271484375;0.0762939453125;6.39999998384155;641;1 A;
226.44566742828;0.74957275390625;0.076263427734375;6.40999998381631;642;1 A;
226.455667428254;0.749603271484375;0.07623291015625;6.41999998379106;643;1 A;
226.465667428229;0.749664306640625;0.07623291015625;6.42999998376581;644;1 A;
226.475667428204;0.749542236328125;0.076202392578125;6.43999998374056;645;1 A;
226.485667428179;0.749542236328125;0.076171875;6.44999998371532;646;1 A;
226.495667428153;0.749603271484375;0.076141357421875;6.45999998369007;647;1 A;
226.505667428128;0.749603271484375;0.07611083984375;6.46999998366482;648;1 A;
226.515667428103;0.749542236328125;0.07611083984375;6.47999998363957;649;1 A;
226.525667428078;0.74951171875;0.076080322265625;6.48999998361433;650;1 A;
226.535667428052;0.749542236328125;0.076080322265625;6.49999998358908;651;1 A;
226.545667428027;0.74951171875;0.0760498046875;6.50999998356383;652;1 A;
226.555667428002;0.749603271484375;0.076019287109375;6.51999998353858;653;1 A;
226.565667427977;0.749603271484375;0.076019287109375;6.52999998351333;654;1 A;
226.575667427951;0.74957275390625;0.07598876953125;6.53999998348809;655;1 A;
226.585667427926;0.74957275390625;0.075958251953125;6.54999998346284;656;1 A;
226.595667427901;0.749603271484375;0.075927734375;6.55999998343759;657;1 A;
226.605667427876;0.74957275390625;0.075927734375;6.56999998341234;658;1 A;
226.61566742785;0.749542236328125;0.075897216796875;6.5799999833871;659;1 A;
226.625667427825;0.749603271484375;0.07586669921875;6.58999998336185;660;1 A;
226.6356674278;0.74957275390625;0.07586669921875;6.5999999833366;661;1 A;
226.645667427775;0.749603271484375;0.075836181640625;6.60999998331135;662;1 A;
226.655667427749;0.74957275390625;0.075836181640625;6.61999998328611;663;1 A;
226.665667427724;0.74951171875;0.0758056640625;6.62999998326086;664;1 A;
226.675667427699;0.74957275390625;0.0758056640625;6.63999998323561;665;1 A;
226.685667427674;0.74957275390625;0.075775146484375;6.64999998321036;666;1 A;
226.695667427648;0.749542236328125;0.075775146484375;6.65999998318512;667;1 A;
226.705667427623;0.749603271484375;0.07574462890625;6.66999998315987;668;1 A;
226.715667427598;0.749542236328125;0.07574462890625;6.67999998313462;669;1 A;
226.725667427573;0.74957275390625;0.075714111328125;6.68999998310937;670;1 A;
226.735667427547;0.749603271484375;0.07568359375;6.69999998308413;671;1 A;
226.745667427522;0.74951171875;0.075653076171875;6.70999998305888;672;1 A;
226.755667427497;0.749603271484375;0.075653076171875;6.71999998303363;673;1 A;
226.765667427472;0.749542236328125;0.075653076171875;6.72999998300838;674;1 A;
226.775667427446;0.749542236328125;0.07562255859375;6.73999998298314;675;1 A;
226.785667427421;0.749542236328125;0.075592041015625;6.74999998295789;676;1 A;
226.795667427396;0.74957275390625;0.075592041015625;6.75999998293264;677;1 A;
226.805667427371;0.74957275390625;0.0755615234375;6.76999998290739;678;1 A;
226.815667427345;0.749542236328125;0.0755615234375;6.77999998288215;679;1 A;
226.82566742732;0.74957275390625;0.075531005859375;6.7899999828569;680;1 A;
226.835667427295;0.74957275390625;0.075531005859375;6.79999998283165;681;1 A;
226.84566742727;0.749542236328125;0.07550048828125;6.8099999828064;682;1 A;
226.855667427244;0.749603271484375;0.075469970703125;6.81999998278116;683;1 A;
226.865667427219;0.74957275390625;0.075469970703125;6.82999998275591;684;1 A;
226.875667427194;0.749542236328125;0.075469970703125;6.83999998273066;685;1 A;
226.885667427169;0.749542236328125;0.075439453125;6.84999998270541;686;1 A;
226.895667427144;0.749664306640625;0.075439453125;6.85999998268016;687;1 A;
226.905667427118;0.749603271484375;0.075408935546875;6.86999998265492;688;1 A;
226.915667427093;0.749542236328125;0.075408935546875;6.87999998262967;689;1 A;
226.925667427068;0.749542236328125;0.07537841796875;6.88999998260442;690;1 A;
226.935667427043;0.74957275390625;0.07537841796875;6.89999998257917;691;1 A;
226.945667427017;0.74957275390625;0.075347900390625;6.90999998255393;692;1 A;
226.955667426992;0.74957275390625;0.075347900390625;6.91999998252868;693;1 A;
226.965667426967;0.749603271484375;0.075347900390625;6.92999998250343;694;1 A;
226.975667426942;0.74951171875;0.0753173828125;6.93999998247818;695;1 A;
226.985667426916;0.749542236328125;0.0753173828125;6.94999998245294;696;1 A;
226.995667426891;0.749481201171875;0.075286865234375;6.95999998242769;697;1 A;
227.005667426866;0.749542236328125;0.075286865234375;6.96999998240244;698;1 A;
227.015667426841;0.74957275390625;0.075286865234375;6.97999998237719;699;1 A;
227.025667426815;0.74957275390625;0.07525634765625;6.98999998235195;700;1 A;
227.03566742679;0.749481201171875;0.075225830078125;6.9999999823267;701;1 A;
227.045667426765;0.749542236328125;0.075225830078125;7.00999998230145;702;1 A;
227.05566742674;0.749542236328125;0.0751953125;7.0199999822762;703;1 A;
227.065667426714;0.74957275390625;0.0751953125;7.02999998225096;704;1 A;
227.075667426689;0.74957275390625;0.0751953125;7.03999998222571;705;1 A;
227.085667426664;0.749603271484375;0.075164794921875;7.04999998220046;706;1 A;
227.095667426639;0.749603271484375;0.075164794921875;7.05999998217521;707;1 A;
227.105667426613;0.749603271484375;0.07513427734375;7.06999998214997;708;1 A;
227.115667426588;0.74951171875;0.07513427734375;7.07999998212472;709;1 A;
227.125667426563;0.749542236328125;0.07513427734375;7.08999998209947;710;1 A;
227.135667426538;0.749603271484375;0.075103759765625;7.09999998207422;711;1 A;
227.145667426512;0.749542236328125;0.075103759765625;7.10999998204898;712;1 A;
227.155667426487;0.74957275390625;0.0750732421875;7.11999998202373;713;1 A;
227.165667426462;0.749603271484375;0.0750732421875;7.12999998199848;714;1 A;
227.175667426437;0.74957275390625;0.0750732421875;7.13999998197323;715;1 A;
227.185667426411;0.74957275390625;0.075042724609375;7.14999998194799;716;1 A;
227.195667426386;0.74957275390625;0.075042724609375;7.15999998192274;717;1 A;
227.205667426361;0.749603271484375;0.07501220703125;7.16999998189749;718;1 A;
227.215667426336;0.7496337890625;0.07501220703125;7.17999998187224;719;1 A;
227.22566742631;0.74957275390625;0.07501220703125;7.189999981847;720;1 A;
227.235667426285;0.74957275390625;0.074981689453125;7.19999998182175;721;1 A;
227.24566742626;0.749603271484375;0.074981689453125;7.2099999817965;722;1 A;
227.255667426235;0.749542236328125;0.074951171875;7.21999998177125;723;1 A;
227.265667426209;0.749603271484375;0.074981689453125;7.229999981746;724;1 A;
227.275667426184;0.74957275390625;0.074951171875;7.23999998172076;725;1 A;
227.285667426159;0.749542236328125;0.074951171875;7.24999998169551;726;1 A;
227.295667426134;0.749542236328125;0.074951171875;7.25999998167026;727;1 A;
227.305667426108;0.74957275390625;0.074920654296875;7.26999998164501;728;1 A;
227.315667426083;0.749542236328125;0.074920654296875;7.27999998161977;729;1 A;
227.325667426058;0.74951171875;0.07489013671875;7.28999998159452;730;1 A;
227.335667426033;0.74951171875;0.07489013671875;7.29999998156927;731;1 A;
227.345667426007;0.749542236328125;0.07489013671875;7.30999998154402;732;1 A;
227.355667425982;0.749542236328125;0.074859619140625;7.31999998151878;733;1 A;
227.365667425957;0.74957275390625;0.074859619140625;7.32999998149353;734;1 A;
227.375667425932;0.74957275390625;0.074859619140625;7.33999998146828;735;1 A;
227.385667425906;0.74951171875;0.0748291015625;7.34999998144303;736;1 A;
227.395667425881;0.749542236328125;0.0748291015625;7.35999998141779;737;1 A;
227.405667425856;0.74957275390625;0.074798583984375;7.36999998139254;738;1 A;
227.415667425831;0.74957275390625;0.074798583984375;7.37999998136729;739;1 A;
227.425667425805;0.74957275390625;0.07476806640625;7.38999998134204;740;1 A;
227.43566742578;0.74957275390625;0.07476806640625;7.3999999813168;741;1 A;
227.445667425755;0.749542236328125;0.07476806640625;7.40999998129155;742;1 A;
227.45566742573;0.749542236328125;0.074737548828125;7.4199999812663;743;1 A;
227.465667425704;0.749481201171875;0.074737548828125;7.42999998124105;744;1 A;
227.475667425679;0.74957275390625;0.07470703125;7.43999998121581;745;1 A;
227.485667425654;0.749603271484375;0.07470703125;7.44999998119056;746;1 A;
227.495667425629;0.7496337890625;0.074676513671875;7.45999998116531;747;1 A;
227.505667425603;0.74951171875;0.074676513671875;7.46999998114006;748;1 A;
227.515667425578;0.74957275390625;0.074676513671875;7.47999998111482;749;1 A;
227.525667425553;0.749603271484375;0.07464599609375;7.48999998108957;750;1 A;
227.535667425528;0.74957275390625;0.07464599609375;7.49999998106432;751;1 A;
227.545667425502;0.74957275390625;0.074615478515625;7.50999998103907;752;1 A;
227.555667425477;0.74957275390625;0.0745849609375;7.51999998101383;753;1 A;
227.565667425452;0.749542236328125;0.074615478515625;7.52999998098858;754;1 A;
227.575667425427;0.74957275390625;0.0745849609375;7.53999998096333;755;1 A;
227.585667425401;0.749542236328125;0.074554443359375;7.54999998093808;756;1 A;
227.595667425376;0.74957275390625;0.074554443359375;7.55999998091283;757;1 A;
227.605667425351;0.749603271484375;0.07452392578125;7.56999998088759;758;1 A;
227.615667425326;0.74957275390625;0.07452392578125;7.57999998086234;759;1 A;
227.6256674253;0.74957275390625;0.07452392578125;7.58999998083709;760;1 A;
227.635667425275;0.74957275390625;0.074493408203125;7.59999998081184;761;1 A;
227.64566742525;0.74957275390625;0.074493408203125;7.6099999807866;762;1 A;
227.655667425225;0.749542236328125;0.074462890625;7.61999998076135;763;1 A;
227.665667425199;0.74951171875;0.074462890625;7.6299999807361;764;1 A;
227.675667425174;0.749542236328125;0.074432373046875;7.63999998071085;765;1 A;
227.685667425149;0.74957275390625;0.074432373046875;7.64999998068561;766;1 A;
227.695667425124;0.74957275390625;0.074432373046875;7.65999998066036;767;1 A;
227.705667425098;0.749603271484375;0.07440185546875;7.66999998063511;768;1 A;
227.715667425073;0.749603271484375;0.07440185546875;7.67999998060986;769;1 A;
227.725667425048;0.74957275390625;0.074371337890625;7.68999998058462;770;1 A;
227.735667425023;0.749542236328125;0.074371337890625;7.69999998055937;771;1 A;
227.745667424997;0.74957275390625;0.0743408203125;7.70999998053412;772;1 A;
227.755667424972;0.74951171875;0.0743408203125;7.71999998050887;773;1 A;
227.765667424947;0.749603271484375;0.0743408203125;7.72999998048363;774;1 A;
227.775667424922;0.74957275390625;0.074310302734375;7.73999998045838;775;1 A;
227.785667424896;0.74957275390625;0.07427978515625;7.74999998043313;776;1 A;
227.795667424871;0.749542236328125;0.07427978515625;7.75999998040788;777;1 A;
227.805667424846;0.74951171875;0.074249267578125;7.76999998038264;778;1 A;
227.815667424821;0.749542236328125;0.074249267578125;7.77999998035739;779;1 A;
227.825667424795;0.749542236328125;0.074249267578125;7.78999998033214;780;1 A;
227.83566742477;0.749542236328125;0.07421875;7.79999998030689;781;1 A;
227.845667424745;0.74957275390625;0.07421875;7.80999998028165;782;1 A;
227.85566742472;0.749542236328125;0.074188232421875;7.8199999802564;783;1 A;
227.865667424694;0.749542236328125;0.074188232421875;7.82999998023115;784;1 A;
227.875667424669;0.749542236328125;0.074188232421875;7.8399999802059;785;1 A;
227.885667424644;0.749542236328125;0.07415771484375;7.84999998018066;786;1 A;
227.895667424619;0.749542236328125;0.07415771484375;7.85999998015541;787;1 A;
227.905667424594;0.74951171875;0.074127197265625;7.86999998013016;788;1 A;
227.915667424568;0.749542236328125;0.074127197265625;7.87999998010491;789;1 A;
227.925667424543;0.74957275390625;0.0740966796875;7.88999998007966;790;1 A;
227.935667424518;0.74951171875;0.0740966796875;7.89999998005442;791;1 A;
227.945667424493;0.749542236328125;0.074066162109375;7.90999998002917;792;1 A;
227.955667424467;0.74951171875;0.074066162109375;7.91999998000392;793;1 A;
227.965667424442;0.74957275390625;0.074066162109375;7.92999997997867;794;1 A;
227.975667424417;0.749542236328125;0.07403564453125;7.93999997995343;795;1 A;
227.985667424392;0.749542236328125;0.07403564453125;7.94999997992818;796;1 A;
227.995667424366;0.74951171875;0.074005126953125;7.95999997990293;797;1 A;
228.005667424341;0.74957275390625;0.074005126953125;7.96999997987768;798;1 A;
228.015667424316;0.749542236328125;0.074005126953125;7.97999997985244;799;1 A;
228.025667424291;0.749542236328125;0.073974609375;7.98999997982719;800;1 A;
228.035667424265;0.74957275390625;0.073974609375;7.99999997980194;801;1 A;
228.04566742424;0.74957275390625;0.073944091796875;8.00999997977669;802;1 A;
228.055667424215;0.74957275390625;0.073944091796875;8.01999997975145;803;1 A;
228.06566742419;0.74957275390625;0.073944091796875;8.0299999797262;804;1 A;
228.075667424164;0.74957275390625;0.07391357421875;8.03999997970095;805;1 A;
228.085667424139;0.74957275390625;0.07391357421875;8.0499999796757;806;1 A;
228.095667424114;0.74957275390625;0.073883056640625;8.05999997965046;807;1 A;
228.105667424089;0.749542236328125;0.073883056640625;8.06999997962521;808;1 A;
228.115667424063;0.74957275390625;0.0738525390625;8.07999997959996;809;1 A;
228.125667424038;0.74957275390625;0.0738525390625;8.08999997957471;810;1 A;
228.135667424013;0.74957275390625;0.073822021484375;8.09999997954947;811;1 A;
228.145667423988;0.749603271484375;0.073822021484375;8.10999997952422;812;1 A;
228.155667423962;0.749542236328125;0.073822021484375;8.11999997949897;813;1 A;
228.165667423937;0.749542236328125;0.07379150390625;8.12999997947372;814;1 A;
228.175667423912;0.74957275390625;0.07379150390625;8.13999997944848;815;1 A;
228.185667423887;0.749603271484375;0.07379150390625;8.14999997942323;816;1 A;
228.195667423861;0.74957275390625;0.073760986328125;8.15999997939798;817;1 A;
228.205667423836;0.749542236328125;0.07373046875;8.16999997937273;818;1 A;
228.215667423811;0.749542236328125;0.07373046875;8.17999997934749;819;1 A;
228.225667423786;0.74957275390625;0.07373046875;8.18999997932224;820;1 A;
228.23566742376;0.74951171875;0.073699951171875;8.19999997929699;821;1 A;
228.245667423735;0.749542236328125;0.073699951171875;8.20999997927174;822;1 A;
228.25566742371;0.74951171875;0.07366943359375;8.2199999792465;823;1 A;
228.265667423685;0.749542236328125;0.07366943359375;8.22999997922125;824;1 A;
228.275667423659;0.74957275390625;0.073638916015625;8.239999979196;825;1 A;
228.285667423634;0.749603271484375;0.073638916015625;8.24999997917075;826;1 A;
228.295667423609;0.74957275390625;0.073638916015625;8.2599999791455;827;1 A;
228.305667423584;0.749481201171875;0.0736083984375;8.26999997912026;828;1 A;
228.315667423558;0.74957275390625;0.0736083984375;8.27999997909501;829;1 A;
228.325667423533;0.74957275390625;0.073577880859375;8.28999997906976;830;1 A;
228.335667423508;0.749603271484375;0.073577880859375;8.29999997904451;831;1 A;
228.345667423483;0.74951171875;0.073577880859375;8.30999997901927;832;1 A;
228.355667423457;0.749542236328125;0.07354736328125;8.31999997899402;833;1 A;
228.365667423432;0.749603271484375;0.07354736328125;8.32999997896877;834;1 A;
228.375667423407;0.74957275390625;0.073516845703125;8.33999997894352;835;1 A;
228.385667423382;0.74951171875;0.073516845703125;8.34999997891828;836;1 A;
228.395667423356;0.74957275390625;0.073486328125;8.35999997889303;837;1 A;
228.405667423331;0.749603271484375;0.073486328125;8.36999997886778;838;1 A;
228.415667423306;0.74957275390625;0.073486328125;8.37999997884253;839;1 A;
228.425667423281;0.749542236328125;0.073455810546875;8.38999997881729;840;1 A;
228.435667423255;0.74957275390625;0.073455810546875;8.39999997879204;841;1 A;
228.44566742323;0.74957275390625;0.07342529296875;8.40999997876679;842;1 A;
228.455667423205;0.74957275390625;0.07342529296875;8.41999997874154;843;1 A;
228.46566742318;0.74957275390625;0.07342529296875;8.4299999787163;844;1 A;
228.475667423154;0.74957275390625;0.073394775390625;8.43999997869105;845;1 A;
228.485667423129;0.74957275390625;0.073394775390625;8.4499999786658;846;1 A;
228.495667423104;0.7496337890625;0.0733642578125;8.45999997864055;847;1 A;
228.505667423079;0.749542236328125;0.073333740234375;8.46999997861531;848;1 A;
228.515667423053;0.74957275390625;0.073333740234375;8.47999997859006;849;1 A;
228.525667423028;0.74957275390625;0.073333740234375;8.48999997856481;850;1 A;
228.535667423003;0.74957275390625;0.07330322265625;8.49999997853956;851;1 A;
228.545667422978;0.74957275390625;0.07330322265625;8.50999997851432;852;1 A;
228.555667422952;0.7496337890625;0.073272705078125;8.51999997848907;853;1 A;
228.565667422927;0.74951171875;0.073272705078125;8.52999997846382;854;1 A;
228.575667422902;0.74951171875;0.0732421875;8.53999997843857;855;1 A;
228.585667422877;0.74957275390625;0.0732421875;8.54999997841333;856;1 A;
228.595667422851;0.749603271484375;0.073211669921875;8.55999997838808;857;1 A;
228.605667422826;0.74957275390625;0.073211669921875;8.56999997836283;858;1 A;
228.615667422801;0.749542236328125;0.073211669921875;8.57999997833758;859;1 A;
228.625667422776;0.74957275390625;0.07318115234375;8.58999997831233;860;1 A;
228.63566742275;0.749603271484375;0.07318115234375;8.59999997828709;861;1 A;
228.645667422725;0.74957275390625;0.073150634765625;8.60999997826184;862;1 A;
228.6556674227;0.749542236328125;0.073150634765625;8.61999997823659;863;1 A;
228.665667422675;0.7496337890625;0.0731201171875;8.62999997821134;864;1 A;
228.675667422649;0.749664306640625;0.0731201171875;8.6399999781861;865;1 A;
228.685667422624;0.74951171875;0.073089599609375;8.64999997816085;866;1 A;
228.695667422599;0.749542236328125;0.073089599609375;8.6599999781356;867;1 A;
228.705667422574;0.74957275390625;0.07305908203125;8.66999997811035;868;1 A;
228.715667422548;0.749603271484375;0.07305908203125;8.67999997808511;869;1 A;
228.725667422523;0.74957275390625;0.07305908203125;8.68999997805986;870;1 A;
228.735667422498;0.749603271484375;0.073028564453125;8.69999997803461;871;1 A;
228.745667422473;0.749603271484375;0.073028564453125;8.70999997800936;872;1 A;
228.755667422447;0.749603271484375;0.072998046875;8.71999997798412;873;1 A;
228.765667422422;0.74951171875;0.072998046875;8.72999997795887;874;1 A;
228.775667422397;0.749542236328125;0.072967529296875;8.73999997793362;875;1 A;
228.785667422372;0.74957275390625;0.072967529296875;8.74999997790837;876;1 A;
228.795667422346;0.74951171875;0.07293701171875;8.75999997788313;877;1 A;
228.805667422321;0.749542236328125;0.07293701171875;8.76999997785788;878;1 A;
228.815667422296;0.74957275390625;0.07293701171875;8.77999997783263;879;1 A;
228.825667422271;0.749542236328125;0.072906494140625;8.78999997780738;880;1 A;
228.835667422245;0.749542236328125;0.0728759765625;8.79999997778214;881;1 A;
228.84566742222;0.74957275390625;0.0728759765625;8.80999997775689;882;1 A;
228.855667422195;0.749603271484375;0.072845458984375;8.81999997773164;883;1 A;
228.86566742217;0.74957275390625;0.072845458984375;8.82999997770639;884;1 A;
228.875667422144;0.74957275390625;0.07281494140625;8.83999997768115;885;1 A;
228.885667422119;0.749603271484375;0.07281494140625;8.8499999776559;886;1 A;
228.895667422094;0.74957275390625;0.072784423828125;8.85999997763065;887;1 A;
228.905667422069;0.749603271484375;0.072784423828125;8.8699999776054;888;1 A;
228.915667422043;0.749542236328125;0.072784423828125;8.87999997758016;889;1 A;
228.925667422018;0.749542236328125;0.07275390625;8.88999997755491;890;1 A;
228.935667421993;0.749603271484375;0.07275390625;8.89999997752966;891;1 A;
228.945667421968;0.74957275390625;0.072723388671875;8.90999997750441;892;1 A;
228.955667421943;0.749542236328125;0.072723388671875;8.91999997747916;893;1 A;
228.965667421917;0.74957275390625;0.07269287109375;8.92999997745392;894;1 A;
228.975667421892;0.749603271484375;0.07269287109375;8.93999997742867;895;1 A;
228.985667421867;0.749664306640625;0.072662353515625;8.94999997740342;896;1 A;
228.995667421842;0.74957275390625;0.072662353515625;8.95999997737817;897;1 A;
229.005667421816;0.74957275390625;0.0726318359375;8.96999997735293;898;1 A;
229.015667421791;0.74951171875;0.0726318359375;8.97999997732768;899;1 A;
229.025667421766;0.74957275390625;0.072601318359375;8.98999997730243;900;1 A;
229.035667421741;0.74957275390625;0.072601318359375;8.99999997727718;901;1 A;
229.045667421715;0.749603271484375;0.07257080078125;9.00999997725194;902;1 A;
229.05566742169;0.749542236328125;0.07257080078125;9.01999997722669;903;1 A;
229.065667421665;0.74957275390625;0.072540283203125;9.02999997720144;904;1 A;
229.07566742164;0.749542236328125;0.072540283203125;9.03999997717619;905;1 A;
229.085667421614;0.749481201171875;0.072509765625;9.04999997715095;906;1 A;
229.095667421589;0.74957275390625;0.072509765625;9.0599999771257;907;1 A;
229.105667421564;0.74957275390625;0.072479248046875;9.06999997710045;908;1 A;
229.115667421539;0.74957275390625;0.072479248046875;9.0799999770752;909;1 A;
229.125667421513;0.74957275390625;0.07244873046875;9.08999997704996;910;1 A;
229.135667421488;0.749542236328125;0.07244873046875;9.09999997702471;911;1 A;
229.145667421463;0.74957275390625;0.072418212890625;9.10999997699946;912;1 A;
229.155667421438;0.74957275390625;0.0723876953125;9.11999997697421;913;1 A;
229.165667421412;0.74957275390625;0.0723876953125;9.12999997694897;914;1 A;
229.175667421387;0.74957275390625;0.0723876953125;9.13999997692372;915;1 A;
229.185667421362;0.74957275390625;0.072357177734375;9.14999997689847;916;1 A;
229.195667421337;0.74957275390625;0.072357177734375;9.15999997687322;917;1 A;
229.205667421311;0.749542236328125;0.07232666015625;9.16999997684798;918;1 A;
229.215667421286;0.749542236328125;0.07232666015625;9.17999997682273;919;1 A;
229.225667421261;0.74957275390625;0.072296142578125;9.18999997679748;920;1 A;
229.235667421236;0.749603271484375;0.072296142578125;9.19999997677223;921;1 A;
229.24566742121;0.749603271484375;0.072265625;9.20999997674699;922;1 A;
229.255667421185;0.74957275390625;0.072235107421875;9.21999997672174;923;1 A;
229.26566742116;0.749603271484375;0.072235107421875;9.22999997669649;924;1 A;
229.275667421135;0.74957275390625;0.07220458984375;9.23999997667124;925;1 A;
229.285667421109;0.749481201171875;0.07220458984375;9.249999976646;926;1 A;
229.295667421084;0.74957275390625;0.072174072265625;9.25999997662075;927;1 A;
229.305667421059;0.74957275390625;0.072174072265625;9.2699999765955;928;1 A;
229.315667421034;0.749603271484375;0.0721435546875;9.27999997657025;929;1 A;
229.325667421008;0.74957275390625;0.0721435546875;9.289999976545;930;1 A;
229.335667420983;0.749542236328125;0.072113037109375;9.29999997651976;931;1 A;
229.345667420958;0.7496337890625;0.072113037109375;9.30999997649451;932;1 A;
229.355667420933;0.749542236328125;0.07208251953125;9.31999997646926;933;1 A;
229.365667420907;0.749542236328125;0.07208251953125;9.32999997644401;934;1 A;
229.375667420882;0.749603271484375;0.072052001953125;9.33999997641877;935;1 A;
229.385667420857;0.749542236328125;0.072052001953125;9.34999997639352;936;1 A;
229.395667420832;0.749542236328125;0.072021484375;9.35999997636827;937;1 A;
229.405667420806;0.749542236328125;0.072021484375;9.36999997634302;938;1 A;
229.415667420781;0.749603271484375;0.072021484375;9.37999997631778;939;1 A;
229.425667420756;0.749542236328125;0.071990966796875;9.38999997629253;940;1 A;
229.435667420731;0.749542236328125;0.07196044921875;9.39999997626728;941;1 A;
229.445667420705;0.749542236328125;0.07196044921875;9.40999997624203;942;1 A;
229.45566742068;0.749603271484375;0.071929931640625;9.41999997621679;943;1 A;
229.465667420655;0.74957275390625;0.071929931640625;9.42999997619154;944;1 A;
229.47566742063;0.7496337890625;0.0718994140625;9.43999997616629;945;1 A;
229.485667420604;0.749542236328125;0.0718994140625;9.44999997614104;946;1 A;
229.495667420579;0.749603271484375;0.0718994140625;9.4599999761158;947;1 A;
229.505667420554;0.749603271484375;0.071868896484375;9.46999997609055;948;1 A;
229.515667420529;0.749603271484375;0.071868896484375;9.4799999760653;949;1 A;
229.525667420503;0.749603271484375;0.07183837890625;9.48999997604005;950;1 A;
229.535667420478;0.74957275390625;0.07183837890625;9.49999997601481;951;1 A;
229.545667420453;0.749542236328125;0.07183837890625;9.50999997598956;952;1 A;
229.555667420428;0.74951171875;0.071807861328125;9.51999997596431;953;1 A;
229.565667420402;0.749542236328125;0.071807861328125;9.52999997593906;954;1 A;
229.575667420377;0.749603271484375;0.07177734375;9.53999997591382;955;1 A;
229.585667420352;0.74957275390625;0.07177734375;9.54999997588857;956;1 A;
229.595667420327;0.74957275390625;0.07177734375;9.55999997586332;957;1 A;
229.605667420301;0.74957275390625;0.071746826171875;9.56999997583807;958;1 A;
229.615667420276;0.74957275390625;0.071746826171875;9.57999997581283;959;1 A;
229.625667420251;0.749603271484375;0.07171630859375;9.58999997578758;960;1 A;
229.635667420226;0.74957275390625;0.07171630859375;9.59999997576233;961;1 A;
229.6456674202;0.74951171875;0.07171630859375;9.60999997573708;962;1 A;
229.655667420175;0.749603271484375;0.071685791015625;9.61999997571183;963;1 A;
229.66566742015;0.749542236328125;0.071685791015625;9.62999997568659;964;1 A;
229.675667420125;0.74957275390625;0.0716552734375;9.63999997566134;965;1 A;
229.685667420099;0.74957275390625;0.0716552734375;9.64999997563609;966;1 A;
229.695667420074;0.74951171875;0.0716552734375;9.65999997561084;967;1 A;
229.705667420049;0.7496337890625;0.071624755859375;9.6699999755856;968;1 A;
229.715667420024;0.74951171875;0.071624755859375;9.67999997556035;969;1 A;
229.725667419998;0.74957275390625;0.071624755859375;9.6899999755351;970;1 A;
229.735667419973;0.74951171875;0.07159423828125;9.69999997550985;971;1 A;
229.745667419948;0.749542236328125;0.07159423828125;9.70999997548461;972;1 A;
229.755667419923;0.74957275390625;0.071563720703125;9.71999997545936;973;1 A;
229.765667419897;0.74957275390625;0.071563720703125;9.72999997543411;974;1 A;
229.775667419872;0.749542236328125;0.071563720703125;9.73999997540886;975;1 A;
229.785667419847;0.74957275390625;0.071533203125;9.74999997538362;976;1 A;
229.795667419822;0.74957275390625;0.071533203125;9.75999997535837;977;1 A;
229.805667419796;0.749603271484375;0.071502685546875;9.76999997533312;978;1 A;
229.815667419771;0.749603271484375;0.071502685546875;9.77999997530787;979;1 A;
229.825667419746;0.74951171875;0.071502685546875;9.78999997528263;980;1 A;
229.835667419721;0.74957275390625;0.071502685546875;9.79999997525738;981;1 A;
229.845667419695;0.749603271484375;0.071502685546875;9.80999997523213;982;1 A;
229.85566741967;0.74957275390625;0.07147216796875;9.81999997520688;983;1 A;
229.865667419645;0.74957275390625;0.07147216796875;9.82999997518164;984;1 A;
229.87566741962;0.74957275390625;0.071441650390625;9.83999997515639;985;1 A;
229.885667419594;0.749542236328125;0.071441650390625;9.84999997513114;986;1 A;
229.895667419569;0.749542236328125;0.071441650390625;9.85999997510589;987;1 A;
229.905667419544;0.749542236328125;0.0714111328125;9.86999997508065;988;1 A;
229.915667419519;0.74957275390625;0.0714111328125;9.8799999750554;989;1 A;
229.925667419493;0.749542236328125;0.0714111328125;9.88999997503015;990;1 A;
229.935667419468;0.749542236328125;0.0714111328125;9.8999999750049;991;1 A;
229.945667419443;0.74951171875;0.071380615234375;9.90999997497966;992;1 A;
229.955667419418;0.749603271484375;0.071380615234375;9.91999997495441;993;1 A;
229.965667419393;0.74957275390625;0.071380615234375;9.92999997492916;994;1 A;
229.975667419367;0.74957275390625;0.07135009765625;9.93999997490391;995;1 A;
229.985667419342;0.749542236328125;0.07135009765625;9.94999997487866;996;1 A;
229.995667419317;0.749603271484375;0.07135009765625;9.95999997485342;997;1 A;
230.005667419292;0.749542236328125;0.071319580078125;9.96999997482817;998;1 A;
230.015667419266;0.749603271484375;0.071319580078125;9.97999997480292;999;1 A;
230.025667419241;0.749603271484375;0.071319580078125;9.98999997477767;1000;1 A;
