Time (s);WE(1).Potential (V);WE(1).Current (A);Corrected time (s);Index;Current range;Overload
291.769204263354;0.694915771484375;2.2015380859375;0;1;1 A;Current overload
291.779204263328;0.8013916015625;1.451416015625;0.00999999997475243;2;1 A;
291.789204263303;0.8001708984375;1.08917236328125;0.0199999999495049;3;1 A;
291.799204263278;0.79986572265625;0.904541015625;0.0299999999242573;4;1 A;
291.809204263253;0.8001708984375;0.78033447265625;0.0399999998990097;5;1 A;
291.819204263227;0.799560546875;0.68389892578125;0.0499999998737621;6;1 A;
291.829204263202;0.8001708984375;0.60699462890625;0.0599999998485146;7;1 A;
291.839204263177;0.79986572265625;0.54443359375;0.069999999823267;8;1 A;
291.849204263152;0.8001708984375;0.49560546875;0.0799999997980194;9;1 A;
291.859204263126;0.79986572265625;0.458282470703125;0.0899999997727718;10;1 A;
291.869204263101;0.79986572265625;0.4307861328125;0.0999999997475243;11;1 A;
291.879204263076;0.79925537109375;0.409759521484375;0.109999999722277;12;1 A;
291.889204263051;0.79986572265625;0.392120361328125;0.119999999697029;13;1 A;
291.899204263025;0.8001708984375;0.376953125;0.129999999671782;14;1 A;
291.909204263;0.799560546875;0.364166259765625;0.139999999646534;15;1 A;
291.919204262975;0.79986572265625;0.35345458984375;0.149999999621286;16;1 A;
291.92920426295;0.799560546875;0.344146728515625;0.159999999596039;17;1 A;
291.939204262924;0.79986572265625;0.33587646484375;0.169999999570791;18;1 A;
291.949204262899;0.79986572265625;0.32843017578125;0.179999999545544;19;1 A;
291.959204262874;0.8001708984375;0.321685791015625;0.189999999520296;20;1 A;
291.969204262849;0.799560546875;0.31549072265625;0.199999999495049;21;1 A;
291.979204262823;0.79986572265625;0.309814453125;0.209999999469801;22;1 A;
291.989204262798;0.799560546875;0.3045654296875;0.219999999444553;23;1 A;
291.999204262773;0.79986572265625;0.29974365234375;0.229999999419306;24;1 A;
292.009204262748;0.79986572265625;0.2952880859375;0.239999999394058;25;1 A;
292.019204262722;0.799560546875;0.29107666015625;0.249999999368811;26;1 A;
292.029204262697;0.7989501953125;0.287200927734375;0.259999999343563;27;1 A;
292.039204262672;0.799560546875;0.283538818359375;0.269999999318316;28;1 A;
292.049204262647;0.799560546875;0.28009033203125;0.279999999293068;29;1 A;
292.059204262621;0.7989501953125;0.27685546875;0.28999999926782;30;1 A;
292.069204262596;0.79986572265625;0.273773193359375;0.299999999242573;31;1 A;
292.079204262571;0.79986572265625;0.270904541015625;0.309999999217325;32;1 A;
292.089204262546;0.79986572265625;0.26812744140625;0.319999999192078;33;1 A;
292.09920426252;0.79986572265625;0.265533447265625;0.32999999916683;34;1 A;
292.109204262495;0.79986572265625;0.263031005859375;0.339999999141583;35;1 A;
292.11920426247;0.79986572265625;0.2606201171875;0.349999999116335;36;1 A;
292.129204262445;0.8001708984375;0.25836181640625;0.359999999091087;37;1 A;
292.139204262419;0.8001708984375;0.25616455078125;0.36999999906584;38;1 A;
292.149204262394;0.8001708984375;0.254058837890625;0.379999999040592;39;1 A;
292.159204262369;0.79986572265625;0.25201416015625;0.389999999015345;40;1 A;
292.169204262344;0.8001708984375;0.250030517578125;0.399999998990097;41;1 A;
292.179204262318;0.8001708984375;0.248138427734375;0.40999999896485;42;1 A;
292.189204262293;0.79986572265625;0.24627685546875;0.419999998939602;43;1 A;
292.199204262268;0.79986572265625;0.2445068359375;0.429999998914354;44;1 A;
292.209204262243;0.799560546875;0.2427978515625;0.439999998889107;45;1 A;
292.219204262217;0.8001708984375;0.2410888671875;0.449999998863859;46;1 A;
292.229204262192;0.799560546875;0.239501953125;0.459999998838612;47;1 A;
292.239204262167;0.799560546875;0.237884521484375;0.469999998813364;48;1 A;
292.249204262142;0.799560546875;0.236328125;0.479999998788116;49;1 A;
292.259204262116;0.79986572265625;0.23486328125;0.489999998762869;50;1 A;
292.269204262091;0.79986572265625;0.233367919921875;0.499999998737621;51;1 A;
292.279204262066;0.799560546875;0.231964111328125;0.509999998712374;52;1 A;
292.289204262041;0.8001708984375;0.230560302734375;0.519999998687126;53;1 A;
292.299204262015;0.799560546875;0.22918701171875;0.529999998661879;54;1 A;
292.30920426199;0.79986572265625;0.227874755859375;0.539999998636631;55;1 A;
292.319204261965;0.79986572265625;0.2265625;0.549999998611383;56;1 A;
292.32920426194;0.799560546875;0.22528076171875;0.559999998586136;57;1 A;
292.339204261914;0.799560546875;0.224029541015625;0.569999998560888;58;1 A;
292.349204261889;0.799560546875;0.222808837890625;0.579999998535641;59;1 A;
292.359204261864;0.79986572265625;0.22161865234375;0.589999998510393;60;1 A;
292.369204261839;0.79925537109375;0.220428466796875;0.599999998485146;61;1 A;
292.379204261813;0.799560546875;0.21929931640625;0.609999998459898;62;1 A;
292.389204261788;0.799560546875;0.218170166015625;0.61999999843465;63;1 A;
292.399204261763;0.79986572265625;0.217071533203125;0.629999998409403;64;1 A;
292.409204261738;0.8001708984375;0.216033935546875;0.639999998384155;65;1 A;
292.419204261712;0.80047607421875;0.214935302734375;0.649999998358908;66;1 A;
292.429204261687;0.79986572265625;0.21392822265625;0.65999999833366;67;1 A;
292.439204261662;0.79986572265625;0.212890625;0.669999998308413;68;1 A;
292.449204261637;0.799560546875;0.2119140625;0.679999998283165;69;1 A;
292.459204261611;0.799560546875;0.210968017578125;0.689999998257917;70;1 A;
292.469204261586;0.8001708984375;0.209991455078125;0.69999999823267;71;1 A;
292.479204261561;0.79925537109375;0.209075927734375;0.709999998207422;72;1 A;
292.489204261536;0.799560546875;0.208160400390625;0.719999998182175;73;1 A;
292.49920426151;0.79925537109375;0.207244873046875;0.729999998156927;74;1 A;
292.509204261485;0.79986572265625;0.20635986328125;0.73999999813168;75;1 A;
292.51920426146;0.79986572265625;0.205474853515625;0.749999998106432;76;1 A;
292.529204261435;0.79986572265625;0.204620361328125;0.759999998081184;77;1 A;
292.53920426141;0.79986572265625;0.203765869140625;0.769999998055937;78;1 A;
292.549204261384;0.799560546875;0.20294189453125;0.779999998030689;79;1 A;
292.559204261359;0.79986572265625;0.2021484375;0.789999998005442;80;1 A;
292.569204261334;0.799560546875;0.201324462890625;0.799999997980194;81;1 A;
292.579204261309;0.799560546875;0.20050048828125;0.809999997954947;82;1 A;
292.589204261283;0.799560546875;0.199676513671875;0.819999997929699;83;1 A;
292.599204261258;0.80047607421875;0.198883056640625;0.829999997904451;84;1 A;
292.609204261233;0.79925537109375;0.198089599609375;0.839999997879204;85;1 A;
292.619204261208;0.79986572265625;0.197265625;0.849999997853956;86;1 A;
292.629204261182;0.799560546875;0.19647216796875;0.859999997828709;87;1 A;
292.639204261157;0.79986572265625;0.1956787109375;0.869999997803461;88;1 A;
292.649204261132;0.799560546875;0.19488525390625;0.879999997778214;89;1 A;
292.659204261107;0.7989501953125;0.194091796875;0.889999997752966;90;1 A;
292.669204261081;0.799560546875;0.193267822265625;0.899999997727718;91;1 A;
292.679204261056;0.79986572265625;0.19244384765625;0.909999997702471;92;1 A;
292.689204261031;0.799560546875;0.191619873046875;0.919999997677223;93;1 A;
292.699204261006;0.79986572265625;0.190765380859375;0.929999997651976;94;1 A;
292.70920426098;0.79925537109375;0.18994140625;0.939999997626728;95;1 A;
292.719204260955;0.79925537109375;0.189056396484375;0.949999997601481;96;1 A;
292.72920426093;0.79925537109375;0.188201904296875;0.959999997576233;97;1 A;
292.739204260905;0.79986572265625;0.18731689453125;0.969999997550985;98;1 A;
292.749204260879;0.799560546875;0.186431884765625;0.979999997525738;99;1 A;
292.759204260854;0.79925537109375;0.185546875;0.98999999750049;100;1 A;
292.769204260829;0.8001708984375;0.184600830078125;0.999999997475243;101;1 A;
292.779204260804;0.79925537109375;0.18365478515625;1.00999999745;102;1 A;
292.789204260778;0.799560546875;0.182708740234375;1.01999999742475;103;1 A;
292.799204260753;0.8001708984375;0.181732177734375;1.0299999973995;104;1 A;
292.809204260728;0.799560546875;0.1807861328125;1.03999999737425;105;1 A;
292.819204260703;0.79925537109375;0.179779052734375;1.049999997349;106;1 A;
292.829204260677;0.8001708984375;0.17877197265625;1.05999999732376;107;1 A;
292.839204260652;0.79986572265625;0.177764892578125;1.06999999729851;108;1 A;
292.849204260627;0.8001708984375;0.176727294921875;1.07999999727326;109;1 A;
292.859204260602;0.799560546875;0.17572021484375;1.08999999724801;110;1 A;
292.869204260576;0.80047607421875;0.174652099609375;1.09999999722277;111;1 A;
292.879204260551;0.8001708984375;0.173614501953125;1.10999999719752;112;1 A;
292.889204260526;0.79925537109375;0.17254638671875;1.11999999717227;113;1 A;
292.899204260501;0.79925537109375;0.1715087890625;1.12999999714702;114;1 A;
292.909204260475;0.799560546875;0.17047119140625;1.13999999712178;115;1 A;
292.91920426045;0.80047607421875;0.16937255859375;1.14999999709653;116;1 A;
292.929204260425;0.80047607421875;0.1683349609375;1.15999999707128;117;1 A;
292.9392042604;0.799560546875;0.167236328125;1.16999999704603;118;1 A;
292.949204260374;0.8001708984375;0.16619873046875;1.17999999702079;119;1 A;
292.959204260349;0.79986572265625;0.165130615234375;1.18999999699554;120;1 A;
292.969204260324;0.799560546875;0.1640625;1.19999999697029;121;1 A;
292.979204260299;0.799560546875;0.163055419921875;1.20999999694504;122;1 A;
292.989204260273;0.79986572265625;0.162017822265625;1.2199999969198;123;1 A;
292.999204260248;0.8001708984375;0.160980224609375;1.22999999689455;124;1 A;
293.009204260223;0.79986572265625;0.15997314453125;1.2399999968693;125;1 A;
293.019204260198;0.799560546875;0.158935546875;1.24999999684405;126;1 A;
293.029204260172;0.799560546875;0.157958984375;1.25999999681881;127;1 A;
293.039204260147;0.79986572265625;0.156951904296875;1.26999999679356;128;1 A;
293.049204260122;0.79986572265625;0.155975341796875;1.27999999676831;129;1 A;
293.059204260097;0.799560546875;0.155029296875;1.28999999674306;130;1 A;
293.069204260071;0.79986572265625;0.154083251953125;1.29999999671782;131;1 A;
293.079204260046;0.799560546875;0.153167724609375;1.30999999669257;132;1 A;
293.089204260021;0.799560546875;0.152252197265625;1.31999999666732;133;1 A;
293.099204259996;0.79986572265625;0.151336669921875;1.32999999664207;134;1 A;
293.10920425997;0.799560546875;0.15045166015625;1.33999999661683;135;1 A;
293.119204259945;0.79925537109375;0.149566650390625;1.34999999659158;136;1 A;
293.12920425992;0.8001708984375;0.14874267578125;1.35999999656633;137;1 A;
293.139204259895;0.8001708984375;0.147918701171875;1.36999999654108;138;1 A;
293.149204259869;0.79986572265625;0.1470947265625;1.37999999651583;139;1 A;
293.159204259844;0.8001708984375;0.14630126953125;1.38999999649059;140;1 A;
293.169204259819;0.799560546875;0.1455078125;1.39999999646534;141;1 A;
293.179204259794;0.799560546875;0.144744873046875;1.40999999644009;142;1 A;
293.189204259768;0.79986572265625;0.14398193359375;1.41999999641484;143;1 A;
293.199204259743;0.79986572265625;0.14324951171875;1.4299999963896;144;1 A;
293.209204259718;0.79986572265625;0.142547607421875;1.43999999636435;145;1 A;
293.219204259693;0.79986572265625;0.141815185546875;1.4499999963391;146;1 A;
293.229204259667;0.79986572265625;0.141143798828125;1.45999999631385;147;1 A;
293.239204259642;0.799560546875;0.140472412109375;1.46999999628861;148;1 A;
293.249204259617;0.8001708984375;0.139801025390625;1.47999999626336;149;1 A;
293.259204259592;0.79986572265625;0.139190673828125;1.48999999623811;150;1 A;
293.269204259566;0.79986572265625;0.1385498046875;1.49999999621286;151;1 A;
293.279204259541;0.8001708984375;0.137939453125;1.50999999618762;152;1 A;
293.289204259516;0.8001708984375;0.1373291015625;1.51999999616237;153;1 A;
293.299204259491;0.799560546875;0.136749267578125;1.52999999613712;154;1 A;
293.309204259465;0.8001708984375;0.13616943359375;1.53999999611187;155;1 A;
293.31920425944;0.799560546875;0.1356201171875;1.54999999608663;156;1 A;
293.329204259415;0.79986572265625;0.13507080078125;1.55999999606138;157;1 A;
293.33920425939;0.7989501953125;0.134521484375;1.56999999603613;158;1 A;
293.349204259364;0.79986572265625;0.134002685546875;1.57999999601088;159;1 A;
293.359204259339;0.79986572265625;0.133514404296875;1.58999999598564;160;1 A;
293.369204259314;0.79986572265625;0.13299560546875;1.59999999596039;161;1 A;
293.379204259289;0.8001708984375;0.132537841796875;1.60999999593514;162;1 A;
293.389204259263;0.799560546875;0.132049560546875;1.61999999590989;163;1 A;
293.399204259238;0.79986572265625;0.131561279296875;1.62999999588465;164;1 A;
293.409204259213;0.79986572265625;0.131134033203125;1.6399999958594;165;1 A;
293.419204259188;0.799560546875;0.130645751953125;1.64999999583415;166;1 A;
293.429204259162;0.79986572265625;0.130218505859375;1.6599999958089;167;1 A;
293.439204259137;0.79986572265625;0.129791259765625;1.66999999578366;168;1 A;
293.449204259112;0.799560546875;0.129364013671875;1.67999999575841;169;1 A;
293.459204259087;0.79986572265625;0.12896728515625;1.68999999573316;170;1 A;
293.469204259061;0.79986572265625;0.1285400390625;1.69999999570791;171;1 A;
293.479204259036;0.799560546875;0.128173828125;1.70999999568267;172;1 A;
293.489204259011;0.79986572265625;0.127777099609375;1.71999999565742;173;1 A;
293.499204258986;0.79986572265625;0.12738037109375;1.72999999563217;174;1 A;
293.50920425896;0.79986572265625;0.127044677734375;1.73999999560692;175;1 A;
293.519204258935;0.79986572265625;0.12664794921875;1.74999999558167;176;1 A;
293.52920425891;0.79986572265625;0.126312255859375;1.75999999555643;177;1 A;
293.539204258885;0.79986572265625;0.125946044921875;1.76999999553118;178;1 A;
293.54920425886;0.79925537109375;0.1256103515625;1.77999999550593;179;1 A;
293.559204258834;0.8001708984375;0.125274658203125;1.78999999548068;180;1 A;
293.569204258809;0.79986572265625;0.12493896484375;1.79999999545544;181;1 A;
293.579204258784;0.799560546875;0.124603271484375;1.80999999543019;182;1 A;
293.589204258759;0.8001708984375;0.124298095703125;1.81999999540494;183;1 A;
293.599204258733;0.79925537109375;0.12396240234375;1.82999999537969;184;1 A;
293.609204258708;0.799560546875;0.123687744140625;1.83999999535445;185;1 A;
293.619204258683;0.79986572265625;0.12335205078125;1.8499999953292;186;1 A;
293.629204258658;0.7989501953125;0.123077392578125;1.85999999530395;187;1 A;
293.639204258632;0.799560546875;0.122772216796875;1.8699999952787;188;1 A;
293.649204258607;0.79925537109375;0.122467041015625;1.87999999525346;189;1 A;
293.659204258582;0.80047607421875;0.122222900390625;1.88999999522821;190;1 A;
293.669204258557;0.799560546875;0.121917724609375;1.89999999520296;191;1 A;
293.679204258531;0.79986572265625;0.12164306640625;1.90999999517771;192;1 A;
293.689204258506;0.799560546875;0.121368408203125;1.91999999515247;193;1 A;
293.699204258481;0.79986572265625;0.12109375;1.92999999512722;194;1 A;
293.709204258456;0.799560546875;0.120849609375;1.93999999510197;195;1 A;
293.71920425843;0.79986572265625;0.120574951171875;1.94999999507672;196;1 A;
293.729204258405;0.8001708984375;0.120330810546875;1.95999999505148;197;1 A;
293.73920425838;0.8001708984375;0.12005615234375;1.96999999502623;198;1 A;
293.749204258355;0.79986572265625;0.11981201171875;1.97999999500098;199;1 A;
293.759204258329;0.79986572265625;0.11956787109375;1.98999999497573;200;1 A;
293.769204258304;0.8001708984375;0.11932373046875;1.99999999495049;201;1 A;
293.779204258279;0.79986572265625;0.11907958984375;2.00999999492524;202;1 A;
293.789204258254;0.799560546875;0.118865966796875;2.01999999489999;203;1 A;
293.799204258228;0.799560546875;0.118621826171875;2.02999999487474;204;1 A;
293.809204258203;0.79986572265625;0.118408203125;2.0399999948495;205;1 A;
293.819204258178;0.79925537109375;0.1181640625;2.04999999482425;206;1 A;
293.829204258153;0.799560546875;0.117950439453125;2.059999994799;207;1 A;
293.839204258127;0.799560546875;0.11773681640625;2.06999999477375;208;1 A;
293.849204258102;0.79986572265625;0.11749267578125;2.0799999947485;209;1 A;
293.859204258077;0.799560546875;0.1173095703125;2.08999999472326;210;1 A;
293.869204258052;0.79986572265625;0.1170654296875;2.09999999469801;211;1 A;
293.879204258026;0.80047607421875;0.116851806640625;2.10999999467276;212;1 A;
293.889204258001;0.799560546875;0.116668701171875;2.11999999464751;213;1 A;
293.899204257976;0.799560546875;0.116455078125;2.12999999462227;214;1 A;
293.909204257951;0.79986572265625;0.11627197265625;2.13999999459702;215;1 A;
293.919204257925;0.79925537109375;0.116058349609375;2.14999999457177;216;1 A;
293.9292042579;0.79986572265625;0.1158447265625;2.15999999454652;217;1 A;
293.939204257875;0.8001708984375;0.11566162109375;2.16999999452128;218;1 A;
293.94920425785;0.799560546875;0.115447998046875;2.17999999449603;219;1 A;
293.959204257824;0.799560546875;0.115264892578125;2.18999999447078;220;1 A;
293.969204257799;0.799560546875;0.115081787109375;2.19999999444553;221;1 A;
293.979204257774;0.799560546875;0.114898681640625;2.20999999442029;222;1 A;
293.989204257749;0.79986572265625;0.114715576171875;2.21999999439504;223;1 A;
293.999204257723;0.79925537109375;0.114501953125;2.22999999436979;224;1 A;
294.009204257698;0.79986572265625;0.114349365234375;2.23999999434454;225;1 A;
294.019204257673;0.799560546875;0.1141357421875;2.2499999943193;226;1 A;
294.029204257648;0.79986572265625;0.11395263671875;2.25999999429405;227;1 A;
294.039204257622;0.799560546875;0.113800048828125;2.2699999942688;228;1 A;
294.049204257597;0.79986572265625;0.11358642578125;2.27999999424355;229;1 A;
294.059204257572;0.79986572265625;0.113433837890625;2.28999999421831;230;1 A;
294.069204257547;0.8001708984375;0.113250732421875;2.29999999419306;231;1 A;
294.079204257521;0.799560546875;0.113067626953125;2.30999999416781;232;1 A;
294.089204257496;0.79986572265625;0.1129150390625;2.31999999414256;233;1 A;
294.099204257471;0.8001708984375;0.11273193359375;2.32999999411732;234;1 A;
294.109204257446;0.799560546875;0.112579345703125;2.33999999409207;235;1 A;
294.11920425742;0.79986572265625;0.112396240234375;2.34999999406682;236;1 A;
294.129204257395;0.799560546875;0.11224365234375;2.35999999404157;237;1 A;
294.13920425737;0.79986572265625;0.112060546875;2.36999999401633;238;1 A;
294.149204257345;0.79986572265625;0.111907958984375;2.37999999399108;239;1 A;
294.159204257319;0.79986572265625;0.11175537109375;2.38999999396583;240;1 A;
294.169204257294;0.799560546875;0.111572265625;2.39999999394058;241;1 A;
294.179204257269;0.8001708984375;0.111419677734375;2.40999999391533;242;1 A;
294.189204257244;0.799560546875;0.11126708984375;2.41999999389009;243;1 A;
294.199204257218;0.79986572265625;0.111083984375;2.42999999386484;244;1 A;
294.209204257193;0.79925537109375;0.1109619140625;2.43999999383959;245;1 A;
294.219204257168;0.79986572265625;0.11077880859375;2.44999999381434;246;1 A;
294.229204257143;0.8001708984375;0.11065673828125;2.4599999937891;247;1 A;
294.239204257117;0.79986572265625;0.110504150390625;2.46999999376385;248;1 A;
294.249204257092;0.8001708984375;0.1103515625;2.4799999937386;249;1 A;
294.259204257067;0.79986572265625;0.110198974609375;2.48999999371335;250;1 A;
294.269204257042;0.79986572265625;0.11004638671875;2.49999999368811;251;1 A;
294.279204257016;0.79986572265625;0.109893798828125;2.50999999366286;252;1 A;
294.289204256991;0.8001708984375;0.109771728515625;2.51999999363761;253;1 A;
294.299204256966;0.79986572265625;0.109619140625;2.52999999361236;254;1 A;
294.309204256941;0.79986572265625;0.1094970703125;2.53999999358712;255;1 A;
294.319204256915;0.799560546875;0.109344482421875;2.54999999356187;256;1 A;
294.32920425689;0.799560546875;0.10919189453125;2.55999999353662;257;1 A;
294.339204256865;0.799560546875;0.10906982421875;2.56999999351137;258;1 A;
294.34920425684;0.79986572265625;0.10888671875;2.57999999348613;259;1 A;
294.359204256814;0.7989501953125;0.108795166015625;2.58999999346088;260;1 A;
294.369204256789;0.799560546875;0.108642578125;2.59999999343563;261;1 A;
294.379204256764;0.799560546875;0.108489990234375;2.60999999341038;262;1 A;
294.389204256739;0.79986572265625;0.108367919921875;2.61999999338514;263;1 A;
294.399204256713;0.79986572265625;0.10821533203125;2.62999999335989;264;1 A;
294.409204256688;0.799560546875;0.108123779296875;2.63999999333464;265;1 A;
294.419204256663;0.79986572265625;0.10797119140625;2.64999999330939;266;1 A;
294.429204256638;0.79925537109375;0.10784912109375;2.65999999328415;267;1 A;
294.439204256612;0.79925537109375;0.107696533203125;2.6699999932589;268;1 A;
294.449204256587;0.79986572265625;0.107574462890625;2.67999999323365;269;1 A;
294.459204256562;0.8001708984375;0.10748291015625;2.6899999932084;270;1 A;
294.469204256537;0.799560546875;0.107330322265625;2.69999999318316;271;1 A;
294.479204256511;0.79986572265625;0.107177734375;2.70999999315791;272;1 A;
294.489204256486;0.799560546875;0.1070556640625;2.71999999313266;273;1 A;
294.499204256461;0.799560546875;0.106903076171875;2.72999999310741;274;1 A;
294.509204256436;0.8001708984375;0.1068115234375;2.73999999308217;275;1 A;
294.51920425641;0.79986572265625;0.106658935546875;2.74999999305692;276;1 A;
294.529204256385;0.8001708984375;0.106536865234375;2.75999999303167;277;1 A;
294.53920425636;0.799560546875;0.106414794921875;2.76999999300642;278;1 A;
294.549204256335;0.799560546875;0.106292724609375;2.77999999298117;279;1 A;
294.559204256309;0.79925537109375;0.106170654296875;2.78999999295593;280;1 A;
294.569204256284;0.79925537109375;0.106048583984375;2.79999999293068;281;1 A;
294.579204256259;0.79986572265625;0.105926513671875;2.80999999290543;282;1 A;
294.589204256234;0.799560546875;0.105804443359375;2.81999999288018;283;1 A;
294.599204256209;0.79986572265625;0.105682373046875;2.82999999285494;284;1 A;
294.609204256183;0.799560546875;0.1055908203125;2.83999999282969;285;1 A;
294.619204256158;0.79986572265625;0.105438232421875;2.84999999280444;286;1 A;
294.629204256133;0.79986572265625;0.105316162109375;2.85999999277919;287;1 A;
294.639204256108;0.80047607421875;0.105224609375;2.86999999275395;288;1 A;
294.649204256082;0.79986572265625;0.105072021484375;2.8799999927287;289;1 A;
294.659204256057;0.799560546875;0.10498046875;2.88999999270345;290;1 A;
294.669204256032;0.799560546875;0.1048583984375;2.8999999926782;291;1 A;
294.679204256007;0.799560546875;0.104736328125;2.90999999265296;292;1 A;
294.689204255981;0.799560546875;0.1046142578125;2.91999999262771;293;1 A;
294.699204255956;0.799560546875;0.1044921875;2.92999999260246;294;1 A;
294.709204255931;0.79925537109375;0.104400634765625;2.93999999257721;295;1 A;
294.719204255906;0.79925537109375;0.104278564453125;2.94999999255197;296;1 A;
294.72920425588;0.8001708984375;0.104156494140625;2.95999999252672;297;1 A;
294.739204255855;0.799560546875;0.10406494140625;2.96999999250147;298;1 A;
294.74920425583;0.79925537109375;0.10394287109375;2.97999999247622;299;1 A;
294.759204255805;0.8001708984375;0.10382080078125;2.98999999245098;300;1 A;
294.769204255779;0.79986572265625;0.10369873046875;2.99999999242573;301;1 A;
294.779204255754;0.799560546875;0.103607177734375;3.00999999240048;302;1 A;
294.789204255729;0.799560546875;0.103485107421875;3.01999999237523;303;1 A;
294.799204255704;0.79986572265625;0.103363037109375;3.02999999234999;304;1 A;
294.809204255678;0.79986572265625;0.103271484375;3.03999999232474;305;1 A;
294.819204255653;0.799560546875;0.1031494140625;3.04999999229949;306;1 A;
294.829204255628;0.799560546875;0.103057861328125;3.05999999227424;307;1 A;
294.839204255603;0.799560546875;0.10296630859375;3.069999992249;308;1 A;
294.849204255577;0.799560546875;0.10284423828125;3.07999999222375;309;1 A;
294.859204255552;0.79986572265625;0.102752685546875;3.0899999921985;310;1 A;
294.869204255527;0.8001708984375;0.102630615234375;3.09999999217325;311;1 A;
294.879204255502;0.79986572265625;0.102508544921875;3.109999992148;312;1 A;
294.889204255476;0.79925537109375;0.1024169921875;3.11999999212276;313;1 A;
294.899204255451;0.79925537109375;0.102294921875;3.12999999209751;314;1 A;
294.909204255426;0.799560546875;0.10223388671875;3.13999999207226;315;1 A;
294.919204255401;0.8001708984375;0.10211181640625;3.14999999204701;316;1 A;
294.929204255375;0.799560546875;0.10198974609375;3.15999999202177;317;1 A;
294.93920425535;0.79986572265625;0.101898193359375;3.16999999199652;318;1 A;
294.949204255325;0.799560546875;0.101806640625;3.17999999197127;319;1 A;
294.9592042553;0.799560546875;0.101715087890625;3.18999999194602;320;1 A;
294.969204255274;0.79986572265625;0.101593017578125;3.19999999192078;321;1 A;
294.979204255249;0.79925537109375;0.10150146484375;3.20999999189553;322;1 A;
294.989204255224;0.799560546875;0.101409912109375;3.21999999187028;323;1 A;
294.999204255199;0.799560546875;0.101318359375;3.22999999184503;324;1 A;
295.009204255173;0.79986572265625;0.101226806640625;3.23999999181979;325;1 A;
295.019204255148;0.79986572265625;0.101104736328125;3.24999999179454;326;1 A;
295.029204255123;0.799560546875;0.10101318359375;3.25999999176929;327;1 A;
295.039204255098;0.79986572265625;0.100921630859375;3.26999999174404;328;1 A;
295.049204255072;0.79925537109375;0.100799560546875;3.2799999917188;329;1 A;
295.059204255047;0.79925537109375;0.100738525390625;3.28999999169355;330;1 A;
295.069204255022;0.799560546875;0.100616455078125;3.2999999916683;331;1 A;
295.079204254997;0.799560546875;0.10052490234375;3.30999999164305;332;1 A;
295.089204254971;0.799560546875;0.100433349609375;3.31999999161781;333;1 A;
295.099204254946;0.79925537109375;0.100341796875;3.32999999159256;334;1 A;
295.109204254921;0.799560546875;0.10028076171875;3.33999999156731;335;1 A;
295.119204254896;0.79925537109375;0.10015869140625;3.34999999154206;336;1 A;
295.12920425487;0.8001708984375;0.100067138671875;3.35999999151682;337;1 A;
295.139204254845;0.79986572265625;0.100006103515625;3.36999999149157;338;1 A;
295.14920425482;0.799560546875;0.09991455078125;3.37999999146632;339;1 A;
295.159204254795;0.799560546875;0.099822998046875;3.38999999144107;340;1 A;
295.169204254769;0.79986572265625;0.0997314453125;3.39999999141583;341;1 A;
295.179204254744;0.8001708984375;0.099639892578125;3.40999999139058;342;1 A;
295.189204254719;0.799560546875;0.09954833984375;3.41999999136533;343;1 A;
295.199204254694;0.79986572265625;0.099456787109375;3.42999999134008;344;1 A;
295.209204254668;0.799560546875;0.099365234375;3.43999999131483;345;1 A;
295.219204254643;0.799560546875;0.099273681640625;3.44999999128959;346;1 A;
295.229204254618;0.79986572265625;0.09918212890625;3.45999999126434;347;1 A;
295.239204254593;0.79986572265625;0.099090576171875;3.46999999123909;348;1 A;
295.249204254567;0.799560546875;0.0989990234375;3.47999999121384;349;1 A;
295.259204254542;0.799560546875;0.09893798828125;3.4899999911886;350;1 A;
295.269204254517;0.79986572265625;0.098846435546875;3.49999999116335;351;1 A;
295.279204254492;0.79986572265625;0.098785400390625;3.5099999911381;352;1 A;
295.289204254466;0.799560546875;0.09869384765625;3.51999999111285;353;1 A;
295.299204254441;0.79925537109375;0.098602294921875;3.52999999108761;354;1 A;
295.309204254416;0.79925537109375;0.0985107421875;3.53999999106236;355;1 A;
295.319204254391;0.799560546875;0.098419189453125;3.54999999103711;356;1 A;
295.329204254365;0.8001708984375;0.098358154296875;3.55999999101186;357;1 A;
295.33920425434;0.79986572265625;0.0982666015625;3.56999999098662;358;1 A;
295.349204254315;0.79986572265625;0.098175048828125;3.57999999096137;359;1 A;
295.35920425429;0.8001708984375;0.09808349609375;3.58999999093612;360;1 A;
295.369204254264;0.79986572265625;0.097991943359375;3.59999999091087;361;1 A;
295.379204254239;0.799560546875;0.097930908203125;3.60999999088563;362;1 A;
295.389204254214;0.799560546875;0.09783935546875;3.61999999086038;363;1 A;
295.399204254189;0.79986572265625;0.097747802734375;3.62999999083513;364;1 A;
295.409204254163;0.799560546875;0.097686767578125;3.63999999080988;365;1 A;
295.419204254138;0.79986572265625;0.09759521484375;3.64999999078464;366;1 A;
295.429204254113;0.79986572265625;0.0975341796875;3.65999999075939;367;1 A;
295.439204254088;0.799560546875;0.09747314453125;3.66999999073414;368;1 A;
295.449204254062;0.79986572265625;0.09735107421875;3.67999999070889;369;1 A;
295.459204254037;0.799560546875;0.097320556640625;3.68999999068365;370;1 A;
295.469204254012;0.79986572265625;0.09722900390625;3.6999999906584;371;1 A;
295.479204253987;0.799560546875;0.097137451171875;3.70999999063315;372;1 A;
295.489204253961;0.799560546875;0.0970458984375;3.7199999906079;373;1 A;
295.499204253936;0.799560546875;0.096954345703125;3.72999999058266;374;1 A;
295.509204253911;0.79986572265625;0.096923828125;3.73999999055741;375;1 A;
295.519204253886;0.79986572265625;0.0968017578125;3.74999999053216;376;1 A;
295.52920425386;0.79986572265625;0.09674072265625;3.75999999050691;377;1 A;
295.539204253835;0.79925537109375;0.096649169921875;3.76999999048167;378;1 A;
295.54920425381;0.79986572265625;0.096588134765625;3.77999999045642;379;1 A;
295.559204253785;0.79986572265625;0.096527099609375;3.78999999043117;380;1 A;
295.569204253759;0.79986572265625;0.096435546875;3.79999999040592;381;1 A;
295.579204253734;0.79986572265625;0.09637451171875;3.80999999038067;382;1 A;
295.589204253709;0.799560546875;0.096282958984375;3.81999999035543;383;1 A;
295.599204253684;0.799560546875;0.09619140625;3.82999999033018;384;1 A;
295.609204253659;0.799560546875;0.09613037109375;3.83999999030493;385;1 A;
295.619204253633;0.79925537109375;0.0960693359375;3.84999999027968;386;1 A;
295.629204253608;0.799560546875;0.09600830078125;3.85999999025444;387;1 A;
295.639204253583;0.79986572265625;0.095916748046875;3.86999999022919;388;1 A;
295.649204253558;0.79986572265625;0.0958251953125;3.87999999020394;389;1 A;
295.659204253532;0.799560546875;0.09576416015625;3.88999999017869;390;1 A;
295.669204253507;0.8001708984375;0.095672607421875;3.89999999015345;391;1 A;
295.679204253482;0.799560546875;0.095611572265625;3.9099999901282;392;1 A;
295.689204253457;0.79986572265625;0.09552001953125;3.91999999010295;393;1 A;
295.699204253431;0.799560546875;0.095428466796875;3.9299999900777;394;1 A;
295.709204253406;0.7989501953125;0.09539794921875;3.93999999005246;395;1 A;
295.719204253381;0.79986572265625;0.095306396484375;3.94999999002721;396;1 A;
295.729204253356;0.799560546875;0.095245361328125;3.95999999000196;397;1 A;
295.73920425333;0.799560546875;0.09515380859375;3.96999998997671;398;1 A;
295.749204253305;0.79986572265625;0.0950927734375;3.97999998995147;399;1 A;
295.75920425328;0.79986572265625;0.09503173828125;3.98999998992622;400;1 A;
295.769204253255;0.79986572265625;0.094940185546875;3.99999998990097;401;1 A;
295.779204253229;0.799560546875;0.094879150390625;4.00999998987572;402;1 A;
295.789204253204;0.8001708984375;0.094818115234375;4.01999998985048;403;1 A;
295.799204253179;0.8001708984375;0.0947265625;4.02999998982523;404;1 A;
295.809204253154;0.8001708984375;0.09466552734375;4.03999998979998;405;1 A;
295.819204253128;0.8001708984375;0.0946044921875;4.04999998977473;406;1 A;
295.829204253103;0.799560546875;0.09454345703125;4.05999998974949;407;1 A;
295.839204253078;0.79925537109375;0.094451904296875;4.06999998972424;408;1 A;
295.849204253053;0.799560546875;0.0943603515625;4.07999998969899;409;1 A;
295.859204253027;0.79986572265625;0.094329833984375;4.08999998967374;410;1 A;
295.869204253002;0.79986572265625;0.09423828125;4.0999999896485;411;1 A;
295.879204252977;0.799560546875;0.09417724609375;4.10999998962325;412;1 A;
295.889204252952;0.79986572265625;0.0941162109375;4.119999989598;413;1 A;
295.899204252926;0.79925537109375;0.09405517578125;4.12999998957275;414;1 A;
295.909204252901;0.799560546875;0.093994140625;4.1399999895475;415;1 A;
295.919204252876;0.79986572265625;0.09393310546875;4.14999998952226;416;1 A;
295.929204252851;0.79986572265625;0.093841552734375;4.15999998949701;417;1 A;
295.939204252825;0.799560546875;0.093780517578125;4.16999998947176;418;1 A;
295.9492042528;0.799560546875;0.093719482421875;4.17999998944651;419;1 A;
295.959204252775;0.799560546875;0.093658447265625;4.18999998942127;420;1 A;
295.96920425275;0.799560546875;0.093597412109375;4.19999998939602;421;1 A;
295.979204252724;0.79986572265625;0.093536376953125;4.20999998937077;422;1 A;
295.989204252699;0.799560546875;0.093475341796875;4.21999998934552;423;1 A;
295.999204252674;0.79986572265625;0.0933837890625;4.22999998932028;424;1 A;
296.009204252649;0.79986572265625;0.09332275390625;4.23999998929503;425;1 A;
296.019204252623;0.799560546875;0.09326171875;4.24999998926978;426;1 A;
296.029204252598;0.79986572265625;0.09320068359375;4.25999998924453;427;1 A;
296.039204252573;0.79925537109375;0.0931396484375;4.26999998921929;428;1 A;
296.049204252548;0.799560546875;0.093048095703125;4.27999998919404;429;1 A;
296.059204252522;0.79986572265625;0.093017578125;4.28999998916879;430;1 A;
296.069204252497;0.799560546875;0.09295654296875;4.29999998914354;431;1 A;
296.079204252472;0.799560546875;0.0928955078125;4.3099999891183;432;1 A;
296.089204252447;0.79986572265625;0.09283447265625;4.31999998909305;433;1 A;
296.099204252421;0.79986572265625;0.092742919921875;4.3299999890678;434;1 A;
296.109204252396;0.79986572265625;0.09271240234375;4.33999998904255;435;1 A;
296.119204252371;0.79986572265625;0.0926513671875;4.34999998901731;436;1 A;
296.129204252346;0.79925537109375;0.092559814453125;4.35999998899206;437;1 A;
296.13920425232;0.799560546875;0.092498779296875;4.36999998896681;438;1 A;
296.149204252295;0.799560546875;0.092437744140625;4.37999998894156;439;1 A;
296.15920425227;0.799560546875;0.0924072265625;4.38999998891632;440;1 A;
296.169204252245;0.79986572265625;0.092315673828125;4.39999998889107;441;1 A;
296.179204252219;0.799560546875;0.09228515625;4.40999998886582;442;1 A;
296.189204252194;0.79986572265625;0.09222412109375;4.41999998884057;443;1 A;
296.199204252169;0.799560546875;0.0921630859375;4.42999998881533;444;1 A;
296.209204252144;0.79986572265625;0.092132568359375;4.43999998879008;445;1 A;
296.219204252118;0.79986572265625;0.092071533203125;4.44999998876483;446;1 A;
296.229204252093;0.79925537109375;0.092010498046875;4.45999998873958;447;1 A;
296.239204252068;0.799560546875;0.091949462890625;4.46999998871433;448;1 A;
296.249204252043;0.79986572265625;0.09185791015625;4.47999998868909;449;1 A;
296.259204252017;0.8001708984375;0.091827392578125;4.48999998866384;450;1 A;
296.269204251992;0.799560546875;0.091766357421875;4.49999998863859;451;1 A;
296.279204251967;0.799560546875;0.091705322265625;4.50999998861334;452;1 A;
296.289204251942;0.79986572265625;0.091644287109375;4.5199999885881;453;1 A;
296.299204251916;0.79986572265625;0.091583251953125;4.52999998856285;454;1 A;
296.309204251891;0.79986572265625;0.091522216796875;4.5399999885376;455;1 A;
296.319204251866;0.799560546875;0.091461181640625;4.54999998851235;456;1 A;
296.329204251841;0.799560546875;0.091400146484375;4.55999998848711;457;1 A;
296.339204251815;0.79986572265625;0.09136962890625;4.56999998846186;458;1 A;
296.34920425179;0.79986572265625;0.09130859375;4.57999998843661;459;1 A;
296.359204251765;0.79925537109375;0.09124755859375;4.58999998841136;460;1 A;
296.36920425174;0.799560546875;0.091217041015625;4.59999998838612;461;1 A;
296.379204251714;0.799560546875;0.091156005859375;4.60999998836087;462;1 A;
296.389204251689;0.799560546875;0.091094970703125;4.61999998833562;463;1 A;
296.399204251664;0.799560546875;0.091033935546875;4.62999998831037;464;1 A;
296.409204251639;0.8001708984375;0.09100341796875;4.63999998828513;465;1 A;
296.419204251613;0.79986572265625;0.0909423828125;4.64999998825988;466;1 A;
296.429204251588;0.79986572265625;0.090911865234375;4.65999998823463;467;1 A;
296.439204251563;0.799560546875;0.090850830078125;4.66999998820938;468;1 A;
296.449204251538;0.8001708984375;0.090789794921875;4.67999998818414;469;1 A;
296.459204251512;0.799560546875;0.09075927734375;4.68999998815889;470;1 A;
296.469204251487;0.799560546875;0.0906982421875;4.69999998813364;471;1 A;
296.479204251462;0.8001708984375;0.09063720703125;4.70999998810839;472;1 A;
296.489204251437;0.799560546875;0.090606689453125;4.71999998808315;473;1 A;
296.499204251411;0.8001708984375;0.090545654296875;4.7299999880579;474;1 A;
296.509204251386;0.7989501953125;0.09051513671875;4.73999998803265;475;1 A;
296.519204251361;0.79986572265625;0.090484619140625;4.7499999880074;476;1 A;
296.529204251336;0.79986572265625;0.090423583984375;4.75999998798216;477;1 A;
296.53920425131;0.79986572265625;0.09039306640625;4.76999998795691;478;1 A;
296.549204251285;0.8001708984375;0.09033203125;4.77999998793166;479;1 A;
296.55920425126;0.79925537109375;0.090301513671875;4.78999998790641;480;1 A;
296.569204251235;0.799560546875;0.090240478515625;4.79999998788116;481;1 A;
296.579204251209;0.79986572265625;0.0902099609375;4.80999998785592;482;1 A;
296.589204251184;0.79925537109375;0.09014892578125;4.81999998783067;483;1 A;
296.599204251159;0.79986572265625;0.090087890625;4.82999998780542;484;1 A;
296.609204251134;0.79986572265625;0.090057373046875;4.83999998778017;485;1 A;
296.619204251108;0.79925537109375;0.09002685546875;4.84999998775493;486;1 A;
296.629204251083;0.799560546875;0.0899658203125;4.85999998772968;487;1 A;
296.639204251058;0.8001708984375;0.089935302734375;4.86999998770443;488;1 A;
296.649204251033;0.79986572265625;0.089874267578125;4.87999998767918;489;1 A;
296.659204251008;0.799560546875;0.08984375;4.88999998765394;490;1 A;
296.669204250982;0.79986572265625;0.089813232421875;4.89999998762869;491;1 A;
296.679204250957;0.8001708984375;0.089752197265625;4.90999998760344;492;1 A;
296.689204250932;0.799560546875;0.0897216796875;4.91999998757819;493;1 A;
296.699204250907;0.79986572265625;0.08966064453125;4.92999998755295;494;1 A;
296.709204250881;0.79986572265625;0.089630126953125;4.9399999875277;495;1 A;
296.719204250856;0.79986572265625;0.089599609375;4.94999998750245;496;1 A;
296.729204250831;0.80047607421875;0.089569091796875;4.9599999874772;497;1 A;
296.739204250806;0.79986572265625;0.08953857421875;4.96999998745196;498;1 A;
296.74920425078;0.799560546875;0.0894775390625;4.97999998742671;499;1 A;
296.759204250755;0.799560546875;0.089447021484375;4.98999998740146;500;1 A;
296.76920425073;0.79986572265625;0.089385986328125;4.99999998737621;501;1 A;
296.779204250705;0.79986572265625;0.08935546875;5.00999998735097;502;1 A;
296.789204250679;0.79986572265625;0.089324951171875;5.01999998732572;503;1 A;
296.799204250654;0.799560546875;0.089263916015625;5.02999998730047;504;1 A;
296.809204250629;0.79986572265625;0.089263916015625;5.03999998727522;505;1 A;
296.819204250604;0.79986572265625;0.089202880859375;5.04999998724998;506;1 A;
296.829204250578;0.79925537109375;0.08917236328125;5.05999998722473;507;1 A;
296.839204250553;0.799560546875;0.089141845703125;5.06999998719948;508;1 A;
296.849204250528;0.79986572265625;0.089080810546875;5.07999998717423;509;1 A;
296.859204250503;0.799560546875;0.08905029296875;5.08999998714899;510;1 A;
296.869204250477;0.79986572265625;0.089019775390625;5.09999998712374;511;1 A;
296.879204250452;0.79986572265625;0.0889892578125;5.10999998709849;512;1 A;
296.889204250427;0.799560546875;0.08892822265625;5.11999998707324;513;1 A;
296.899204250402;0.799560546875;0.088897705078125;5.129999987048;514;1 A;
296.909204250376;0.8001708984375;0.0888671875;5.13999998702275;515;1 A;
296.919204250351;0.799560546875;0.08880615234375;5.1499999869975;516;1 A;
296.929204250326;0.799560546875;0.088775634765625;5.15999998697225;517;1 A;
296.939204250301;0.8001708984375;0.0887451171875;5.169999986947;518;1 A;
296.949204250275;0.79925537109375;0.088714599609375;5.17999998692176;519;1 A;
296.95920425025;0.799560546875;0.08868408203125;5.18999998689651;520;1 A;
296.969204250225;0.79986572265625;0.088653564453125;5.19999998687126;521;1 A;
296.9792042502;0.79986572265625;0.088623046875;5.20999998684601;522;1 A;
296.989204250174;0.79986572265625;0.088592529296875;5.21999998682077;523;1 A;
296.999204250149;0.79986572265625;0.088531494140625;5.22999998679552;524;1 A;
297.009204250124;0.79925537109375;0.0885009765625;5.23999998677027;525;1 A;
297.019204250099;0.79986572265625;0.088470458984375;5.24999998674502;526;1 A;
297.029204250073;0.799560546875;0.08843994140625;5.25999998671978;527;1 A;
297.039204250048;0.79986572265625;0.088409423828125;5.26999998669453;528;1 A;
297.049204250023;0.799560546875;0.088348388671875;5.27999998666928;529;1 A;
297.059204249998;0.79986572265625;0.08831787109375;5.28999998664403;530;1 A;
297.069204249972;0.8001708984375;0.088287353515625;5.29999998661879;531;1 A;
297.079204249947;0.79925537109375;0.0882568359375;5.30999998659354;532;1 A;
297.089204249922;0.79925537109375;0.088226318359375;5.31999998656829;533;1 A;
297.099204249897;0.799560546875;0.08819580078125;5.32999998654304;534;1 A;
297.109204249871;0.8001708984375;0.088165283203125;5.3399999865178;535;1 A;
297.119204249846;0.799560546875;0.088134765625;5.34999998649255;536;1 A;
297.129204249821;0.799560546875;0.08807373046875;5.3599999864673;537;1 A;
297.139204249796;0.799560546875;0.08807373046875;5.36999998644205;538;1 A;
297.14920424977;0.79986572265625;0.0880126953125;5.37999998641681;539;1 A;
297.159204249745;0.79986572265625;0.087982177734375;5.38999998639156;540;1 A;
297.16920424972;0.79986572265625;0.08795166015625;5.39999998636631;541;1 A;
297.179204249695;0.799560546875;0.087921142578125;5.40999998634106;542;1 A;
297.189204249669;0.799560546875;0.087890625;5.41999998631582;543;1 A;
297.199204249644;0.79986572265625;0.08782958984375;5.42999998629057;544;1 A;
297.209204249619;0.79986572265625;0.087799072265625;5.43999998626532;545;1 A;
297.219204249594;0.8001708984375;0.0877685546875;5.44999998624007;546;1 A;
297.229204249568;0.79986572265625;0.087738037109375;5.45999998621483;547;1 A;
297.239204249543;0.79925537109375;0.08770751953125;5.46999998618958;548;1 A;
297.249204249518;0.799560546875;0.087646484375;5.47999998616433;549;1 A;
297.259204249493;0.799560546875;0.087646484375;5.48999998613908;550;1 A;
297.269204249467;0.799560546875;0.08758544921875;5.49999998611383;551;1 A;
297.279204249442;0.80047607421875;0.087554931640625;5.50999998608859;552;1 A;
297.289204249417;0.799560546875;0.0875244140625;5.51999998606334;553;1 A;
297.299204249392;0.799560546875;0.087493896484375;5.52999998603809;554;1 A;
297.309204249366;0.79986572265625;0.08746337890625;5.53999998601284;555;1 A;
297.319204249341;0.79986572265625;0.087432861328125;5.5499999859876;556;1 A;
297.329204249316;0.799560546875;0.08740234375;5.55999998596235;557;1 A;
297.339204249291;0.799560546875;0.087371826171875;5.5699999859371;558;1 A;
297.349204249265;0.799560546875;0.087310791015625;5.57999998591185;559;1 A;
297.35920424924;0.799560546875;0.087310791015625;5.58999998588661;560;1 A;
297.369204249215;0.79986572265625;0.087249755859375;5.59999998586136;561;1 A;
297.37920424919;0.79925537109375;0.08721923828125;5.60999998583611;562;1 A;
297.389204249164;0.8001708984375;0.087188720703125;5.61999998581086;563;1 A;
297.399204249139;0.79986572265625;0.087158203125;5.62999998578562;564;1 A;
297.409204249114;0.799560546875;0.087127685546875;5.63999998576037;565;1 A;
297.419204249089;0.79986572265625;0.08709716796875;5.64999998573512;566;1 A;
297.429204249063;0.799560546875;0.087066650390625;5.65999998570987;567;1 A;
297.439204249038;0.799560546875;0.0870361328125;5.66999998568463;568;1 A;
297.449204249013;0.79986572265625;0.08697509765625;5.67999998565938;569;1 A;
297.459204248988;0.79925537109375;0.08697509765625;5.68999998563413;570;1 A;
297.469204248962;0.79986572265625;0.086944580078125;5.69999998560888;571;1 A;
297.479204248937;0.799560546875;0.0869140625;5.70999998558364;572;1 A;
297.489204248912;0.8001708984375;0.086883544921875;5.71999998555839;573;1 A;
297.499204248887;0.79986572265625;0.086822509765625;5.72999998553314;574;1 A;
297.509204248861;0.799560546875;0.086822509765625;5.73999998550789;575;1 A;
297.519204248836;0.799560546875;0.086761474609375;5.74999998548265;576;1 A;
297.529204248811;0.799560546875;0.08673095703125;5.7599999854574;577;1 A;
297.539204248786;0.80047607421875;0.086700439453125;5.76999998543215;578;1 A;
297.54920424876;0.799560546875;0.086669921875;5.7799999854069;579;1 A;
297.559204248735;0.79925537109375;0.086639404296875;5.78999998538166;580;1 A;
297.56920424871;0.799560546875;0.08660888671875;5.79999998535641;581;1 A;
297.579204248685;0.8001708984375;0.086578369140625;5.80999998533116;582;1 A;
297.589204248659;0.79986572265625;0.0865478515625;5.81999998530591;583;1 A;
297.599204248634;0.79986572265625;0.08648681640625;5.82999998528066;584;1 A;
297.609204248609;0.799560546875;0.08648681640625;5.83999998525542;585;1 A;
297.619204248584;0.799560546875;0.086456298828125;5.84999998523017;586;1 A;
297.629204248558;0.79925537109375;0.08642578125;5.85999998520492;587;1 A;
297.639204248533;0.79925537109375;0.086395263671875;5.86999998517967;588;1 A;
297.649204248508;0.79986572265625;0.086334228515625;5.87999998515443;589;1 A;
297.659204248483;0.79986572265625;0.086334228515625;5.88999998512918;590;1 A;
297.669204248458;0.799560546875;0.086273193359375;5.89999998510393;591;1 A;
297.679204248432;0.8001708984375;0.08624267578125;5.90999998507868;592;1 A;
297.689204248407;0.79986572265625;0.08624267578125;5.91999998505344;593;1 A;
297.699204248382;0.799560546875;0.086181640625;5.92999998502819;594;1 A;
297.709204248357;0.79925537109375;0.086181640625;5.93999998500294;595;1 A;
297.719204248331;0.8001708984375;0.086151123046875;5.94999998497769;596;1 A;
297.729204248306;0.79986572265625;0.08612060546875;5.95999998495245;597;1 A;
297.739204248281;0.79986572265625;0.086090087890625;5.9699999849272;598;1 A;
297.749204248256;0.799560546875;0.086029052734375;5.97999998490195;599;1 A;
297.75920424823;0.799560546875;0.086029052734375;5.9899999848767;600;1 A;
297.769204248205;0.79925537109375;0.08599853515625;5.99999998485146;601;1 A;
297.77920424818;0.79986572265625;0.085968017578125;6.00999998482621;602;1 A;
297.789204248155;0.79986572265625;0.0859375;6.01999998480096;603;1 A;
297.799204248129;0.799560546875;0.08587646484375;6.02999998477571;604;1 A;
297.809204248104;0.8001708984375;0.08587646484375;6.03999998475047;605;1 A;
297.819204248079;0.799560546875;0.085845947265625;6.04999998472522;606;1 A;
297.829204248054;0.79925537109375;0.085784912109375;6.05999998469997;607;1 A;
297.839204248028;0.799560546875;0.085784912109375;6.06999998467472;608;1 A;
297.849204248003;0.79986572265625;0.085723876953125;6.07999998464948;609;1 A;
297.859204247978;0.79986572265625;0.085723876953125;6.08999998462423;610;1 A;
297.869204247953;0.79925537109375;0.085693359375;6.09999998459898;611;1 A;
297.879204247927;0.799560546875;0.085662841796875;6.10999998457373;612;1 A;
297.889204247902;0.799560546875;0.08563232421875;6.11999998454849;613;1 A;
297.899204247877;0.79986572265625;0.085601806640625;6.12999998452324;614;1 A;
297.909204247852;0.799560546875;0.0855712890625;6.13999998449799;615;1 A;
297.919204247826;0.8001708984375;0.085540771484375;6.14999998447274;616;1 A;
297.929204247801;0.79986572265625;0.08551025390625;6.1599999844475;617;1 A;
297.939204247776;0.799560546875;0.08551025390625;6.16999998442225;618;1 A;
297.949204247751;0.799560546875;0.08544921875;6.179999984397;619;1 A;
297.959204247725;0.79925537109375;0.085418701171875;6.18999998437175;620;1 A;
297.9692042477;0.79925537109375;0.08538818359375;6.1999999843465;621;1 A;
297.979204247675;0.799560546875;0.085357666015625;6.20999998432126;622;1 A;
297.98920424765;0.79986572265625;0.0853271484375;6.21999998429601;623;1 A;
297.999204247624;0.8001708984375;0.085296630859375;6.22999998427076;624;1 A;
298.009204247599;0.8001708984375;0.085296630859375;6.23999998424551;625;1 A;
298.019204247574;0.799560546875;0.08526611328125;6.24999998422027;626;1 A;
298.029204247549;0.79986572265625;0.085235595703125;6.25999998419502;627;1 A;
298.039204247523;0.8001708984375;0.085205078125;6.26999998416977;628;1 A;
298.049204247498;0.79986572265625;0.085174560546875;6.27999998414452;629;1 A;
298.059204247473;0.79986572265625;0.08514404296875;6.28999998411928;630;1 A;
298.069204247448;0.79986572265625;0.085113525390625;6.29999998409403;631;1 A;
298.079204247422;0.79986572265625;0.085113525390625;6.30999998406878;632;1 A;
298.089204247397;0.8001708984375;0.0850830078125;6.31999998404353;633;1 A;
298.099204247372;0.799560546875;0.08502197265625;6.32999998401829;634;1 A;
298.109204247347;0.80047607421875;0.08502197265625;6.33999998399304;635;1 A;
298.119204247321;0.8001708984375;0.084991455078125;6.34999998396779;636;1 A;
298.129204247296;0.799560546875;0.0849609375;6.35999998394254;637;1 A;
298.139204247271;0.79986572265625;0.084930419921875;6.3699999839173;638;1 A;
298.149204247246;0.8001708984375;0.08489990234375;6.37999998389205;639;1 A;
298.15920424722;0.79986572265625;0.08489990234375;6.3899999838668;640;1 A;
298.169204247195;0.799560546875;0.084869384765625;6.39999998384155;641;1 A;
298.17920424717;0.79925537109375;0.0848388671875;6.40999998381631;642;1 A;
298.189204247145;0.79986572265625;0.0848388671875;6.41999998379106;643;1 A;
298.199204247119;0.79986572265625;0.08477783203125;6.42999998376581;644;1 A;
298.209204247094;0.799560546875;0.08477783203125;6.43999998374056;645;1 A;
298.219204247069;0.79986572265625;0.084747314453125;6.44999998371532;646;1 A;
298.229204247044;0.79925537109375;0.084716796875;6.45999998369007;647;1 A;
298.239204247018;0.799560546875;0.084716796875;6.46999998366482;648;1 A;
298.249204246993;0.799560546875;0.08465576171875;6.47999998363957;649;1 A;
298.259204246968;0.799560546875;0.08465576171875;6.48999998361433;650;1 A;
298.269204246943;0.799560546875;0.084625244140625;6.49999998358908;651;1 A;
298.279204246917;0.799560546875;0.0845947265625;6.50999998356383;652;1 A;
298.289204246892;0.79986572265625;0.084564208984375;6.51999998353858;653;1 A;
298.299204246867;0.79986572265625;0.08453369140625;6.52999998351333;654;1 A;
298.309204246842;0.799560546875;0.084503173828125;6.53999998348809;655;1 A;
298.319204246816;0.799560546875;0.084503173828125;6.54999998346284;656;1 A;
298.329204246791;0.799560546875;0.08447265625;6.55999998343759;657;1 A;
298.339204246766;0.799560546875;0.084442138671875;6.56999998341234;658;1 A;
298.349204246741;0.799560546875;0.08441162109375;6.5799999833871;659;1 A;
298.359204246715;0.799560546875;0.08441162109375;6.58999998336185;660;1 A;
298.36920424669;0.8001708984375;0.084381103515625;6.5999999833366;661;1 A;
298.379204246665;0.8001708984375;0.0843505859375;6.60999998331135;662;1 A;
298.38920424664;0.799560546875;0.084320068359375;6.61999998328611;663;1 A;
298.399204246614;0.79986572265625;0.08428955078125;6.62999998326086;664;1 A;
298.409204246589;0.80047607421875;0.08428955078125;6.63999998323561;665;1 A;
298.419204246564;0.79986572265625;0.084259033203125;6.64999998321036;666;1 A;
298.429204246539;0.79925537109375;0.084228515625;6.65999998318512;667;1 A;
298.439204246513;0.799560546875;0.084228515625;6.66999998315987;668;1 A;
298.449204246488;0.79986572265625;0.08416748046875;6.67999998313462;669;1 A;
298.459204246463;0.8001708984375;0.08416748046875;6.68999998310937;670;1 A;
298.469204246438;0.799560546875;0.084136962890625;6.69999998308413;671;1 A;
298.479204246412;0.799560546875;0.0841064453125;6.70999998305888;672;1 A;
298.489204246387;0.8001708984375;0.0841064453125;6.71999998303363;673;1 A;
298.499204246362;0.799560546875;0.084075927734375;6.72999998300838;674;1 A;
298.509204246337;0.79986572265625;0.08404541015625;6.73999998298314;675;1 A;
298.519204246311;0.79925537109375;0.084014892578125;6.74999998295789;676;1 A;
298.529204246286;0.79986572265625;0.083984375;6.75999998293264;677;1 A;
298.539204246261;0.79986572265625;0.083984375;6.76999998290739;678;1 A;
298.549204246236;0.79986572265625;0.083953857421875;6.77999998288215;679;1 A;
298.55920424621;0.79986572265625;0.08392333984375;6.7899999828569;680;1 A;
298.569204246185;0.8001708984375;0.083892822265625;6.79999998283165;681;1 A;
298.57920424616;0.79986572265625;0.0838623046875;6.8099999828064;682;1 A;
298.589204246135;0.799560546875;0.0838623046875;6.81999998278116;683;1 A;
298.599204246109;0.799560546875;0.083831787109375;6.82999998275591;684;1 A;
298.609204246084;0.79986572265625;0.08380126953125;6.83999998273066;685;1 A;
298.619204246059;0.8001708984375;0.08380126953125;6.84999998270541;686;1 A;
298.629204246034;0.79925537109375;0.083770751953125;6.85999998268016;687;1 A;
298.639204246008;0.79986572265625;0.083740234375;6.86999998265492;688;1 A;
298.649204245983;0.799560546875;0.083709716796875;6.87999998262967;689;1 A;
298.659204245958;0.79925537109375;0.083709716796875;6.88999998260442;690;1 A;
298.669204245933;0.799560546875;0.08367919921875;6.89999998257917;691;1 A;
298.679204245907;0.79925537109375;0.083648681640625;6.90999998255393;692;1 A;
298.689204245882;0.79986572265625;0.0836181640625;6.91999998252868;693;1 A;
298.699204245857;0.79986572265625;0.083587646484375;6.92999998250343;694;1 A;
298.709204245832;0.799560546875;0.083587646484375;6.93999998247818;695;1 A;
298.719204245807;0.799560546875;0.08355712890625;6.94999998245294;696;1 A;
298.729204245781;0.8001708984375;0.083526611328125;6.95999998242769;697;1 A;
298.739204245756;0.79986572265625;0.08349609375;6.96999998240244;698;1 A;
298.749204245731;0.7989501953125;0.083465576171875;6.97999998237719;699;1 A;
298.759204245706;0.799560546875;0.08343505859375;6.98999998235195;700;1 A;
298.76920424568;0.79986572265625;0.08343505859375;6.9999999823267;701;1 A;
298.779204245655;0.799560546875;0.083404541015625;7.00999998230145;702;1 A;
298.78920424563;0.79986572265625;0.083404541015625;7.0199999822762;703;1 A;
298.799204245605;0.7989501953125;0.083343505859375;7.02999998225096;704;1 A;
298.809204245579;0.79986572265625;0.083343505859375;7.03999998222571;705;1 A;
298.819204245554;0.799560546875;0.08331298828125;7.04999998220046;706;1 A;
298.829204245529;0.79986572265625;0.083282470703125;7.05999998217521;707;1 A;
298.839204245504;0.8001708984375;0.083251953125;7.06999998214997;708;1 A;
298.849204245478;0.79986572265625;0.083221435546875;7.07999998212472;709;1 A;
298.859204245453;0.79986572265625;0.083221435546875;7.08999998209947;710;1 A;
298.869204245428;0.79986572265625;0.08319091796875;7.09999998207422;711;1 A;
298.879204245403;0.79986572265625;0.083160400390625;7.10999998204898;712;1 A;
298.889204245377;0.79986572265625;0.0831298828125;7.11999998202373;713;1 A;
298.899204245352;0.799560546875;0.083099365234375;7.12999998199848;714;1 A;
298.909204245327;0.799560546875;0.08306884765625;7.13999998197323;715;1 A;
298.919204245302;0.79986572265625;0.08306884765625;7.14999998194799;716;1 A;
298.929204245276;0.79986572265625;0.083038330078125;7.15999998192274;717;1 A;
298.939204245251;0.79986572265625;0.0830078125;7.16999998189749;718;1 A;
298.949204245226;0.8001708984375;0.082977294921875;7.17999998187224;719;1 A;
298.959204245201;0.79986572265625;0.082977294921875;7.189999981847;720;1 A;
298.969204245175;0.79986572265625;0.08294677734375;7.19999998182175;721;1 A;
298.97920424515;0.79986572265625;0.082916259765625;7.2099999817965;722;1 A;
298.989204245125;0.799560546875;0.0828857421875;7.21999998177125;723;1 A;
298.9992042451;0.8001708984375;0.082855224609375;7.229999981746;724;1 A;
299.009204245074;0.80047607421875;0.082855224609375;7.23999998172076;725;1 A;
299.019204245049;0.8001708984375;0.082794189453125;7.24999998169551;726;1 A;
299.029204245024;0.799560546875;0.082794189453125;7.25999998167026;727;1 A;
299.039204244999;0.8001708984375;0.082763671875;7.26999998164501;728;1 A;
299.049204244973;0.79925537109375;0.082733154296875;7.27999998161977;729;1 A;
299.059204244948;0.8001708984375;0.08270263671875;7.28999998159452;730;1 A;
299.069204244923;0.799560546875;0.08270263671875;7.29999998156927;731;1 A;
299.079204244898;0.799560546875;0.082672119140625;7.30999998154402;732;1 A;
299.089204244872;0.799560546875;0.0826416015625;7.31999998151878;733;1 A;
299.099204244847;0.79925537109375;0.082611083984375;7.32999998149353;734;1 A;
299.109204244822;0.79925537109375;0.08258056640625;7.33999998146828;735;1 A;
299.119204244797;0.799560546875;0.08258056640625;7.34999998144303;736;1 A;
299.129204244771;0.8001708984375;0.082550048828125;7.35999998141779;737;1 A;
299.139204244746;0.79925537109375;0.08251953125;7.36999998139254;738;1 A;
299.149204244721;0.79986572265625;0.082489013671875;7.37999998136729;739;1 A;
299.159204244696;0.8001708984375;0.08245849609375;7.38999998134204;740;1 A;
299.16920424467;0.799560546875;0.082427978515625;7.3999999813168;741;1 A;
299.179204244645;0.79925537109375;0.0823974609375;7.40999998129155;742;1 A;
299.18920424462;0.79925537109375;0.0823974609375;7.4199999812663;743;1 A;
299.199204244595;0.79986572265625;0.08233642578125;7.42999998124105;744;1 A;
299.209204244569;0.799560546875;0.08233642578125;7.43999998121581;745;1 A;
299.219204244544;0.799560546875;0.082305908203125;7.44999998119056;746;1 A;
299.229204244519;0.79986572265625;0.082275390625;7.45999998116531;747;1 A;
299.239204244494;0.79925537109375;0.082275390625;7.46999998114006;748;1 A;
299.249204244468;0.799560546875;0.08221435546875;7.47999998111482;749;1 A;
299.259204244443;0.79925537109375;0.08221435546875;7.48999998108957;750;1 A;
299.269204244418;0.799560546875;0.082183837890625;7.49999998106432;751;1 A;
299.279204244393;0.79986572265625;0.0821533203125;7.50999998103907;752;1 A;
299.289204244367;0.79986572265625;0.082122802734375;7.51999998101383;753;1 A;
299.299204244342;0.79986572265625;0.08209228515625;7.52999998098858;754;1 A;
299.309204244317;0.79925537109375;0.082061767578125;7.53999998096333;755;1 A;
299.319204244292;0.79986572265625;0.082061767578125;7.54999998093808;756;1 A;
299.329204244266;0.79986572265625;0.082000732421875;7.55999998091283;757;1 A;
299.339204244241;0.80047607421875;0.082000732421875;7.56999998088759;758;1 A;
299.349204244216;0.79986572265625;0.08197021484375;7.57999998086234;759;1 A;
299.359204244191;0.79986572265625;0.081939697265625;7.58999998083709;760;1 A;
299.369204244165;0.79986572265625;0.0819091796875;7.59999998081184;761;1 A;
299.37920424414;0.79986572265625;0.081878662109375;7.6099999807866;762;1 A;
299.389204244115;0.79986572265625;0.081878662109375;7.61999998076135;763;1 A;
299.39920424409;0.79986572265625;0.08184814453125;7.6299999807361;764;1 A;
299.409204244064;0.79986572265625;0.081817626953125;7.63999998071085;765;1 A;
299.419204244039;0.8001708984375;0.081787109375;7.64999998068561;766;1 A;
299.429204244014;0.79925537109375;0.081756591796875;7.65999998066036;767;1 A;
299.439204243989;0.79986572265625;0.081756591796875;7.66999998063511;768;1 A;
299.449204243963;0.79986572265625;0.081695556640625;7.67999998060986;769;1 A;
299.459204243938;0.79986572265625;0.081695556640625;7.68999998058462;770;1 A;
299.469204243913;0.799560546875;0.0816650390625;7.69999998055937;771;1 A;
299.479204243888;0.799560546875;0.081634521484375;7.70999998053412;772;1 A;
299.489204243862;0.799560546875;0.081634521484375;7.71999998050887;773;1 A;
299.499204243837;0.79986572265625;0.081573486328125;7.72999998048363;774;1 A;
299.509204243812;0.79986572265625;0.081573486328125;7.73999998045838;775;1 A;
299.519204243787;0.799560546875;0.08154296875;7.74999998043313;776;1 A;
299.529204243761;0.79986572265625;0.081512451171875;7.75999998040788;777;1 A;
299.539204243736;0.79986572265625;0.081512451171875;7.76999998038264;778;1 A;
299.549204243711;0.79986572265625;0.081451416015625;7.77999998035739;779;1 A;
299.559204243686;0.79986572265625;0.081451416015625;7.78999998033214;780;1 A;
299.56920424366;0.8001708984375;0.0814208984375;7.79999998030689;781;1 A;
299.579204243635;0.79986572265625;0.081390380859375;7.80999998028165;782;1 A;
299.58920424361;0.79986572265625;0.081390380859375;7.8199999802564;783;1 A;
299.599204243585;0.799560546875;0.081329345703125;7.82999998023115;784;1 A;
299.609204243559;0.8001708984375;0.081329345703125;7.8399999802059;785;1 A;
299.619204243534;0.79986572265625;0.081298828125;7.84999998018066;786;1 A;
299.629204243509;0.8001708984375;0.081268310546875;7.85999998015541;787;1 A;
299.639204243484;0.79986572265625;0.081268310546875;7.86999998013016;788;1 A;
299.649204243458;0.799560546875;0.08123779296875;7.87999998010491;789;1 A;
299.659204243433;0.79925537109375;0.081207275390625;7.88999998007966;790;1 A;
299.669204243408;0.79986572265625;0.0811767578125;7.89999998005442;791;1 A;
299.679204243383;0.8001708984375;0.0811767578125;7.90999998002917;792;1 A;
299.689204243357;0.79986572265625;0.081146240234375;7.91999998000392;793;1 A;
299.699204243332;0.799560546875;0.08111572265625;7.92999997997867;794;1 A;
299.709204243307;0.79986572265625;0.08111572265625;7.93999997995343;795;1 A;
299.719204243282;0.79986572265625;0.081085205078125;7.94999997992818;796;1 A;
299.729204243257;0.8001708984375;0.0810546875;7.95999997990293;797;1 A;
299.739204243231;0.8001708984375;0.0810546875;7.96999997987768;798;1 A;
299.749204243206;0.79986572265625;0.081024169921875;7.97999997985244;799;1 A;
299.759204243181;0.79986572265625;0.08099365234375;7.98999997982719;800;1 A;
299.769204243156;0.79986572265625;0.08099365234375;7.99999997980194;801;1 A;
299.77920424313;0.79986572265625;0.080963134765625;8.00999997977669;802;1 A;
299.789204243105;0.79925537109375;0.0809326171875;8.01999997975145;803;1 A;
299.79920424308;0.79986572265625;0.080902099609375;8.0299999797262;804;1 A;
299.809204243055;0.79986572265625;0.080902099609375;8.03999997970095;805;1 A;
299.819204243029;0.799560546875;0.08087158203125;8.0499999796757;806;1 A;
299.829204243004;0.799560546875;0.080841064453125;8.05999997965046;807;1 A;
299.839204242979;0.79986572265625;0.080841064453125;8.06999997962521;808;1 A;
299.849204242954;0.799560546875;0.080810546875;8.07999997959996;809;1 A;
299.859204242928;0.79925537109375;0.080810546875;8.08999997957471;810;1 A;
299.869204242903;0.79986572265625;0.080780029296875;8.09999997954947;811;1 A;
299.879204242878;0.79986572265625;0.08074951171875;8.10999997952422;812;1 A;
299.889204242853;0.79986572265625;0.08074951171875;8.11999997949897;813;1 A;
299.899204242827;0.79986572265625;0.080718994140625;8.12999997947372;814;1 A;
299.909204242802;0.79986572265625;0.0806884765625;8.13999997944848;815;1 A;
299.919204242777;0.799560546875;0.0806884765625;8.14999997942323;816;1 A;
299.929204242752;0.799560546875;0.080657958984375;8.15999997939798;817;1 A;
299.939204242726;0.79986572265625;0.08062744140625;8.16999997937273;818;1 A;
299.949204242701;0.799560546875;0.080596923828125;8.17999997934749;819;1 A;
299.959204242676;0.799560546875;0.080596923828125;8.18999997932224;820;1 A;
299.969204242651;0.799560546875;0.08056640625;8.19999997929699;821;1 A;
299.979204242625;0.79986572265625;0.080535888671875;8.20999997927174;822;1 A;
299.9892042426;0.79986572265625;0.080535888671875;8.2199999792465;823;1 A;
299.999204242575;0.79925537109375;0.08050537109375;8.22999997922125;824;1 A;
300.00920424255;0.799560546875;0.080474853515625;8.239999979196;825;1 A;
300.019204242524;0.79986572265625;0.080474853515625;8.24999997917075;826;1 A;
300.029204242499;0.79986572265625;0.0804443359375;8.2599999791455;827;1 A;
300.039204242474;0.79925537109375;0.0804443359375;8.26999997912026;828;1 A;
300.049204242449;0.79986572265625;0.080413818359375;8.27999997909501;829;1 A;
300.059204242423;0.799560546875;0.08038330078125;8.28999997906976;830;1 A;
300.069204242398;0.79986572265625;0.08038330078125;8.29999997904451;831;1 A;
300.079204242373;0.799560546875;0.080352783203125;8.30999997901927;832;1 A;
300.089204242348;0.79986572265625;0.080352783203125;8.31999997899402;833;1 A;
300.099204242322;0.79925537109375;0.080322265625;8.32999997896877;834;1 A;
300.109204242297;0.79986572265625;0.080291748046875;8.33999997894352;835;1 A;
300.119204242272;0.79986572265625;0.08026123046875;8.34999997891828;836;1 A;
300.129204242247;0.8001708984375;0.08026123046875;8.35999997889303;837;1 A;
300.139204242221;0.799560546875;0.08026123046875;8.36999997886778;838;1 A;
300.149204242196;0.799560546875;0.080230712890625;8.37999997884253;839;1 A;
300.159204242171;0.79925537109375;0.0802001953125;8.38999997881729;840;1 A;
300.169204242146;0.799560546875;0.080169677734375;8.39999997879204;841;1 A;
300.17920424212;0.79925537109375;0.080169677734375;8.40999997876679;842;1 A;
300.189204242095;0.799560546875;0.08013916015625;8.41999997874154;843;1 A;
300.19920424207;0.79986572265625;0.080108642578125;8.4299999787163;844;1 A;
300.209204242045;0.799560546875;0.080108642578125;8.43999997869105;845;1 A;
300.219204242019;0.8001708984375;0.080078125;8.4499999786658;846;1 A;
300.229204241994;0.8001708984375;0.080047607421875;8.45999997864055;847;1 A;
300.239204241969;0.79986572265625;0.080047607421875;8.46999997861531;848;1 A;
300.249204241944;0.799560546875;0.08001708984375;8.47999997859006;849;1 A;
300.259204241918;0.79986572265625;0.08001708984375;8.48999997856481;850;1 A;
300.269204241893;0.79986572265625;0.079986572265625;8.49999997853956;851;1 A;
300.279204241868;0.79986572265625;0.0799560546875;8.50999997851432;852;1 A;
300.289204241843;0.8001708984375;0.0799560546875;8.51999997848907;853;1 A;
300.299204241817;0.7989501953125;0.079925537109375;8.52999997846382;854;1 A;
300.309204241792;0.79986572265625;0.079925537109375;8.53999997843857;855;1 A;
300.319204241767;0.79986572265625;0.07989501953125;8.54999997841333;856;1 A;
300.329204241742;0.8001708984375;0.079864501953125;8.55999997838808;857;1 A;
300.339204241716;0.79986572265625;0.079864501953125;8.56999997836283;858;1 A;
300.349204241691;0.79986572265625;0.079833984375;8.57999997833758;859;1 A;
300.359204241666;0.799560546875;0.079803466796875;8.58999997831233;860;1 A;
300.369204241641;0.79986572265625;0.079803466796875;8.59999997828709;861;1 A;
300.379204241615;0.79925537109375;0.07977294921875;8.60999997826184;862;1 A;
300.38920424159;0.8001708984375;0.07977294921875;8.61999997823659;863;1 A;
300.399204241565;0.79986572265625;0.079742431640625;8.62999997821134;864;1 A;
300.40920424154;0.799560546875;0.0797119140625;8.6399999781861;865;1 A;
300.419204241514;0.79925537109375;0.0797119140625;8.64999997816085;866;1 A;
300.429204241489;0.799560546875;0.079681396484375;8.6599999781356;867;1 A;
300.439204241464;0.799560546875;0.079681396484375;8.66999997811035;868;1 A;
300.449204241439;0.799560546875;0.07965087890625;8.67999997808511;869;1 A;
300.459204241413;0.79925537109375;0.07965087890625;8.68999997805986;870;1 A;
300.469204241388;0.79986572265625;0.079620361328125;8.69999997803461;871;1 A;
300.479204241363;0.79986572265625;0.07958984375;8.70999997800936;872;1 A;
300.489204241338;0.799560546875;0.07958984375;8.71999997798412;873;1 A;
300.499204241312;0.79986572265625;0.079559326171875;8.72999997795887;874;1 A;
300.509204241287;0.8001708984375;0.079559326171875;8.73999997793362;875;1 A;
300.519204241262;0.799560546875;0.07952880859375;8.74999997790837;876;1 A;
300.529204241237;0.799560546875;0.079498291015625;8.75999997788313;877;1 A;
300.539204241211;0.79986572265625;0.079498291015625;8.76999997785788;878;1 A;
300.549204241186;0.79986572265625;0.0794677734375;8.77999997783263;879;1 A;
300.559204241161;0.799560546875;0.0794677734375;8.78999997780738;880;1 A;
300.569204241136;0.799560546875;0.079437255859375;8.79999997778214;881;1 A;
300.57920424111;0.799560546875;0.079437255859375;8.80999997775689;882;1 A;
300.589204241085;0.8001708984375;0.079437255859375;8.81999997773164;883;1 A;
300.59920424106;0.799560546875;0.07940673828125;8.82999997770639;884;1 A;
300.609204241035;0.79986572265625;0.079376220703125;8.83999997768115;885;1 A;
300.619204241009;0.799560546875;0.079376220703125;8.8499999776559;886;1 A;
300.629204240984;0.799560546875;0.079345703125;8.85999997763065;887;1 A;
300.639204240959;0.79986572265625;0.079345703125;8.8699999776054;888;1 A;
300.649204240934;0.799560546875;0.079315185546875;8.87999997758016;889;1 A;
300.659204240908;0.8001708984375;0.079315185546875;8.88999997755491;890;1 A;
300.669204240883;0.799560546875;0.07928466796875;8.89999997752966;891;1 A;
300.679204240858;0.8001708984375;0.079254150390625;8.90999997750441;892;1 A;
300.689204240833;0.79986572265625;0.079254150390625;8.91999997747916;893;1 A;
300.699204240807;0.79925537109375;0.0792236328125;8.92999997745392;894;1 A;
300.709204240782;0.79986572265625;0.0792236328125;8.93999997742867;895;1 A;
300.719204240757;0.79986572265625;0.0792236328125;8.94999997740342;896;1 A;
300.729204240732;0.799560546875;0.079193115234375;8.95999997737817;897;1 A;
300.739204240706;0.79986572265625;0.079193115234375;8.96999997735293;898;1 A;
300.749204240681;0.799560546875;0.07916259765625;8.97999997732768;899;1 A;
300.759204240656;0.79986572265625;0.07916259765625;8.98999997730243;900;1 A;
300.769204240631;0.8001708984375;0.079132080078125;8.99999997727718;901;1 A;
300.779204240606;0.799560546875;0.079132080078125;9.00999997725194;902;1 A;
300.78920424058;0.799560546875;0.079132080078125;9.01999997722669;903;1 A;
300.799204240555;0.79925537109375;0.0791015625;9.02999997720144;904;1 A;
300.80920424053;0.799560546875;0.0791015625;9.03999997717619;905;1 A;
300.819204240505;0.8001708984375;0.079071044921875;9.04999997715095;906;1 A;
300.829204240479;0.79986572265625;0.07904052734375;9.0599999771257;907;1 A;
300.839204240454;0.799560546875;0.07904052734375;9.06999997710045;908;1 A;
300.849204240429;0.79925537109375;0.079010009765625;9.0799999770752;909;1 A;
300.859204240404;0.8001708984375;0.079010009765625;9.08999997704996;910;1 A;
300.869204240378;0.79925537109375;0.079010009765625;9.09999997702471;911;1 A;
300.879204240353;0.799560546875;0.0789794921875;9.10999997699946;912;1 A;
300.889204240328;0.8001708984375;0.0789794921875;9.11999997697421;913;1 A;
300.899204240303;0.79925537109375;0.078948974609375;9.12999997694897;914;1 A;
300.909204240277;0.8001708984375;0.078948974609375;9.13999997692372;915;1 A;
300.919204240252;0.79986572265625;0.078948974609375;9.14999997689847;916;1 A;
300.929204240227;0.799560546875;0.07891845703125;9.15999997687322;917;1 A;
300.939204240202;0.79986572265625;0.07891845703125;9.16999997684798;918;1 A;
300.949204240176;0.799560546875;0.078887939453125;9.17999997682273;919;1 A;
300.959204240151;0.79986572265625;0.078887939453125;9.18999997679748;920;1 A;
300.969204240126;0.79986572265625;0.078857421875;9.19999997677223;921;1 A;
300.979204240101;0.8001708984375;0.078857421875;9.20999997674699;922;1 A;
300.989204240075;0.79986572265625;0.078857421875;9.21999997672174;923;1 A;
300.99920424005;0.799560546875;0.078826904296875;9.22999997669649;924;1 A;
301.009204240025;0.799560546875;0.078826904296875;9.23999997667124;925;1 A;
301.01920424;0.799560546875;0.07879638671875;9.249999976646;926;1 A;
301.029204239974;0.79986572265625;0.07879638671875;9.25999997662075;927;1 A;
301.039204239949;0.7989501953125;0.07879638671875;9.2699999765955;928;1 A;
301.049204239924;0.79986572265625;0.078765869140625;9.27999997657025;929;1 A;
301.059204239899;0.799560546875;0.078765869140625;9.289999976545;930;1 A;
301.069204239873;0.79986572265625;0.0787353515625;9.29999997651976;931;1 A;
301.079204239848;0.799560546875;0.0787353515625;9.30999997649451;932;1 A;
301.089204239823;0.79925537109375;0.0787353515625;9.31999997646926;933;1 A;
301.099204239798;0.79986572265625;0.078704833984375;9.32999997644401;934;1 A;
301.109204239772;0.8001708984375;0.078704833984375;9.33999997641877;935;1 A;
301.119204239747;0.79986572265625;0.078704833984375;9.34999997639352;936;1 A;
301.129204239722;0.79925537109375;0.07867431640625;9.35999997636827;937;1 A;
301.139204239697;0.8001708984375;0.07867431640625;9.36999997634302;938;1 A;
301.149204239671;0.799560546875;0.078643798828125;9.37999997631778;939;1 A;
301.159204239646;0.79986572265625;0.078643798828125;9.38999997629253;940;1 A;
301.169204239621;0.79864501953125;0.078643798828125;9.39999997626728;941;1 A;
301.179204239596;0.79986572265625;0.07861328125;9.40999997624203;942;1 A;
301.18920423957;0.799560546875;0.07861328125;9.41999997621679;943;1 A;
301.199204239545;0.799560546875;0.078582763671875;9.42999997619154;944;1 A;
301.20920423952;0.79986572265625;0.078582763671875;9.43999997616629;945;1 A;
301.219204239495;0.79986572265625;0.078582763671875;9.44999997614104;946;1 A;
301.229204239469;0.8001708984375;0.07855224609375;9.4599999761158;947;1 A;
301.239204239444;0.8001708984375;0.07855224609375;9.46999997609055;948;1 A;
301.249204239419;0.79986572265625;0.07855224609375;9.4799999760653;949;1 A;
301.259204239394;0.79925537109375;0.078521728515625;9.48999997604005;950;1 A;
301.269204239368;0.7989501953125;0.078521728515625;9.49999997601481;951;1 A;
301.279204239343;0.79986572265625;0.0784912109375;9.50999997598956;952;1 A;
301.289204239318;0.799560546875;0.0784912109375;9.51999997596431;953;1 A;
301.299204239293;0.79986572265625;0.0784912109375;9.52999997593906;954;1 A;
301.309204239267;0.79986572265625;0.0784912109375;9.53999997591382;955;1 A;
301.319204239242;0.799560546875;0.078460693359375;9.54999997588857;956;1 A;
301.329204239217;0.79986572265625;0.078460693359375;9.55999997586332;957;1 A;
301.339204239192;0.79986572265625;0.078460693359375;9.56999997583807;958;1 A;
301.349204239166;0.79986572265625;0.07843017578125;9.57999997581283;959;1 A;
301.359204239141;0.8001708984375;0.07843017578125;9.58999997578758;960;1 A;
301.369204239116;0.799560546875;0.07843017578125;9.59999997576233;961;1 A;
301.379204239091;0.79925537109375;0.078399658203125;9.60999997573708;962;1 A;
301.389204239065;0.799560546875;0.07843017578125;9.61999997571183;963;1 A;
301.39920423904;0.799560546875;0.078399658203125;9.62999997568659;964;1 A;
301.409204239015;0.79986572265625;0.078399658203125;9.63999997566134;965;1 A;
301.41920423899;0.799560546875;0.078369140625;9.64999997563609;966;1 A;
301.429204238964;0.79986572265625;0.078369140625;9.65999997561084;967;1 A;
301.439204238939;0.79986572265625;0.078369140625;9.6699999755856;968;1 A;
301.449204238914;0.799560546875;0.078338623046875;9.67999997556035;969;1 A;
301.459204238889;0.799560546875;0.078338623046875;9.6899999755351;970;1 A;
301.469204238863;0.79986572265625;0.078338623046875;9.69999997550985;971;1 A;
301.479204238838;0.8001708984375;0.07830810546875;9.70999997548461;972;1 A;
301.489204238813;0.799560546875;0.078338623046875;9.71999997545936;973;1 A;
301.499204238788;0.799560546875;0.07830810546875;9.72999997543411;974;1 A;
301.509204238762;0.79986572265625;0.07830810546875;9.73999997540886;975;1 A;
301.519204238737;0.79986572265625;0.078277587890625;9.74999997538362;976;1 A;
301.529204238712;0.799560546875;0.078277587890625;9.75999997535837;977;1 A;
301.539204238687;0.79986572265625;0.078277587890625;9.76999997533312;978;1 A;
301.549204238661;0.799560546875;0.078277587890625;9.77999997530787;979;1 A;
301.559204238636;0.8001708984375;0.0782470703125;9.78999997528263;980;1 A;
301.569204238611;0.79986572265625;0.0782470703125;9.79999997525738;981;1 A;
301.579204238586;0.79986572265625;0.078216552734375;9.80999997523213;982;1 A;
301.58920423856;0.79925537109375;0.078216552734375;9.81999997520688;983;1 A;
301.599204238535;0.79986572265625;0.078216552734375;9.82999997518164;984;1 A;
301.60920423851;0.799560546875;0.07818603515625;9.83999997515639;985;1 A;
301.619204238485;0.799560546875;0.07818603515625;9.84999997513114;986;1 A;
301.629204238459;0.79986572265625;0.078155517578125;9.85999997510589;987;1 A;
301.639204238434;0.79986572265625;0.07818603515625;9.86999997508065;988;1 A;
301.649204238409;0.799560546875;0.078155517578125;9.8799999750554;989;1 A;
301.659204238384;0.799560546875;0.078155517578125;9.88999997503015;990;1 A;
301.669204238358;0.799560546875;0.078155517578125;9.8999999750049;991;1 A;
301.679204238333;0.79986572265625;0.078125;9.90999997497966;992;1 A;
301.689204238308;0.799560546875;0.078125;9.91999997495441;993;1 A;
301.699204238283;0.799560546875;0.078094482421875;9.92999997492916;994;1 A;
301.709204238257;0.79986572265625;0.078094482421875;9.93999997490391;995;1 A;
301.719204238232;0.79925537109375;0.078094482421875;9.94999997487866;996;1 A;
301.729204238207;0.799560546875;0.07806396484375;9.95999997485342;997;1 A;
301.739204238182;0.79986572265625;0.078094482421875;9.96999997482817;998;1 A;
301.749204238156;0.79986572265625;0.07806396484375;9.97999997480292;999;1 A;
301.759204238131;0.799560546875;0.07806396484375;9.98999997477767;1000;1 A;
