Time (s);WE(1).Potential (V);WE(1).Current (A);Corrected time (s);Index;Current range
6.20032998434567;-0.2998046875;-0.0076141357421875;0;1;1 A
6.21032998432042;-0.299835205078125;-0.0078125;0.00999999997475243;2;1 A
6.22032998429518;-0.29974365234375;-0.007916259765625;0.0199999999495049;3;1 A
6.23032998426993;-0.299774169921875;-0.0079925537109375;0.0299999999242573;4;1 A
6.24032998424468;-0.2998046875;-0.0079833984375;0.0399999998990097;5;1 A
6.25032998421943;-0.299774169921875;-0.0079986572265625;0.0499999998737621;6;1 A
6.26032998419419;-0.299896240234375;-0.00803527832031251;0.0599999998485146;7;1 A
6.27032998416894;-0.299835205078125;-0.00802001953125001;0.069999999823267;8;1 A
6.28032998414369;-0.299896240234375;-0.00806579589843751;0.0799999997980194;9;1 A
6.29032998411844;-0.299835205078125;-0.0081207275390625;0.0899999997727718;10;1 A
6.3003299840932;-0.29986572265625;-0.00810852050781249;0.0999999997475243;11;1 A
6.31032998406795;-0.299896240234375;-0.00810852050781249;0.109999999722277;12;1 A
6.3203299840427;-0.29986572265625;-0.0081451416015625;0.119999999697029;13;1 A
6.33032998401745;-0.299774169921875;-0.008135986328125;0.129999999671782;14;1 A
6.34032998399221;-0.29986572265625;-0.00814208984375001;0.139999999646534;15;1 A
6.35032998396696;-0.29986572265625;-0.008197021484375;0.149999999621286;16;1 A
6.36032998394171;-0.2998046875;-0.0081817626953125;0.159999999596039;17;1 A
6.37032998391646;-0.29986572265625;-0.00820312500000001;0.169999999570791;18;1 A
6.38032998389122;-0.2998046875;-0.00826416015625001;0.179999999545544;19;1 A
6.39032998386597;-0.2998046875;-0.0082672119140625;0.189999999520296;20;1 A
6.40032998384072;-0.2999267578125;-0.00829467773437501;0.199999999495049;21;1 A
6.41032998381547;-0.2998046875;-0.0083587646484375;0.209999999469801;22;1 A
6.42032998379023;-0.2998046875;-0.00834045410156251;0.219999999444553;23;1 A
6.43032998376498;-0.299774169921875;-0.0083892822265625;0.229999999419306;24;1 A
6.44032998373973;-0.29974365234375;-0.008453369140625;0.239999999394058;25;1 A
6.45032998371448;-0.299774169921875;-0.00841064453125;0.249999999368811;26;1 A
6.46032998368923;-0.299774169921875;-0.00838317871093749;0.259999999343563;27;1 A
6.47032998366399;-0.299774169921875;-0.0084381103515625;0.269999999318316;28;1 A
6.48032998363874;-0.29986572265625;-0.0084259033203125;0.279999999293068;29;1 A
6.49032998361349;-0.29974365234375;-0.0084075927734375;0.28999999926782;30;1 A
6.50032998358824;-0.2998046875;-0.0084197998046875;0.299999999242573;31;1 A
6.510329983563;-0.299774169921875;-0.00836791992187499;0.309999999217325;32;1 A
6.52032998353775;-0.29974365234375;-0.008331298828125;0.319999999192078;33;1 A
6.5303299835125;-0.2998046875;-0.008349609375;0.32999999916683;34;1 A
6.54032998348725;-0.299774169921875;-0.0083038330078125;0.339999999141583;35;1 A
6.55032998346201;-0.299835205078125;-0.0082672119140625;0.349999999116335;36;1 A
6.56032998343676;-0.299896240234375;-0.00830078125;0.359999999091087;37;1 A
6.57032998341151;-0.2998046875;-0.008282470703125;0.36999999906584;38;1 A
6.58032998338626;-0.29986572265625;-0.00829162597656249;0.379999999040592;39;1 A
6.59032998336102;-0.29986572265625;-0.008343505859375;0.389999999015345;40;1 A
6.60032998333577;-0.2998046875;-0.00830993652343751;0.399999998990097;41;1 A
6.61032998331052;-0.299896240234375;-0.0082855224609375;0.40999999896485;42;1 A
6.62032998328527;-0.299835205078125;-0.008331298828125;0.419999998939602;43;1 A
6.63032998326003;-0.299835205078125;-0.008349609375;0.429999998914354;44;1 A
6.64032998323478;-0.29986572265625;-0.00835266113281249;0.439999998889107;45;1 A
6.65032998320953;-0.2998046875;-0.00842895507812499;0.449999998863859;46;1 A
6.66032998318428;-0.29974365234375;-0.00842895507812499;0.459999998838612;47;1 A
6.67032998315904;-0.29974365234375;-0.008441162109375;0.469999998813364;48;1 A
6.68032998313379;-0.299774169921875;-0.00849609375;0.479999998788116;49;1 A
6.69032998310854;-0.299835205078125;-0.00844726562500001;0.489999998762869;50;1 A
6.70032998308329;-0.299774169921875;-0.00841064453125;0.499999998737621;51;1 A
6.71032998305805;-0.299835205078125;-0.0084197998046875;0.509999998712374;52;1 A
6.7203299830328;-0.29974365234375;-0.00838317871093749;0.519999998687126;53;1 A
6.73032998300755;-0.2998046875;-0.008349609375;0.529999998661879;54;1 A
6.7403299829823;-0.29986572265625;-0.00838317871093749;0.539999998636631;55;1 A
6.75032998295706;-0.299774169921875;-0.0083648681640625;0.549999998611383;56;1 A
6.76032998293181;-0.29986572265625;-0.0083770751953125;0.559999998586136;57;1 A
6.77032998290656;-0.299896240234375;-0.008453369140625;0.569999998560888;58;1 A
6.78032998288131;-0.299774169921875;-0.0084259033203125;0.579999998535641;59;1 A
6.79032998285606;-0.2999267578125;-0.00839843749999999;0.589999998510393;60;1 A
6.80032998283082;-0.2998046875;-0.00844421386718749;0.599999998485146;61;1 A
6.81032998280557;-0.299774169921875;-0.00841369628906249;0.609999998459898;62;1 A
6.82032998278032;-0.299835205078125;-0.00841369628906249;0.61999999843465;63;1 A
6.83032998275507;-0.299835205078125;-0.00849609375;0.629999998409403;64;1 A
6.84032998272983;-0.2998046875;-0.0084991455078125;0.639999998384155;65;1 A
6.85032998270458;-0.29974365234375;-0.00849609375;0.649999998358908;66;1 A
6.86032998267933;-0.2998046875;-0.00853271484375;0.65999999833366;67;1 A
6.87032998265408;-0.299774169921875;-0.008502197265625;0.669999998308413;68;1 A
6.88032998262884;-0.29974365234375;-0.0084716796875;0.679999998283165;69;1 A
6.89032998260359;-0.2998046875;-0.0084869384765625;0.689999998257917;70;1 A
6.90032998257834;-0.299835205078125;-0.00843200683593751;0.69999999823267;71;1 A
6.91032998255309;-0.299835205078125;-0.00843505859375;0.709999998207422;72;1 A
6.92032998252785;-0.2998046875;-0.0084991455078125;0.719999998182175;73;1 A
6.9303299825026;-0.29974365234375;-0.00848388671875;0.729999998156927;74;1 A
6.94032998247735;-0.299835205078125;-0.0084564208984375;0.73999999813168;75;1 A
6.9503299824521;-0.29986572265625;-0.00848388671875;0.749999998106432;76;1 A
6.96032998242686;-0.2998046875;-0.00843200683593751;0.759999998081184;77;1 A
6.97032998240161;-0.299835205078125;-0.008380126953125;0.769999998055937;78;1 A
6.98032998237636;-0.299896240234375;-0.0083892822265625;0.779999998030689;79;1 A
6.99032998235111;-0.299835205078125;-0.008331298828125;0.789999998005442;80;1 A
7.00032998232587;-0.299896240234375;-0.008282470703125;0.799999997980194;81;1 A
7.01032998230062;-0.299835205078125;-0.00830993652343751;0.809999997954947;82;1 A
7.02032998227537;-0.299835205078125;-0.0083282470703125;0.819999997929699;83;1 A
7.03032998225012;-0.29986572265625;-0.008319091796875;0.829999997904451;84;1 A
7.04032998222488;-0.299835205078125;-0.00832519531250001;0.839999997879204;85;1 A
7.05032998219963;-0.299774169921875;-0.00829162597656249;0.849999997853956;86;1 A
7.06032998217438;-0.299774169921875;-0.00824584960937499;0.859999997828709;87;1 A
7.07032998214913;-0.2998046875;-0.0083038330078125;0.869999997803461;88;1 A
7.08032998212389;-0.299835205078125;-0.00836181640625;0.879999997778214;89;1 A
7.09032998209864;-0.299835205078125;-0.00844421386718749;0.889999997752966;90;1 A
7.10032998207339;-0.2998046875;-0.00860595703125;0.899999997727718;91;1 A
7.11032998204814;-0.299835205078125;-0.0086395263671875;0.909999997702471;92;1 A
7.12032998202289;-0.299835205078125;-0.00861206054687499;0.919999997677223;93;1 A
7.13032998199765;-0.29986572265625;-0.00861511230468751;0.929999997651976;94;1 A
7.1403299819724;-0.2998046875;-0.00853576660156249;0.939999997626728;95;1 A
7.15032998194715;-0.299774169921875;-0.00844726562500001;0.949999997601481;96;1 A
7.1603299819219;-0.299835205078125;-0.00840148925781251;0.959999997576233;97;1 A
7.17032998189666;-0.299835205078125;-0.00836791992187499;0.969999997550985;98;1 A
7.18032998187141;-0.299835205078125;-0.00832214355468749;0.979999997525738;99;1 A
7.19032998184616;-0.29986572265625;-0.00832214355468749;0.98999999750049;100;1 A
7.20032998182091;-0.299774169921875;-0.0082672119140625;0.999999997475243;101;1 A
7.21032998179567;-0.299835205078125;-0.0082244873046875;1.00999999745;102;1 A
7.22032998177042;-0.2998046875;-0.008258056640625;1.01999999742475;103;1 A
7.23032998174517;-0.299774169921875;-0.00824584960937499;1.0299999973995;104;1 A
7.24032998171992;-0.299835205078125;-0.008258056640625;1.03999999737425;105;1 A
7.25032998169468;-0.2998046875;-0.00832214355468749;1.049999997349;106;1 A
7.26032998166943;-0.299774169921875;-0.008331298828125;1.05999999732376;107;1 A
7.27032998164418;-0.29974365234375;-0.00835266113281249;1.06999999729851;108;1 A
7.28032998161893;-0.299774169921875;-0.00842895507812499;1.07999999727326;109;1 A
7.29032998159369;-0.299774169921875;-0.00843200683593751;1.08999999724801;110;1 A
7.30032998156844;-0.299774169921875;-0.0084259033203125;1.09999999722277;111;1 A
7.31032998154319;-0.299835205078125;-0.0084381103515625;1.10999999719752;112;1 A
7.32032998151794;-0.299774169921875;-0.0084228515625;1.11999999717227;113;1 A
7.3303299814927;-0.29974365234375;-0.00842895507812499;1.12999999714702;114;1 A
7.34032998146745;-0.29986572265625;-0.008465576171875;1.13999999712178;115;1 A
7.3503299814422;-0.299774169921875;-0.00843200683593751;1.14999999709653;116;1 A
7.36032998141695;-0.299835205078125;-0.00840148925781251;1.15999999707128;117;1 A
7.37032998139171;-0.299835205078125;-0.00841674804687501;1.16999999704603;118;1 A
7.38032998136646;-0.2998046875;-0.00838623046875001;1.17999999702079;119;1 A
7.39032998134121;-0.2999267578125;-0.008380126953125;1.18999999699554;120;1 A
7.40032998131596;-0.299835205078125;-0.008441162109375;1.19999999697029;121;1 A
7.41032998129072;-0.299774169921875;-0.0084503173828125;1.20999999694504;122;1 A
7.42032998126547;-0.299835205078125;-0.00843505859375;1.2199999969198;123;1 A
7.43032998124022;-0.299774169921875;-0.008465576171875;1.22999999689455;124;1 A
7.44032998121497;-0.299774169921875;-0.00838317871093749;1.2399999968693;125;1 A
7.45032998118973;-0.2998046875;-0.00834045410156251;1.24999999684405;126;1 A
7.46032998116448;-0.29986572265625;-0.00841369628906249;1.25999999681881;127;1 A
7.47032998113923;-0.299774169921875;-0.008441162109375;1.26999999679356;128;1 A
7.48032998111398;-0.29974365234375;-0.00844421386718749;1.27999999676831;129;1 A
7.49032998108873;-0.299774169921875;-0.0084869384765625;1.28999999674306;130;1 A
7.50032998106349;-0.2998046875;-0.00845947265624999;1.29999999671782;131;1 A
7.51032998103824;-0.2998046875;-0.0084259033203125;1.30999999669257;132;1 A
7.52032998101299;-0.299835205078125;-0.00848388671875;1.31999999666732;133;1 A
7.53032998098774;-0.299774169921875;-0.008514404296875;1.32999999664207;134;1 A
7.5403299809625;-0.299835205078125;-0.008544921875;1.33999999661683;135;1 A
7.55032998093725;-0.299835205078125;-0.00861511230468751;1.34999999659158;136;1 A
7.560329980912;-0.2998046875;-0.00860595703125;1.35999999656633;137;1 A
7.57032998088675;-0.299835205078125;-0.00855102539062499;1.36999999654108;138;1 A
7.58032998086151;-0.29986572265625;-0.008544921875;1.37999999651583;139;1 A
7.59032998083626;-0.2998046875;-0.0085113525390625;1.38999999649059;140;1 A
7.60032998081101;-0.299896240234375;-0.00849304199218751;1.39999999646534;141;1 A
7.61032998078576;-0.299774169921875;-0.0085113525390625;1.40999999644009;142;1 A
7.62032998076052;-0.299774169921875;-0.0085174560546875;1.41999999641484;143;1 A
7.63032998073527;-0.2998046875;-0.008502197265625;1.4299999963896;144;1 A
7.64032998071002;-0.299774169921875;-0.00850524902343749;1.43999999636435;145;1 A
7.65032998068477;-0.299774169921875;-0.0084686279296875;1.4499999963391;146;1 A
7.66032998065953;-0.299713134765625;-0.00845947265624999;1.45999999631385;147;1 A
7.67032998063428;-0.299774169921875;-0.0085174560546875;1.46999999628861;148;1 A
7.68032998060903;-0.299774169921875;-0.0084991455078125;1.47999999626336;149;1 A
7.69032998058378;-0.29974365234375;-0.0084716796875;1.48999999623811;150;1 A
7.70032998055854;-0.299774169921875;-0.00849609375;1.49999999621286;151;1 A
7.71032998053329;-0.299774169921875;-0.0084686279296875;1.50999999618762;152;1 A
7.72032998050804;-0.2998046875;-0.008441162109375;1.51999999616237;153;1 A
7.73032998048279;-0.299835205078125;-0.00843505859375;1.52999999613712;154;1 A
7.74032998045755;-0.299774169921875;-0.00842895507812499;1.53999999611187;155;1 A
7.7503299804323;-0.2998046875;-0.0084869384765625;1.54999999608663;156;1 A
7.76032998040705;-0.299835205078125;-0.0085601806640625;1.55999999606138;157;1 A
7.7703299803818;-0.2998046875;-0.00855407714843751;1.56999999603613;158;1 A
7.78032998035656;-0.29986572265625;-0.00855102539062499;1.57999999601088;159;1 A
7.79032998033131;-0.299835205078125;-0.0085906982421875;1.58999999598564;160;1 A
7.80032998030606;-0.2998046875;-0.00855407714843751;1.59999999596039;161;1 A
7.81032998028081;-0.299835205078125;-0.0084991455078125;1.60999999593514;162;1 A
7.82032998025556;-0.29974365234375;-0.0085113525390625;1.61999999590989;163;1 A
7.83032998023032;-0.2998046875;-0.00848388671875;1.62999999588465;164;1 A
7.84032998020507;-0.29986572265625;-0.00847473144531249;1.6399999958594;165;1 A
7.85032998017982;-0.299774169921875;-0.00848999023437499;1.64999999583415;166;1 A
7.86032998015457;-0.29986572265625;-0.008441162109375;1.6599999958089;167;1 A
7.87032998012933;-0.299713134765625;-0.00841369628906249;1.66999999578366;168;1 A
7.88032998010408;-0.299774169921875;-0.00848999023437499;1.67999999575841;169;1 A
7.89032998007883;-0.2998046875;-0.00839843749999999;1.68999999573316;170;1 A
7.90032998005358;-0.299774169921875;-0.008343505859375;1.69999999570791;171;1 A
7.91032998002834;-0.299835205078125;-0.0083465576171875;1.70999999568267;172;1 A
7.92032998000309;-0.299835205078125;-0.008319091796875;1.71999999565742;173;1 A
7.93032997997784;-0.29974365234375;-0.008319091796875;1.72999999563217;174;1 A
7.94032997995259;-0.299835205078125;-0.008349609375;1.73999999560692;175;1 A
7.95032997992735;-0.299774169921875;-0.008331298828125;1.74999999558167;176;1 A
7.9603299799021;-0.299835205078125;-0.008270263671875;1.75999999555643;177;1 A
7.97032997987685;-0.299835205078125;-0.0082733154296875;1.76999999553118;178;1 A
7.9803299798516;-0.299774169921875;-0.00823364257812501;1.77999999550593;179;1 A
7.99032997982636;-0.299896240234375;-0.0082122802734375;1.78999999548068;180;1 A
8.00032997980111;-0.299835205078125;-0.00824584960937499;1.79999999545544;181;1 A
8.01032997977586;-0.299835205078125;-0.00818481445312499;1.80999999543019;182;1 A
8.02032997975061;-0.29986572265625;-0.008148193359375;1.81999999540494;183;1 A
8.03032997972537;-0.2998046875;-0.00816650390625;1.82999999537969;184;1 A
8.04032997970012;-0.299835205078125;-0.008160400390625;1.83999999535445;185;1 A
8.05032997967487;-0.299835205078125;-0.00815429687499999;1.8499999953292;186;1 A
8.06032997964962;-0.299774169921875;-0.00820312500000001;1.85999999530395;187;1 A
8.07032997962438;-0.2998046875;-0.0082122802734375;1.8699999952787;188;1 A
8.08032997959913;-0.299774169921875;-0.008221435546875;1.87999999525346;189;1 A
8.09032997957388;-0.29986572265625;-0.00826110839843749;1.88999999522821;190;1 A
8.10032997954863;-0.299774169921875;-0.00824890136718751;1.89999999520296;191;1 A
8.11032997952339;-0.2998046875;-0.0082275390625;1.90999999517771;192;1 A
8.12032997949814;-0.2998046875;-0.00824890136718751;1.91999999515247;193;1 A
8.13032997947289;-0.2998046875;-0.0081939697265625;1.92999999512722;194;1 A
8.14032997944764;-0.2998046875;-0.00816650390625;1.93999999510197;195;1 A
8.15032997942239;-0.29986572265625;-0.008209228515625;1.94999999507672;196;1 A
8.16032997939715;-0.299774169921875;-0.00820007324218749;1.95999999505148;197;1 A
8.1703299793719;-0.299835205078125;-0.008258056640625;1.96999999502623;198;1 A
8.18032997934665;-0.29986572265625;-0.00832214355468749;1.97999999500098;199;1 A
8.1903299793214;-0.299774169921875;-0.008319091796875;1.98999999497573;200;1 A
8.20032997929616;-0.299835205078125;-0.008319091796875;1.99999999495049;201;1 A
8.21032997927091;-0.29986572265625;-0.00837097167968751;2.00999999492524;202;1 A
8.22032997924566;-0.2998046875;-0.008349609375;2.01999999489999;203;1 A
8.23032997922041;-0.29986572265625;-0.008349609375;2.02999999487474;204;1 A
8.24032997919517;-0.299774169921875;-0.00841064453125;2.0399999948495;205;1 A
8.25032997916992;-0.299835205078125;-0.0083892822265625;2.04999999482425;206;1 A
8.26032997914467;-0.299774169921875;-0.0083648681640625;2.059999994799;207;1 A
8.27032997911942;-0.29974365234375;-0.00843505859375;2.06999999477375;208;1 A
8.28032997909418;-0.2998046875;-0.0084564208984375;2.0799999947485;209;1 A
8.29032997906893;-0.299835205078125;-0.00841369628906249;2.08999999472326;210;1 A
8.30032997904368;-0.2998046875;-0.00841674804687501;2.09999999469801;211;1 A
8.31032997901843;-0.2998046875;-0.0083343505859375;2.10999999467276;212;1 A
8.32032997899319;-0.2998046875;-0.008282470703125;2.11999999464751;213;1 A
8.33032997896794;-0.299896240234375;-0.00827941894531251;2.12999999462227;214;1 A
8.34032997894269;-0.299713134765625;-0.00824890136718751;2.13999999459702;215;1 A
8.35032997891744;-0.299835205078125;-0.00823364257812501;2.14999999457177;216;1 A
8.3603299788922;-0.29986572265625;-0.008258056640625;2.15999999454652;217;1 A
8.37032997886695;-0.299774169921875;-0.0082366943359375;2.16999999452128;218;1 A
8.3803299788417;-0.299835205078125;-0.00821533203124999;2.17999999449603;219;1 A
8.39032997881645;-0.299774169921875;-0.0082244873046875;2.18999999447078;220;1 A
8.40032997879121;-0.299835205078125;-0.0081939697265625;2.19999999444553;221;1 A
8.41032997876596;-0.2999267578125;-0.00818481445312499;2.20999999442029;222;1 A
8.42032997874071;-0.299835205078125;-0.0082366943359375;2.21999999439504;223;1 A
8.43032997871546;-0.29974365234375;-0.00824890136718751;2.22999999436979;224;1 A
8.44032997869022;-0.299835205078125;-0.00823364257812501;2.23999999434454;225;1 A
8.45032997866497;-0.29974365234375;-0.00826110839843749;2.2499999943193;226;1 A
8.46032997863972;-0.29974365234375;-0.00821838378906251;2.25999999429405;227;1 A
8.47032997861447;-0.299774169921875;-0.0082061767578125;2.2699999942688;228;1 A
8.48032997858922;-0.2998046875;-0.0082672119140625;2.27999999424355;229;1 A
8.49032997856398;-0.29974365234375;-0.00826416015625001;2.28999999421831;230;1 A
8.50032997853873;-0.299713134765625;-0.00824584960937499;2.29999999419306;231;1 A
8.51032997851348;-0.299835205078125;-0.00829162597656249;2.30999999416781;232;1 A
8.52032997848823;-0.2998046875;-0.00829162597656249;2.31999999414256;233;1 A
8.53032997846299;-0.299774169921875;-0.0082855224609375;2.32999999411732;234;1 A
8.54032997843774;-0.29986572265625;-0.00832214355468749;2.33999999409207;235;1 A
8.55032997841249;-0.299835205078125;-0.00832519531250001;2.34999999406682;236;1 A
8.56032997838724;-0.299835205078125;-0.00833740234374999;2.35999999404157;237;1 A
8.570329978362;-0.299835205078125;-0.0084075927734375;2.36999999401633;238;1 A
8.58032997833675;-0.299835205078125;-0.00840148925781251;2.37999999399108;239;1 A
8.5903299783115;-0.299835205078125;-0.008343505859375;2.38999999396583;240;1 A
8.60032997828625;-0.29986572265625;-0.00835571289062501;2.39999999394058;241;1 A
8.61032997826101;-0.29986572265625;-0.00833740234374999;2.40999999391533;242;1 A
8.62032997823576;-0.29986572265625;-0.0083282470703125;2.41999999389009;243;1 A
8.63032997821051;-0.299835205078125;-0.00835266113281249;2.42999999386484;244;1 A
8.64032997818526;-0.299774169921875;-0.00829162597656249;2.43999999383959;245;1 A
8.65032997816002;-0.2998046875;-0.00826110839843749;2.44999999381434;246;1 A
8.66032997813477;-0.29974365234375;-0.00830078125;2.4599999937891;247;1 A
8.67032997810952;-0.299774169921875;-0.0082855224609375;2.46999999376385;248;1 A
8.68032997808427;-0.299774169921875;-0.00823974609375;2.4799999937386;249;1 A
8.69032997805903;-0.2998046875;-0.0082244873046875;2.48999999371335;250;1 A
8.70032997803378;-0.2998046875;-0.00818786621093751;2.49999999368811;251;1 A
8.71032997800853;-0.299774169921875;-0.0081817626953125;2.50999999366286;252;1 A
8.72032997798328;-0.299774169921875;-0.0082427978515625;2.51999999363761;253;1 A
8.73032997795804;-0.2998046875;-0.0082427978515625;2.52999999361236;254;1 A
8.74032997793279;-0.2998046875;-0.00823364257812501;2.53999999358712;255;1 A
8.75032997790754;-0.29986572265625;-0.0082672119140625;2.54999999356187;256;1 A
8.76032997788229;-0.29986572265625;-0.0082061767578125;2.55999999353662;257;1 A
8.77032997785705;-0.2999267578125;-0.00816955566406249;2.56999999351137;258;1 A
8.7803299778318;-0.299835205078125;-0.00818786621093751;2.57999999348613;259;1 A
8.79032997780655;-0.2998046875;-0.00810852050781249;2.58999999346088;260;1 A
8.8003299777813;-0.29986572265625;-0.0080718994140625;2.59999999343563;261;1 A
8.81032997775606;-0.2998046875;-0.0081146240234375;2.60999999341038;262;1 A
8.82032997773081;-0.299774169921875;-0.00813903808593749;2.61999999338514;263;1 A
8.83032997770556;-0.29986572265625;-0.00815429687499999;2.62999999335989;264;1 A
8.84032997768031;-0.299835205078125;-0.0082275390625;2.63999999333464;265;1 A
8.85032997765506;-0.2998046875;-0.0082275390625;2.64999999330939;266;1 A
8.86032997762982;-0.299774169921875;-0.00823059082031249;2.65999999328415;267;1 A
8.87032997760457;-0.2998046875;-0.008282470703125;2.6699999932589;268;1 A
8.88032997757932;-0.2998046875;-0.00827636718749999;2.67999999323365;269;1 A
8.89032997755407;-0.29974365234375;-0.008270263671875;2.6899999932084;270;1 A
8.90032997752883;-0.299774169921875;-0.00832214355468749;2.69999999318316;271;1 A
8.91032997750358;-0.299835205078125;-0.00831298828125;2.70999999315791;272;1 A
8.92032997747833;-0.299713134765625;-0.00831298828125;2.71999999313266;273;1 A
8.93032997745308;-0.299835205078125;-0.00834045410156251;2.72999999310741;274;1 A
8.94032997742784;-0.299713134765625;-0.00832214355468749;2.73999999308217;275;1 A
8.95032997740259;-0.2998046875;-0.00831298828125;2.74999999305692;276;1 A
8.96032997737734;-0.299835205078125;-0.00836181640625;2.75999999303167;277;1 A
8.97032997735209;-0.2998046875;-0.008380126953125;2.76999999300642;278;1 A
8.98032997732685;-0.29986572265625;-0.00838623046875001;2.77999999298117;279;1 A
8.9903299773016;-0.299835205078125;-0.00843505859375;2.78999999295593;280;1 A
9.00032997727635;-0.299774169921875;-0.0084228515625;2.79999999293068;281;1 A
9.0103299772511;-0.29986572265625;-0.00841369628906249;2.80999999290543;282;1 A
9.02032997722586;-0.29986572265625;-0.00843505859375;2.81999999288018;283;1 A
9.03032997720061;-0.299774169921875;-0.0083953857421875;2.82999999285494;284;1 A
9.04032997717536;-0.299835205078125;-0.0083740234375;2.83999999282969;285;1 A
9.05032997715011;-0.299774169921875;-0.0084075927734375;2.84999999280444;286;1 A
9.06032997712487;-0.29986572265625;-0.0084197998046875;2.85999999277919;287;1 A
9.07032997709962;-0.2998046875;-0.00839843749999999;2.86999999275395;288;1 A
9.08032997707437;-0.2998046875;-0.00840148925781251;2.8799999927287;289;1 A
9.09032997704912;-0.29974365234375;-0.0083343505859375;2.88999999270345;290;1 A
9.10032997702388;-0.29974365234375;-0.00827941894531251;2.8999999926782;291;1 A
9.11032997699863;-0.299713134765625;-0.008251953125;2.90999999265296;292;1 A
9.12032997697338;-0.2998046875;-0.0082061767578125;2.91999999262771;293;1 A
9.13032997694813;-0.299774169921875;-0.0081939697265625;2.92999999260246;294;1 A
9.14032997692289;-0.299835205078125;-0.00823364257812501;2.93999999257721;295;1 A
9.15032997689764;-0.2998046875;-0.00821838378906251;2.94999999255197;296;1 A
9.16032997687239;-0.2998046875;-0.0082122802734375;2.95999999252672;297;1 A
9.17032997684714;-0.299896240234375;-0.00824890136718751;2.96999999250147;298;1 A
9.18032997682189;-0.29986572265625;-0.0082244873046875;2.97999999247622;299;1 A
9.19032997679665;-0.29986572265625;-0.008221435546875;2.98999999245098;300;1 A
9.2003299767714;-0.29986572265625;-0.00827636718749999;2.99999999242573;301;1 A
9.21032997674615;-0.299774169921875;-0.00829162597656249;3.00999999240048;302;1 A
9.2203299767209;-0.299835205078125;-0.00827636718749999;3.01999999237523;303;1 A
9.23032997669566;-0.299774169921875;-0.0082855224609375;3.02999999234999;304;1 A
9.24032997667041;-0.29974365234375;-0.0082733154296875;3.03999999232474;305;1 A
9.25032997664516;-0.299896240234375;-0.0082855224609375;3.04999999229949;306;1 A
9.26032997661991;-0.299774169921875;-0.00829162597656249;3.05999999227424;307;1 A
9.27032997659467;-0.299774169921875;-0.0082550048828125;3.069999992249;308;1 A
9.28032997656942;-0.2998046875;-0.0082550048828125;3.07999999222375;309;1 A
9.29032997654417;-0.29974365234375;-0.0082977294921875;3.0899999921985;310;1 A
9.30032997651892;-0.299835205078125;-0.0082733154296875;3.09999999217325;311;1 A
9.31032997649368;-0.29974365234375;-0.0082366943359375;3.109999992148;312;1 A
9.32032997646843;-0.299835205078125;-0.00823974609375;3.11999999212276;313;1 A
9.33032997644318;-0.2998046875;-0.008209228515625;3.12999999209751;314;1 A
9.34032997641793;-0.299774169921875;-0.00820312500000001;3.13999999207226;315;1 A
9.35032997639269;-0.29986572265625;-0.0082366943359375;3.14999999204701;316;1 A
9.36032997636744;-0.299774169921875;-0.00821838378906251;3.15999999202177;317;1 A
9.37032997634219;-0.2998046875;-0.008197021484375;3.16999999199652;318;1 A
9.38032997631694;-0.29986572265625;-0.0082122802734375;3.17999999197127;319;1 A
9.3903299762917;-0.2998046875;-0.00816955566406249;3.18999999194602;320;1 A
9.40032997626645;-0.29986572265625;-0.008148193359375;3.19999999192078;321;1 A
9.4103299762412;-0.299835205078125;-0.00818786621093751;3.20999999189553;322;1 A
9.42032997621595;-0.299774169921875;-0.00820007324218749;3.21999999187028;323;1 A
9.43032997619071;-0.2998046875;-0.0082061767578125;3.22999999184503;324;1 A
9.44032997616546;-0.2998046875;-0.00824584960937499;3.23999999181979;325;1 A
9.45032997614021;-0.2998046875;-0.0082672119140625;3.24999999179454;326;1 A
9.46032997611496;-0.29986572265625;-0.008258056640625;3.25999999176929;327;1 A
9.47032997608972;-0.299713134765625;-0.00831298828125;3.26999999174404;328;1 A
9.48032997606447;-0.29974365234375;-0.0082977294921875;3.2799999917188;329;1 A
9.49032997603922;-0.299774169921875;-0.008258056640625;3.28999999169355;330;1 A
9.50032997601397;-0.29986572265625;-0.00827941894531251;3.2999999916683;331;1 A
9.51032997598872;-0.29986572265625;-0.00828857421875;3.30999999164305;332;1 A
9.52032997596348;-0.2996826171875;-0.00830993652343751;3.31999999161781;333;1 A
9.53032997593823;-0.299774169921875;-0.0083740234375;3.32999999159256;334;1 A
9.54032997591298;-0.299774169921875;-0.0083587646484375;3.33999999156731;335;1 A
9.55032997588773;-0.29974365234375;-0.00832214355468749;3.34999999154206;336;1 A
9.56032997586249;-0.29986572265625;-0.0083343505859375;3.35999999151682;337;1 A
9.57032997583724;-0.2998046875;-0.008331298828125;3.36999999149157;338;1 A
9.58032997581199;-0.2998046875;-0.008331298828125;3.37999999146632;339;1 A
9.59032997578674;-0.29986572265625;-0.00838623046875001;3.38999999144107;340;1 A
9.6003299757615;-0.299835205078125;-0.0084075927734375;3.39999999141583;341;1 A
9.61032997573625;-0.2999267578125;-0.0083770751953125;3.40999999139058;342;1 A
9.620329975711;-0.29986572265625;-0.00836181640625;3.41999999136533;343;1 A
9.63032997568575;-0.299774169921875;-0.00828857421875;3.42999999134008;344;1 A
9.64032997566051;-0.299835205078125;-0.008251953125;3.43999999131483;345;1 A
9.65032997563526;-0.299774169921875;-0.008282470703125;3.44999999128959;346;1 A
9.66032997561001;-0.2998046875;-0.0082550048828125;3.45999999126434;347;1 A
9.67032997558476;-0.29986572265625;-0.00823974609375;3.46999999123909;348;1 A
9.68032997555952;-0.299713134765625;-0.008258056640625;3.47999999121384;349;1 A
9.69032997553427;-0.299774169921875;-0.00821838378906251;3.4899999911886;350;1 A
9.70032997550902;-0.299713134765625;-0.00818481445312499;3.49999999116335;351;1 A
9.71032997548377;-0.29974365234375;-0.0082244873046875;3.5099999911381;352;1 A
9.72032997545853;-0.29974365234375;-0.0082366943359375;3.51999999111285;353;1 A
9.73032997543328;-0.2996826171875;-0.0082275390625;3.52999999108761;354;1 A
9.74032997540803;-0.299774169921875;-0.00823974609375;3.53999999106236;355;1 A
9.75032997538278;-0.2998046875;-0.00818786621093751;3.54999999103711;356;1 A
9.76032997535754;-0.299774169921875;-0.0081146240234375;3.55999999101186;357;1 A
9.77032997533229;-0.29986572265625;-0.0081146240234375;3.56999999098662;358;1 A
9.78032997530704;-0.299774169921875;-0.0081207275390625;3.57999999096137;359;1 A
9.79032997528179;-0.299835205078125;-0.0081329345703125;3.58999999093612;360;1 A
9.80032997525655;-0.299835205078125;-0.008209228515625;3.59999999091087;361;1 A
9.8103299752313;-0.299774169921875;-0.00823974609375;3.60999999088563;362;1 A
9.82032997520605;-0.29986572265625;-0.00829162597656249;3.61999999086038;363;1 A
9.8303299751808;-0.299835205078125;-0.0083587646484375;3.62999999083513;364;1 A
9.84032997515556;-0.299835205078125;-0.00835266113281249;3.63999999080988;365;1 A
9.85032997513031;-0.299835205078125;-0.008331298828125;3.64999999078464;366;1 A
9.86032997510506;-0.2998046875;-0.0083648681640625;3.65999999075939;367;1 A
9.87032997507981;-0.29974365234375;-0.0083343505859375;3.66999999073414;368;1 A
9.88032997505456;-0.299835205078125;-0.00830078125;3.67999999070889;369;1 A
9.89032997502932;-0.299774169921875;-0.00830688476562499;3.68999999068365;370;1 A
9.90032997500407;-0.299835205078125;-0.00826110839843749;3.6999999906584;371;1 A
9.91032997497882;-0.299774169921875;-0.008251953125;3.70999999063315;372;1 A
9.92032997495357;-0.299774169921875;-0.00832214355468749;3.7199999906079;373;1 A
9.93032997492833;-0.29974365234375;-0.0083282470703125;3.72999999058266;374;1 A
9.94032997490308;-0.29974365234375;-0.008349609375;3.73999999055741;375;1 A
9.95032997487783;-0.299835205078125;-0.0084075927734375;3.74999999053216;376;1 A
9.96032997485258;-0.299774169921875;-0.0083953857421875;3.75999999050691;377;1 A
9.97032997482734;-0.299774169921875;-0.00836181640625;3.76999999048167;378;1 A
9.98032997480209;-0.299774169921875;-0.0083587646484375;3.77999999045642;379;1 A
9.99032997477684;-0.2998046875;-0.00835571289062501;3.78999999043117;380;1 A
10.0003299747516;-0.299835205078125;-0.00832519531250001;3.79999999040592;381;1 A
10.0103299747263;-0.299835205078125;-0.0083465576171875;3.80999999038067;382;1 A
10.0203299747011;-0.2998046875;-0.00833740234374999;3.81999999035543;383;1 A
10.0303299746759;-0.29986572265625;-0.008319091796875;3.82999999033018;384;1 A
10.0403299746506;-0.299835205078125;-0.00835571289062501;3.83999999030493;385;1 A
10.0503299746254;-0.2998046875;-0.00831298828125;3.84999999027968;386;1 A
10.0603299746001;-0.2998046875;-0.00827941894531251;3.85999999025444;387;1 A
10.0703299745749;-0.299774169921875;-0.00832519531250001;3.86999999022919;388;1 A
10.0803299745496;-0.29974365234375;-0.00834045410156251;3.87999999020394;389;1 A
10.0903299745244;-0.299835205078125;-0.00835571289062501;3.88999999017869;390;1 A
10.1003299744991;-0.2998046875;-0.0084564208984375;3.89999999015345;391;1 A
10.1103299744739;-0.2998046875;-0.008453369140625;3.9099999901282;392;1 A
10.1203299744486;-0.299774169921875;-0.008441162109375;3.91999999010295;393;1 A
10.1303299744234;-0.29986572265625;-0.0084808349609375;3.9299999900777;394;1 A
10.1403299743981;-0.29974365234375;-0.00847473144531249;3.93999999005246;395;1 A
10.1503299743729;-0.29974365234375;-0.0084808349609375;3.94999999002721;396;1 A
10.1603299743476;-0.2998046875;-0.008544921875;3.95999999000196;397;1 A
10.1703299743224;-0.299774169921875;-0.00853271484375;3.96999998997671;398;1 A
10.1803299742971;-0.299774169921875;-0.00850830078125001;3.97999998995147;399;1 A
10.1903299742719;-0.2998046875;-0.0085784912109375;3.98999998992622;400;1 A
10.2003299742466;-0.2998046875;-0.0085784912109375;3.99999998990097;401;1 A
10.2103299742214;-0.2998046875;-0.008544921875;4.00999998987572;402;1 A
10.2203299741961;-0.29986572265625;-0.0085906982421875;4.01999998985048;403;1 A
10.2303299741709;-0.299774169921875;-0.0085723876953125;4.02999998982523;404;1 A
10.2403299741457;-0.29986572265625;-0.00853881835937501;4.03999998979998;405;1 A
10.2503299741204;-0.299835205078125;-0.00858459472656251;4.04999998977473;406;1 A
10.2603299740952;-0.299835205078125;-0.00855102539062499;4.05999998974949;407;1 A
10.2703299740699;-0.29986572265625;-0.00849304199218751;4.06999998972424;408;1 A
10.2803299740447;-0.2998046875;-0.00853576660156249;4.07999998969899;409;1 A
10.2903299740194;-0.2998046875;-0.00850830078125001;4.08999998967374;410;1 A
10.3003299739942;-0.2998046875;-0.0084991455078125;4.0999999896485;411;1 A
10.3103299739689;-0.299835205078125;-0.00855102539062499;4.10999998962325;412;1 A
10.3203299739437;-0.299774169921875;-0.00853881835937501;4.119999989598;413;1 A
10.3303299739184;-0.29974365234375;-0.00847473144531249;4.12999998957275;414;1 A
10.3403299738932;-0.299774169921875;-0.00847778320312501;4.1399999895475;415;1 A
10.3503299738679;-0.2998046875;-0.008441162109375;4.14999998952226;416;1 A
10.3603299738427;-0.29974365234375;-0.0084197998046875;4.15999998949701;417;1 A
10.3703299738174;-0.299774169921875;-0.0084686279296875;4.16999998947176;418;1 A
10.3803299737922;-0.2998046875;-0.0084564208984375;4.17999998944651;419;1 A
10.3903299737669;-0.299774169921875;-0.0084259033203125;4.18999998942127;420;1 A
10.4003299737417;-0.29986572265625;-0.00844421386718749;4.19999998939602;421;1 A
10.4103299737164;-0.299774169921875;-0.0083892822265625;4.20999998937077;422;1 A
10.4203299736912;-0.299835205078125;-0.008343505859375;4.21999998934552;423;1 A
10.4303299736659;-0.299835205078125;-0.00837097167968751;4.22999998932028;424;1 A
10.4403299736407;-0.29986572265625;-0.00834045410156251;4.23999998929503;425;1 A
10.4503299736155;-0.299896240234375;-0.008343505859375;4.24999998926978;426;1 A
10.4603299735902;-0.2998046875;-0.00841369628906249;4.25999998924453;427;1 A
10.470329973565;-0.299835205078125;-0.0083953857421875;4.26999998921929;428;1 A
10.4803299735397;-0.29986572265625;-0.00837097167968751;4.27999998919404;429;1 A
10.4903299735145;-0.299774169921875;-0.00839843749999999;4.28999998916879;430;1 A
10.5003299734892;-0.299774169921875;-0.00833740234374999;4.29999998914354;431;1 A
10.510329973464;-0.299774169921875;-0.0082855224609375;4.3099999891183;432;1 A
10.5203299734387;-0.2998046875;-0.008331298828125;4.31999998909305;433;1 A
10.5303299734135;-0.2998046875;-0.008331298828125;4.3299999890678;434;1 A
10.5403299733882;-0.299774169921875;-0.0083343505859375;4.33999998904255;435;1 A
10.550329973363;-0.29974365234375;-0.00838317871093749;4.34999998901731;436;1 A
10.5603299733377;-0.299835205078125;-0.00838317871093749;4.35999998899206;437;1 A
10.5703299733125;-0.299774169921875;-0.008343505859375;4.36999998896681;438;1 A
10.5803299732872;-0.29986572265625;-0.008343505859375;4.37999998894156;439;1 A
10.590329973262;-0.299835205078125;-0.00832519531250001;4.38999998891632;440;1 A
10.6003299732367;-0.2998046875;-0.008319091796875;4.39999998889107;441;1 A
10.6103299732115;-0.299896240234375;-0.0083465576171875;4.40999998886582;442;1 A
10.6203299731862;-0.29974365234375;-0.0083282470703125;4.41999998884057;443;1 A
10.630329973161;-0.2998046875;-0.0083160400390625;4.42999998881533;444;1 A
10.6403299731357;-0.2998046875;-0.0083465576171875;4.43999998879008;445;1 A
10.6503299731105;-0.29974365234375;-0.00829467773437501;4.44999998876483;446;1 A
10.6603299730853;-0.29986572265625;-0.0082550048828125;4.45999998873958;447;1 A
10.67032997306;-0.2998046875;-0.00828857421875;4.46999998871433;448;1 A
10.6803299730348;-0.29974365234375;-0.00826110839843749;4.47999998868909;449;1 A
10.6903299730095;-0.299835205078125;-0.00824890136718751;4.48999998866384;450;1 A
10.7003299729843;-0.299774169921875;-0.008282470703125;4.49999998863859;451;1 A
10.710329972959;-0.29986572265625;-0.00824890136718751;4.50999998861334;452;1 A
10.7203299729338;-0.2998046875;-0.0082427978515625;4.5199999885881;453;1 A
10.7303299729085;-0.29974365234375;-0.0082733154296875;4.52999998856285;454;1 A
10.7403299728833;-0.299774169921875;-0.00824584960937499;4.5399999885376;455;1 A
10.750329972858;-0.299713134765625;-0.00823059082031249;4.54999998851235;456;1 A
10.7603299728328;-0.299835205078125;-0.00828857421875;4.55999998848711;457;1 A
10.7703299728075;-0.2998046875;-0.00829467773437501;4.56999998846186;458;1 A
10.7803299727823;-0.299774169921875;-0.008282470703125;4.57999998843661;459;1 A
10.790329972757;-0.2998046875;-0.00833740234374999;4.58999998841136;460;1 A
10.8003299727318;-0.299774169921875;-0.008331298828125;4.59999998838612;461;1 A
10.8103299727065;-0.2998046875;-0.0083282470703125;4.60999998836087;462;1 A
10.8203299726813;-0.29986572265625;-0.0083892822265625;4.61999998833562;463;1 A
10.830329972656;-0.29974365234375;-0.00836791992187499;4.62999998831037;464;1 A
10.8403299726308;-0.299835205078125;-0.008343505859375;4.63999998828513;465;1 A
10.8503299726056;-0.299835205078125;-0.00839843749999999;4.64999998825988;466;1 A
10.8603299725803;-0.2998046875;-0.00841674804687501;4.65999998823463;467;1 A
10.8703299725551;-0.29986572265625;-0.00842895507812499;4.66999998820938;468;1 A
10.8803299725298;-0.299896240234375;-0.0084564208984375;4.67999998818414;469;1 A
10.8903299725046;-0.29974365234375;-0.00841064453125;4.68999998815889;470;1 A
10.9003299724793;-0.299835205078125;-0.008392333984375;4.69999998813364;471;1 A
10.9103299724541;-0.299835205078125;-0.00844421386718749;4.70999998810839;472;1 A
10.9203299724288;-0.2998046875;-0.008404541015625;4.71999998808315;473;1 A
10.9303299724036;-0.299774169921875;-0.0083465576171875;4.7299999880579;474;1 A
10.9403299723783;-0.29974365234375;-0.008380126953125;4.73999998803265;475;1 A
10.9503299723531;-0.2998046875;-0.00841064453125;4.7499999880074;476;1 A
10.9603299723278;-0.299774169921875;-0.00840148925781251;4.75999998798216;477;1 A
10.9703299723026;-0.2998046875;-0.0084381103515625;4.76999998795691;478;1 A
10.9803299722773;-0.29974365234375;-0.0083892822265625;4.77999998793166;479;1 A
10.9903299722521;-0.299774169921875;-0.00832519531250001;4.78999998790641;480;1 A
11.0003299722268;-0.299835205078125;-0.00828857421875;4.79999998788116;481;1 A
11.0103299722016;-0.299774169921875;-0.008221435546875;4.80999998785592;482;1 A
11.0203299721763;-0.2998046875;-0.00818786621093751;4.81999998783067;483;1 A
11.0303299721511;-0.299896240234375;-0.00823364257812501;4.82999998780542;484;1 A
11.0403299721258;-0.299774169921875;-0.0082275390625;4.83999998778017;485;1 A
11.0503299721006;-0.299896240234375;-0.0082244873046875;4.84999998775493;486;1 A
11.0603299720754;-0.299835205078125;-0.00827636718749999;4.85999998772968;487;1 A
11.0703299720501;-0.299835205078125;-0.0082733154296875;4.86999998770443;488;1 A
11.0803299720249;-0.2998046875;-0.00824584960937499;4.87999998767918;489;1 A
11.0903299719996;-0.29986572265625;-0.0082672119140625;4.88999998765394;490;1 A
11.1003299719744;-0.2998046875;-0.00823974609375;4.89999998762869;491;1 A
11.1103299719491;-0.2998046875;-0.00820007324218749;4.90999998760344;492;1 A
11.1203299719239;-0.29974365234375;-0.0081787109375;4.91999998757819;493;1 A
11.1303299718986;-0.299774169921875;-0.00812683105468751;4.92999998755295;494;1 A
11.1403299718734;-0.299774169921875;-0.00811767578125;4.9399999875277;495;1 A
11.1503299718481;-0.299774169921875;-0.00815429687499999;4.94999998750245;496;1 A
11.1603299718229;-0.2998046875;-0.0081207275390625;4.9599999874772;497;1 A
11.1703299717976;-0.2998046875;-0.00811767578125;4.96999998745196;498;1 A
11.1803299717724;-0.2998046875;-0.0081817626953125;4.97999998742671;499;1 A
11.1903299717471;-0.29974365234375;-0.00819091796875;4.98999998740146;500;1 A
