Time (s);WE(1).Potential (V);WE(1).Current (A);Corrected time (s);Index;Current range
59.7115318492429;0.70086669921875;1.065673828125;0;1;1 A
59.7215318492176;0.699981689453125;0.76873779296875;0.00999999997475243;2;1 A
59.7315318491924;0.69970703125;0.63507080078125;0.0199999999495049;3;1 A
59.7415318491671;0.699676513671875;0.55328369140625;0.0299999999242573;4;1 A
59.7515318491419;0.69970703125;0.49835205078125;0.0399999998990097;5;1 A
59.7615318491166;0.6995849609375;0.4617919921875;0.0499999998737621;6;1 A
59.7715318490914;0.699676513671875;0.431732177734375;0.0599999998485146;7;1 A
59.7815318490661;0.69964599609375;0.4072265625;0.069999999823267;8;1 A
59.7915318490409;0.699615478515625;0.387603759765625;0.0799999997980194;9;1 A
59.8015318490156;0.69970703125;0.370208740234375;0.0899999997727718;10;1 A
59.8115318489904;0.699676513671875;0.357635498046875;0.0999999997475243;11;1 A
59.8215318489652;0.699615478515625;0.3489990234375;0.109999999722277;12;1 A
59.8315318489399;0.699676513671875;0.341339111328125;0.119999999697029;13;1 A
59.8415318489147;0.699615478515625;0.337677001953125;0.129999999671782;14;1 A
59.8515318488894;0.6995849609375;0.3360595703125;0.139999999646534;15;1 A
59.8615318488642;0.69964599609375;0.33221435546875;0.149999999621286;16;1 A
59.8715318488389;0.6995849609375;0.3319091796875;0.159999999596039;17;1 A
59.8815318488137;0.69964599609375;0.331878662109375;0.169999999570791;18;1 A
59.8915318487884;0.699676513671875;0.32855224609375;0.179999999545544;19;1 A
59.9015318487632;0.69964599609375;0.3275146484375;0.189999999520296;20;1 A
59.9115318487379;0.699676513671875;0.326507568359375;0.199999999495049;21;1 A
59.9215318487127;0.699615478515625;0.32403564453125;0.209999999469801;22;1 A
59.9315318486874;0.6995849609375;0.3231201171875;0.219999999444553;23;1 A
59.9415318486622;0.699676513671875;0.320068359375;0.229999999419306;24;1 A
59.9515318486369;0.69970703125;0.31781005859375;0.239999999394058;25;1 A
59.9615318486117;0.69964599609375;0.3179931640625;0.249999999368811;26;1 A
59.9715318485864;0.69964599609375;0.317108154296875;0.259999999343563;27;1 A
59.9815318485612;0.69964599609375;0.315277099609375;0.269999999318316;28;1 A
59.9915318485359;0.699676513671875;0.3150634765625;0.279999999293068;29;1 A
60.0015318485107;0.699615478515625;0.31512451171875;0.28999999926782;30;1 A
60.0115318484854;0.699615478515625;0.313690185546875;0.299999999242573;31;1 A
60.0215318484602;0.6995849609375;0.31317138671875;0.309999999217325;32;1 A
60.031531848435;0.6995849609375;0.3126220703125;0.319999999192078;33;1 A
60.0415318484097;0.6995849609375;0.311187744140625;0.32999999916683;34;1 A
60.0515318483845;0.699615478515625;0.31036376953125;0.339999999141583;35;1 A
60.0615318483592;0.6995849609375;0.307403564453125;0.349999999116335;36;1 A
60.071531848334;0.699676513671875;0.303375244140625;0.359999999091087;37;1 A
60.0815318483087;0.6995849609375;0.30316162109375;0.36999999906584;38;1 A
60.0915318482835;0.69964599609375;0.304046630859375;0.379999999040592;39;1 A
60.1015318482582;0.699737548828125;0.30206298828125;0.389999999015345;40;1 A
60.111531848233;0.699615478515625;0.304534912109375;0.399999998990097;41;1 A
60.1215318482077;0.69964599609375;0.305145263671875;0.40999999896485;42;1 A
60.1315318481825;0.69970703125;0.303619384765625;0.419999998939602;43;1 A
60.1415318481572;0.699615478515625;0.30889892578125;0.429999998914354;44;1 A
60.151531848132;0.699737548828125;0.30755615234375;0.439999998889107;45;1 A
60.1615318481067;0.699676513671875;0.3048095703125;0.449999998863859;46;1 A
60.1715318480815;0.69964599609375;0.307464599609375;0.459999998838612;47;1 A
60.1815318480562;0.699676513671875;0.306793212890625;0.469999998813364;48;1 A
60.191531848031;0.699615478515625;0.305450439453125;0.479999998788116;49;1 A
60.2015318480057;0.69964599609375;0.309295654296875;0.489999998762869;50;1 A
60.2115318479805;0.69970703125;0.30780029296875;0.499999998737621;51;1 A
60.2215318479552;0.699615478515625;0.305511474609375;0.509999998712374;52;1 A
60.23153184793;0.69964599609375;0.310272216796875;0.519999998687126;53;1 A
60.2415318479048;0.69964599609375;0.31121826171875;0.529999998661879;54;1 A
60.2515318478795;0.699615478515625;0.3092041015625;0.539999998636631;55;1 A
60.2615318478543;0.69964599609375;0.310638427734375;0.549999998611383;56;1 A
60.271531847829;0.6995849609375;0.311187744140625;0.559999998586136;57;1 A
60.2815318478038;0.699615478515625;0.309844970703125;0.569999998560888;58;1 A
60.2915318477785;0.6995849609375;0.313690185546875;0.579999998535641;59;1 A
60.3015318477533;0.69964599609375;0.314178466796875;0.589999998510393;60;1 A
60.311531847728;0.69964599609375;0.310272216796875;0.599999998485146;61;1 A
60.3215318477028;0.699615478515625;0.309600830078125;0.609999998459898;62;1 A
60.3315318476775;0.699676513671875;0.310089111328125;0.61999999843465;63;1 A
60.3415318476523;0.69964599609375;0.308013916015625;0.629999998409403;64;1 A
60.351531847627;0.6995849609375;0.311553955078125;0.639999998384155;65;1 A
60.3615318476018;0.699676513671875;0.309173583984375;0.649999998358908;66;1 A
60.3715318475765;0.699615478515625;0.305572509765625;0.65999999833366;67;1 A
60.3815318475513;0.699615478515625;0.310638427734375;0.669999998308413;68;1 A
60.391531847526;0.699676513671875;0.31024169921875;0.679999998283165;69;1 A
60.4015318475008;0.699554443359375;0.307342529296875;0.689999998257917;70;1 A
60.4115318474755;0.699676513671875;0.308013916015625;0.69999999823267;71;1 A
60.4215318474503;0.69964599609375;0.308502197265625;0.709999998207422;72;1 A
60.431531847425;0.69952392578125;0.308990478515625;0.719999998182175;73;1 A
60.4415318473998;0.699615478515625;0.31024169921875;0.729999998156927;74;1 A
60.4515318473746;0.699554443359375;0.30975341796875;0.73999999813168;75;1 A
60.4615318473493;0.69952392578125;0.307159423828125;0.749999998106432;76;1 A
60.4715318473241;0.6995849609375;0.306427001953125;0.759999998081184;77;1 A
60.4815318472988;0.699615478515625;0.306243896484375;0.769999998055937;78;1 A
60.4915318472736;0.69964599609375;0.303375244140625;0.779999998030689;79;1 A
60.5015318472483;0.699554443359375;0.303924560546875;0.789999998005442;80;1 A
60.5115318472231;0.6995849609375;0.305511474609375;0.799999997980194;81;1 A
60.5215318471978;0.699676513671875;0.303863525390625;0.809999997954947;82;1 A
60.5315318471726;0.699615478515625;0.306243896484375;0.819999997929699;83;1 A
60.5415318471473;0.699676513671875;0.30426025390625;0.829999997904451;84;1 A
60.5515318471221;0.69964599609375;0.30023193359375;0.839999997879204;85;1 A
60.5615318470968;0.6995849609375;0.301055908203125;0.849999997853956;86;1 A
60.5715318470716;0.699737548828125;0.301666259765625;0.859999997828709;87;1 A
60.5815318470463;0.699615478515625;0.300506591796875;0.869999997803461;88;1 A
60.5915318470211;0.699615478515625;0.3065185546875;0.879999997778214;89;1 A
60.6015318469958;0.699737548828125;0.3057861328125;0.889999997752966;90;1 A
60.6115318469706;0.699554443359375;0.302947998046875;0.899999997727718;91;1 A
60.6215318469453;0.699615478515625;0.305633544921875;0.909999997702471;92;1 A
60.6315318469201;0.69964599609375;0.305816650390625;0.919999997677223;93;1 A
60.6415318468948;0.69964599609375;0.305938720703125;0.929999997651976;94;1 A
60.6515318468696;0.69964599609375;0.309967041015625;0.939999997626728;95;1 A
60.6615318468444;0.699554443359375;0.309326171875;0.949999997601481;96;1 A
60.6715318468191;0.69964599609375;0.3072509765625;0.959999997576233;97;1 A
60.6815318467939;0.6995849609375;0.313385009765625;0.969999997550985;98;1 A
60.6915318467686;0.6995849609375;0.31195068359375;0.979999997525738;99;1 A
60.7015318467434;0.69964599609375;0.30682373046875;0.98999999750049;100;1 A
60.7115318467181;0.69964599609375;0.310333251953125;0.999999997475243;101;1 A
60.7215318466929;0.699676513671875;0.31146240234375;1.00999999745;102;1 A
60.7315318466676;0.699676513671875;0.310211181640625;1.01999999742475;103;1 A
60.7415318466424;0.699615478515625;0.3121337890625;1.0299999973995;104;1 A
60.7515318466171;0.699737548828125;0.31072998046875;1.03999999737425;105;1 A
60.7615318465919;0.69964599609375;0.308197021484375;1.049999997349;106;1 A
60.7715318465666;0.6995849609375;0.31011962890625;1.05999999732376;107;1 A
60.7815318465414;0.69976806640625;0.307342529296875;1.06999999729851;108;1 A
60.7915318465161;0.69964599609375;0.30474853515625;1.07999999727326;109;1 A
60.8015318464909;0.699554443359375;0.30645751953125;1.08999999724801;110;1 A
60.8115318464656;0.699676513671875;0.3087158203125;1.09999999722277;111;1 A
60.8215318464404;0.69952392578125;0.30926513671875;1.10999999719752;112;1 A
60.8315318464151;0.69964599609375;0.308837890625;1.11999999717227;113;1 A
60.8415318463899;0.699615478515625;0.30682373046875;1.12999999714702;114;1 A
60.8515318463647;0.69952392578125;0.3046875;1.13999999712178;115;1 A
60.8615318463394;0.69964599609375;0.30560302734375;1.14999999709653;116;1 A
60.8715318463142;0.69964599609375;0.305938720703125;1.15999999707128;117;1 A
60.8815318462889;0.699615478515625;0.30419921875;1.16999999704603;118;1 A
60.8915318462637;0.69964599609375;0.30523681640625;1.17999999702079;119;1 A
60.9015318462384;0.699615478515625;0.30523681640625;1.18999999699554;120;1 A
60.9115318462132;0.699676513671875;0.302398681640625;1.19999999697029;121;1 A
60.9215318461879;0.6995849609375;0.302459716796875;1.20999999694504;122;1 A
60.9315318461627;0.69964599609375;0.3023681640625;1.2199999969198;123;1 A
60.9415318461374;0.69964599609375;0.300994873046875;1.22999999689455;124;1 A
60.9515318461122;0.6995849609375;0.30126953125;1.2399999968693;125;1 A
60.9615318460869;0.69964599609375;0.303741455078125;1.24999999684405;126;1 A
60.9715318460617;0.6995849609375;0.305572509765625;1.25999999681881;127;1 A
60.9815318460364;0.699615478515625;0.30999755859375;1.26999999679356;128;1 A
60.9915318460112;0.69970703125;0.3087158203125;1.27999999676831;129;1 A
61.0015318459859;0.6995849609375;0.3056640625;1.28999999674306;130;1 A
61.0115318459607;0.699676513671875;0.306427001953125;1.29999999671782;131;1 A
61.0215318459354;0.699615478515625;0.30633544921875;1.30999999669257;132;1 A
61.0315318459102;0.6995849609375;0.30426025390625;1.31999999666732;133;1 A
61.0415318458849;0.6995849609375;0.30462646484375;1.32999999664207;134;1 A
61.0515318458597;0.699554443359375;0.304046630859375;1.33999999661683;135;1 A
61.0615318458345;0.699615478515625;0.30206298828125;1.34999999659158;136;1 A
61.0715318458092;0.699554443359375;0.303497314453125;1.35999999656633;137;1 A
61.081531845784;0.69964599609375;0.30194091796875;1.36999999654108;138;1 A
61.0915318457587;0.69964599609375;0.2994384765625;1.37999999651583;139;1 A
61.1015318457335;0.6995849609375;0.30340576171875;1.38999999649059;140;1 A
61.1115318457082;0.69964599609375;0.30560302734375;1.39999999646534;141;1 A
61.121531845683;0.69970703125;0.30206298828125;1.40999999644009;142;1 A
61.1315318456577;0.699615478515625;0.305145263671875;1.41999999641484;143;1 A
61.1415318456325;0.69970703125;0.304962158203125;1.4299999963896;144;1 A
61.1515318456072;0.699676513671875;0.303009033203125;1.43999999636435;145;1 A
61.161531845582;0.69952392578125;0.305023193359375;1.4499999963391;146;1 A
61.1715318455567;0.699737548828125;0.305389404296875;1.45999999631385;147;1 A
61.1815318455315;0.699615478515625;0.30426025390625;1.46999999628861;148;1 A
61.1915318455062;0.699615478515625;0.30853271484375;1.47999999626336;149;1 A
61.201531845481;0.699615478515625;0.30975341796875;1.48999999623811;150;1 A
61.2115318454557;0.6995849609375;0.307525634765625;1.49999999621286;151;1 A
61.2215318454305;0.699676513671875;0.30963134765625;1.50999999618762;152;1 A
61.2315318454052;0.699615478515625;0.30987548828125;1.51999999616237;153;1 A
61.24153184538;0.699554443359375;0.306182861328125;1.52999999613712;154;1 A
61.2515318453547;0.699554443359375;0.309417724609375;1.53999999611187;155;1 A
61.2615318453295;0.69964599609375;0.30657958984375;1.54999999608663;156;1 A
61.2715318453043;0.699554443359375;0.3031005859375;1.55999999606138;157;1 A
61.281531845279;0.699554443359375;0.305328369140625;1.56999999603613;158;1 A
61.2915318452538;0.69964599609375;0.302703857421875;1.57999999601088;159;1 A
61.3015318452285;0.69964599609375;0.300750732421875;1.58999999598564;160;1 A
61.3115318452033;0.6995849609375;0.306915283203125;1.59999999596039;161;1 A
61.321531845178;0.699676513671875;0.30657958984375;1.60999999593514;162;1 A
61.3315318451528;0.69970703125;0.304840087890625;1.61999999590989;163;1 A
61.3415318451275;0.699554443359375;0.305511474609375;1.62999999588465;164;1 A
61.3515318451023;0.699615478515625;0.30596923828125;1.6399999958594;165;1 A
61.361531845077;0.69964599609375;0.304168701171875;1.64999999583415;166;1 A
61.3715318450518;0.6995849609375;0.305633544921875;1.6599999958089;167;1 A
61.3815318450265;0.699615478515625;0.3070068359375;1.66999999578366;168;1 A
61.3915318450013;0.6995849609375;0.306427001953125;1.67999999575841;169;1 A
61.401531844976;0.699615478515625;0.309906005859375;1.68999999573316;170;1 A
61.4115318449508;0.69964599609375;0.3084716796875;1.69999999570791;171;1 A
61.4215318449255;0.6995849609375;0.30670166015625;1.70999999568267;172;1 A
61.4315318449003;0.699554443359375;0.310333251953125;1.71999999565742;173;1 A
61.441531844875;0.699554443359375;0.31024169921875;1.72999999563217;174;1 A
61.4515318448498;0.699554443359375;0.30908203125;1.73999999560692;175;1 A
61.4615318448245;0.699554443359375;0.31005859375;1.74999999558167;176;1 A
61.4715318447993;0.69952392578125;0.30975341796875;1.75999999555643;177;1 A
61.4815318447741;0.699615478515625;0.308319091796875;1.76999999553118;178;1 A
61.4915318447488;0.6995849609375;0.31219482421875;1.77999999550593;179;1 A
61.5015318447236;0.699615478515625;0.31024169921875;1.78999999548068;180;1 A
61.5115318446983;0.699676513671875;0.30859375;1.79999999545544;181;1 A
61.5215318446731;0.699554443359375;0.311065673828125;1.80999999543019;182;1 A
61.5315318446478;0.699676513671875;0.30963134765625;1.81999999540494;183;1 A
61.5415318446226;0.69970703125;0.307891845703125;1.82999999537969;184;1 A
61.5515318445973;0.69952392578125;0.310882568359375;1.83999999535445;185;1 A
61.5615318445721;0.69970703125;0.309600830078125;1.8499999953292;186;1 A
61.5715318445468;0.69964599609375;0.306976318359375;1.85999999530395;187;1 A
61.5815318445216;0.699554443359375;0.31182861328125;1.8699999952787;188;1 A
61.5915318444963;0.699676513671875;0.309783935546875;1.87999999525346;189;1 A
61.6015318444711;0.6995849609375;0.30810546875;1.88999999522821;190;1 A
61.6115318444458;0.699615478515625;0.31158447265625;1.89999999520296;191;1 A
61.6215318444206;0.69952392578125;0.311614990234375;1.90999999517771;192;1 A
61.6315318443953;0.6995849609375;0.308563232421875;1.91999999515247;193;1 A
61.6415318443701;0.6995849609375;0.308441162109375;1.92999999512722;194;1 A
61.6515318443448;0.699615478515625;0.30859375;1.93999999510197;195;1 A
61.6615318443196;0.6995849609375;0.306915283203125;1.94999999507672;196;1 A
61.6715318442943;0.699554443359375;0.30859375;1.95999999505148;197;1 A
61.6815318442691;0.6995849609375;0.307647705078125;1.96999999502623;198;1 A
61.6915318442439;0.69964599609375;0.30474853515625;1.97999999500098;199;1 A
61.7015318442186;0.699554443359375;0.3067626953125;1.98999999497573;200;1 A
61.7115318441934;0.699615478515625;0.308135986328125;1.99999999495049;201;1 A
61.7215318441681;0.699676513671875;0.307891845703125;2.00999999492524;202;1 A
61.7315318441429;0.6995849609375;0.308807373046875;2.01999999489999;203;1 A
61.7415318441176;0.69964599609375;0.30950927734375;2.02999999487474;204;1 A
61.7515318440924;0.699676513671875;0.30780029296875;2.0399999948495;205;1 A
61.7615318440671;0.699615478515625;0.309112548828125;2.04999999482425;206;1 A
61.7715318440419;0.69970703125;0.30828857421875;2.059999994799;207;1 A
61.7815318440166;0.6995849609375;0.306243896484375;2.06999999477375;208;1 A
61.7915318439914;0.6995849609375;0.307708740234375;2.0799999947485;209;1 A
61.8015318439661;0.69970703125;0.306640625;2.08999999472326;210;1 A
61.8115318439409;0.69952392578125;0.303741455078125;2.09999999469801;211;1 A
61.8215318439156;0.699615478515625;0.305694580078125;2.10999999467276;212;1 A
61.8315318438904;0.699554443359375;0.307830810546875;2.11999999464751;213;1 A
61.8415318438651;0.69952392578125;0.306396484375;2.12999999462227;214;1 A
61.8515318438399;0.699554443359375;0.307891845703125;2.13999999459702;215;1 A
61.8615318438146;0.6995849609375;0.307952880859375;2.14999999457177;216;1 A
61.8715318437894;0.69952392578125;0.307952880859375;2.15999999454652;217;1 A
61.8815318437642;0.69952392578125;0.310546875;2.16999999452128;218;1 A
61.8915318437389;0.699615478515625;0.308746337890625;2.17999999449603;219;1 A
61.9015318437137;0.699615478515625;0.303955078125;2.18999999447078;220;1 A
61.9115318436884;0.6995849609375;0.303497314453125;2.19999999444553;221;1 A
61.9215318436632;0.69964599609375;0.30413818359375;2.20999999442029;222;1 A
61.9315318436379;0.69964599609375;0.30450439453125;2.21999999439504;223;1 A
61.9415318436127;0.6995849609375;0.307281494140625;2.22999999436979;224;1 A
61.9515318435874;0.69964599609375;0.3099365234375;2.23999999434454;225;1 A
61.9615318435622;0.699615478515625;0.309967041015625;2.2499999943193;226;1 A
61.9715318435369;0.699554443359375;0.316009521484375;2.25999999429405;227;1 A
61.9815318435117;0.699615478515625;0.314056396484375;2.2699999942688;228;1 A
61.9915318434864;0.6995849609375;0.308441162109375;2.27999999424355;229;1 A
62.0015318434612;0.699615478515625;0.307037353515625;2.28999999421831;230;1 A
62.0115318434359;0.699615478515625;0.30584716796875;2.29999999419306;231;1 A
62.0215318434107;0.69952392578125;0.305694580078125;2.30999999416781;232;1 A
62.0315318433854;0.6995849609375;0.308624267578125;2.31999999414256;233;1 A
62.0415318433602;0.6995849609375;0.31005859375;2.32999999411732;234;1 A
62.0515318433349;0.699493408203125;0.3079833984375;2.33999999409207;235;1 A
62.0615318433097;0.699615478515625;0.308441162109375;2.34999999406682;236;1 A
62.0715318432844;0.699493408203125;0.305572509765625;2.35999999404157;237;1 A
62.0815318432592;0.699615478515625;0.302978515625;2.36999999401633;238;1 A
62.091531843234;0.6995849609375;0.30462646484375;2.37999999399108;239;1 A
62.1015318432087;0.699615478515625;0.3033447265625;2.38999999396583;240;1 A
62.1115318431835;0.69970703125;0.301116943359375;2.39999999394058;241;1 A
62.1215318431582;0.699676513671875;0.301177978515625;2.40999999391533;242;1 A
62.131531843133;0.69964599609375;0.301605224609375;2.41999999389009;243;1 A
62.1415318431077;0.699737548828125;0.300018310546875;2.42999999386484;244;1 A
62.1515318430825;0.699615478515625;0.30218505859375;2.43999999383959;245;1 A
62.1615318430572;0.69970703125;0.302581787109375;2.44999999381434;246;1 A
62.171531843032;0.699615478515625;0.301910400390625;2.4599999937891;247;1 A
62.1815318430067;0.69964599609375;0.30426025390625;2.46999999376385;248;1 A
62.1915318429815;0.699676513671875;0.303314208984375;2.4799999937386;249;1 A
62.2015318429562;0.699493408203125;0.301544189453125;2.48999999371335;250;1 A
62.211531842931;0.699615478515625;0.303466796875;2.49999999368811;251;1 A
62.2215318429057;0.6995849609375;0.303924560546875;2.50999999366286;252;1 A
62.2315318428805;0.6995849609375;0.30267333984375;2.51999999363761;253;1 A
62.2415318428552;0.6995849609375;0.309967041015625;2.52999999361236;254;1 A
62.25153184283;0.699554443359375;0.307769775390625;2.53999999358712;255;1 A
62.2615318428047;0.699554443359375;0.301788330078125;2.54999999356187;256;1 A
62.2715318427795;0.69964599609375;0.303466796875;2.55999999353662;257;1 A
62.2815318427542;0.6995849609375;0.30255126953125;2.56999999351137;258;1 A
62.291531842729;0.69970703125;0.3001708984375;2.57999999348613;259;1 A
62.3015318427038;0.699615478515625;0.303680419921875;2.58999999346088;260;1 A
62.3115318426785;0.69964599609375;0.305511474609375;2.59999999343563;261;1 A
62.3215318426533;0.69970703125;0.3052978515625;2.60999999341038;262;1 A
62.331531842628;0.699615478515625;0.309539794921875;2.61999999338514;263;1 A
62.3415318426028;0.69964599609375;0.308013916015625;2.62999999335989;264;1 A
62.3515318425775;0.69970703125;0.30352783203125;2.63999999333464;265;1 A
62.3615318425523;0.69964599609375;0.3026123046875;2.64999999330939;266;1 A
62.371531842527;0.699676513671875;0.302581787109375;2.65999999328415;267;1 A
62.3815318425018;0.6995849609375;0.301544189453125;2.6699999932589;268;1 A
62.3915318424765;0.69964599609375;0.303497314453125;2.67999999323365;269;1 A
62.4015318424513;0.699615478515625;0.304840087890625;2.6899999932084;270;1 A
62.411531842426;0.699676513671875;0.306396484375;2.69999999318316;271;1 A
62.4215318424008;0.69964599609375;0.310577392578125;2.70999999315791;272;1 A
62.4315318423755;0.69964599609375;0.309478759765625;2.71999999313266;273;1 A
62.4415318423503;0.6995849609375;0.30645751953125;2.72999999310741;274;1 A
62.451531842325;0.699615478515625;0.306915283203125;2.73999999308217;275;1 A
62.4615318422998;0.699615478515625;0.307373046875;2.74999999305692;276;1 A
62.4715318422745;0.6995849609375;0.307159423828125;2.75999999303167;277;1 A
62.4815318422493;0.699615478515625;0.311492919921875;2.76999999300642;278;1 A
62.491531842224;0.699615478515625;0.309967041015625;2.77999999298117;279;1 A
62.5015318421988;0.699676513671875;0.307525634765625;2.78999999295593;280;1 A
62.5115318421736;0.699615478515625;0.30975341796875;2.79999999293068;281;1 A
62.5215318421483;0.69964599609375;0.30865478515625;2.80999999290543;282;1 A
62.5315318421231;0.69970703125;0.3062744140625;2.81999999288018;283;1 A
62.5415318420978;0.6995849609375;0.30859375;2.82999999285494;284;1 A
62.5515318420726;0.699676513671875;0.30902099609375;2.83999999282969;285;1 A
62.5615318420473;0.6995849609375;0.30731201171875;2.84999999280444;286;1 A
62.5715318420221;0.699615478515625;0.312042236328125;2.85999999277919;287;1 A
62.5815318419968;0.699737548828125;0.311981201171875;2.86999999275395;288;1 A
62.5915318419716;0.69964599609375;0.309417724609375;2.8799999927287;289;1 A
62.6015318419463;0.699615478515625;0.311614990234375;2.88999999270345;290;1 A
62.6115318419211;0.699676513671875;0.312164306640625;2.8999999926782;291;1 A
62.6215318418958;0.699554443359375;0.31182861328125;2.90999999265296;292;1 A
62.6315318418706;0.699615478515625;0.3135986328125;2.91999999262771;293;1 A
62.6415318418453;0.699554443359375;0.312896728515625;2.92999999260246;294;1 A
62.6515318418201;0.699554443359375;0.30975341796875;2.93999999257721;295;1 A
62.6615318417948;0.6995849609375;0.3095703125;2.94999999255197;296;1 A
62.6715318417696;0.6995849609375;0.310302734375;2.95999999252672;297;1 A
62.6815318417443;0.69964599609375;0.3092041015625;2.96999999250147;298;1 A
62.6915318417191;0.6995849609375;0.314422607421875;2.97999999247622;299;1 A
62.7015318416938;0.699615478515625;0.3153076171875;2.98999999245098;300;1 A
62.7115318416686;0.69970703125;0.312042236328125;2.99999999242573;301;1 A
62.7215318416434;0.699615478515625;0.311309814453125;3.00999999240048;302;1 A
62.7315318416181;0.699615478515625;0.310821533203125;3.01999999237523;303;1 A
62.7415318415929;0.69970703125;0.308349609375;3.02999999234999;304;1 A
62.7515318415676;0.6995849609375;0.30926513671875;3.03999999232474;305;1 A
62.7615318415424;0.69964599609375;0.3106689453125;3.04999999229949;306;1 A
62.7715318415171;0.699676513671875;0.3089599609375;3.05999999227424;307;1 A
62.7815318414919;0.699676513671875;0.3131103515625;3.069999992249;308;1 A
62.7915318414666;0.69964599609375;0.31182861328125;3.07999999222375;309;1 A
62.8015318414414;0.6995849609375;0.31121826171875;3.0899999921985;310;1 A
62.8115318414161;0.69964599609375;0.31353759765625;3.09999999217325;311;1 A
62.8215318413909;0.69964599609375;0.313140869140625;3.109999992148;312;1 A
62.8315318413656;0.69952392578125;0.30950927734375;3.11999999212276;313;1 A
62.8415318413404;0.699615478515625;0.308319091796875;3.12999999209751;314;1 A
62.8515318413151;0.6995849609375;0.30877685546875;3.13999999207226;315;1 A
62.8615318412899;0.6995849609375;0.306793212890625;3.14999999204701;316;1 A
62.8715318412646;0.699615478515625;0.308685302734375;3.15999999202177;317;1 A
62.8815318412394;0.6995849609375;0.307769775390625;3.16999999199652;318;1 A
62.8915318412141;0.69964599609375;0.304046630859375;3.17999999197127;319;1 A
62.9015318411889;0.6995849609375;0.309417724609375;3.18999999194602;320;1 A
62.9115318411637;0.6995849609375;0.309234619140625;3.19999999192078;321;1 A
62.9215318411384;0.69970703125;0.30462646484375;3.20999999189553;322;1 A
62.9315318411132;0.6995849609375;0.307281494140625;3.21999999187028;323;1 A
62.9415318410879;0.69964599609375;0.3072509765625;3.22999999184503;324;1 A
62.9515318410627;0.69964599609375;0.3026123046875;3.23999999181979;325;1 A
62.9615318410374;0.699615478515625;0.30499267578125;3.24999999179454;326;1 A
62.9715318410122;0.699737548828125;0.301422119140625;3.25999999176929;327;1 A
62.9815318409869;0.699615478515625;0.298431396484375;3.26999999174404;328;1 A
62.9915318409617;0.699615478515625;0.30224609375;3.2799999917188;329;1 A
63.0015318409364;0.699615478515625;0.302276611328125;3.28999999169355;330;1 A
63.0115318409112;0.6995849609375;0.300079345703125;3.2999999916683;331;1 A
63.0215318408859;0.699615478515625;0.303985595703125;3.30999999164305;332;1 A
63.0315318408607;0.69964599609375;0.30462646484375;3.31999999161781;333;1 A
63.0415318408354;0.699493408203125;0.301666259765625;3.32999999159256;334;1 A
63.0515318408102;0.6995849609375;0.30303955078125;3.33999999156731;335;1 A
63.0615318407849;0.699615478515625;0.304901123046875;3.34999999154206;336;1 A
63.0715318407597;0.699554443359375;0.30426025390625;3.35999999151682;337;1 A
63.0815318407344;0.69964599609375;0.3062744140625;3.36999999149157;338;1 A
63.0915318407092;0.6995849609375;0.30670166015625;3.37999999146632;339;1 A
63.1015318406839;0.69964599609375;0.30584716796875;3.38999999144107;340;1 A
63.1115318406587;0.69964599609375;0.312225341796875;3.39999999141583;341;1 A
63.1215318406335;0.699676513671875;0.3094482421875;3.40999999139058;342;1 A
63.1315318406082;0.69970703125;0.30712890625;3.41999999136533;343;1 A
63.141531840583;0.699615478515625;0.306610107421875;3.42999999134008;344;1 A
63.1515318405577;0.699676513671875;0.307037353515625;3.43999999131483;345;1 A
63.1615318405325;0.699615478515625;0.30584716796875;3.44999999128959;346;1 A
63.1715318405072;0.699615478515625;0.30657958984375;3.45999999126434;347;1 A
63.181531840482;0.69970703125;0.30718994140625;3.46999999123909;348;1 A
63.1915318404567;0.69964599609375;0.305877685546875;3.47999999121384;349;1 A
63.2015318404315;0.699615478515625;0.307373046875;3.4899999911886;350;1 A
63.2115318404062;0.699676513671875;0.30682373046875;3.49999999116335;351;1 A
63.221531840381;0.69952392578125;0.305999755859375;3.5099999911381;352;1 A
63.2315318403557;0.69964599609375;0.30712890625;3.51999999111285;353;1 A
63.2415318403305;0.699615478515625;0.307952880859375;3.52999999108761;354;1 A
63.2515318403052;0.699615478515625;0.308441162109375;3.53999999106236;355;1 A
63.26153184028;0.69964599609375;0.31146240234375;3.54999999103711;356;1 A
63.2715318402547;0.6995849609375;0.31048583984375;3.55999999101186;357;1 A
63.2815318402295;0.699615478515625;0.309112548828125;3.56999999098662;358;1 A
63.2915318402042;0.69964599609375;0.310516357421875;3.57999999096137;359;1 A
63.301531840179;0.699554443359375;0.3111572265625;3.58999999093612;360;1 A
63.3115318401537;0.699615478515625;0.3094482421875;3.59999999091087;361;1 A
63.3215318401285;0.6995849609375;0.30792236328125;3.60999999088563;362;1 A
63.3315318401033;0.69964599609375;0.30438232421875;3.61999999086038;363;1 A
63.341531840078;0.69964599609375;0.30133056640625;3.62999999083513;364;1 A
63.3515318400528;0.69964599609375;0.303558349609375;3.63999999080988;365;1 A
63.3615318400275;0.69976806640625;0.302947998046875;3.64999999078464;366;1 A
63.3715318400023;0.69964599609375;0.3011474609375;3.65999999075939;367;1 A
63.381531839977;0.69970703125;0.30377197265625;3.66999999073414;368;1 A
63.3915318399518;0.69964599609375;0.305145263671875;3.67999999070889;369;1 A
63.4015318399265;0.69952392578125;0.305023193359375;3.68999999068365;370;1 A
63.4115318399013;0.699676513671875;0.308929443359375;3.6999999906584;371;1 A
63.421531839876;0.699676513671875;0.30975341796875;3.70999999063315;372;1 A
63.4315318398508;0.69952392578125;0.308441162109375;3.7199999906079;373;1 A
63.4415318398255;0.699676513671875;0.308258056640625;3.72999999058266;374;1 A
63.4515318398003;0.699554443359375;0.308319091796875;3.73999999055741;375;1 A
63.461531839775;0.699554443359375;0.30609130859375;3.74999999053216;376;1 A
63.4715318397498;0.69964599609375;0.305572509765625;3.75999999050691;377;1 A
63.4815318397245;0.6995849609375;0.304595947265625;3.76999999048167;378;1 A
63.4915318396993;0.699554443359375;0.30322265625;3.77999999045642;379;1 A
63.501531839674;0.699615478515625;0.30535888671875;3.78999999043117;380;1 A
63.5115318396488;0.69952392578125;0.305908203125;3.79999999040592;381;1 A
63.5215318396235;0.699676513671875;0.304840087890625;3.80999999038067;382;1 A
63.5315318395983;0.69964599609375;0.30560302734375;3.81999999035543;383;1 A
63.5415318395731;0.699615478515625;0.305511474609375;3.82999999033018;384;1 A
63.5515318395478;0.69970703125;0.30364990234375;3.83999999030493;385;1 A
63.5615318395226;0.69964599609375;0.30316162109375;3.84999999027968;386;1 A
63.5715318394973;0.69970703125;0.30218505859375;3.85999999025444;387;1 A
63.5815318394721;0.6995849609375;0.30023193359375;3.86999999022919;388;1 A
63.5915318394468;0.6995849609375;0.30224609375;3.87999999020394;389;1 A
63.6015318394216;0.699676513671875;0.304534912109375;3.88999999017869;390;1 A
63.6115318393963;0.6995849609375;0.306182861328125;3.89999999015345;391;1 A
63.6215318393711;0.699615478515625;0.30987548828125;3.9099999901282;392;1 A
63.6315318393458;0.699676513671875;0.31011962890625;3.91999999010295;393;1 A
63.6415318393206;0.699554443359375;0.306121826171875;3.9299999900777;394;1 A
63.6515318392953;0.6995849609375;0.305389404296875;3.93999999005246;395;1 A
63.6615318392701;0.69964599609375;0.303619384765625;3.94999999002721;396;1 A
63.6715318392448;0.699554443359375;0.302764892578125;3.95999999000196;397;1 A
63.6815318392196;0.699615478515625;0.3048095703125;3.96999998997671;398;1 A
63.6915318391943;0.6995849609375;0.305145263671875;3.97999998995147;399;1 A
63.7015318391691;0.699554443359375;0.303924560546875;3.98999998992622;400;1 A
63.7115318391438;0.699615478515625;0.305511474609375;3.99999998990097;401;1 A
63.7215318391186;0.6995849609375;0.3055419921875;4.00999998987572;402;1 A
63.7315318390933;0.6995849609375;0.30419921875;4.01999998985048;403;1 A
63.7415318390681;0.6995849609375;0.3072509765625;4.02999998982523;404;1 A
63.7515318390429;0.69964599609375;0.307952880859375;4.03999998979998;405;1 A
63.7615318390176;0.69970703125;0.307769775390625;4.04999998977473;406;1 A
63.7715318389924;0.69952392578125;0.30999755859375;4.05999998974949;407;1 A
63.7815318389671;0.69964599609375;0.310699462890625;4.06999998972424;408;1 A
63.7915318389419;0.699615478515625;0.308685302734375;4.07999998969899;409;1 A
63.8015318389166;0.699554443359375;0.31097412109375;4.08999998967374;410;1 A
63.8115318388914;0.699676513671875;0.31060791015625;4.0999999896485;411;1 A
63.8215318388661;0.69964599609375;0.308441162109375;4.10999998962325;412;1 A
63.8315318388409;0.6995849609375;0.3148193359375;4.119999989598;413;1 A
63.8415318388156;0.69964599609375;0.31597900390625;4.12999998957275;414;1 A
63.8515318387904;0.699615478515625;0.313446044921875;4.1399999895475;415;1 A
63.8615318387651;0.6995849609375;0.31494140625;4.14999998952226;416;1 A
63.8715318387399;0.699615478515625;0.31427001953125;4.15999998949701;417;1 A
63.8815318387146;0.6995849609375;0.31170654296875;4.16999998947176;418;1 A
63.8915318386894;0.699615478515625;0.314056396484375;4.17999998944651;419;1 A
63.9015318386641;0.6995849609375;0.312652587890625;4.18999998942127;420;1 A
63.9115318386389;0.69964599609375;0.30950927734375;4.19999998939602;421;1 A
63.9215318386136;0.699615478515625;0.3092041015625;4.20999998937077;422;1 A
63.9315318385884;0.699615478515625;0.306976318359375;4.21999998934552;423;1 A
63.9415318385632;0.699676513671875;0.3046875;4.22999998932028;424;1 A
63.9515318385379;0.699554443359375;0.309844970703125;4.23999998929503;425;1 A
63.9615318385127;0.699676513671875;0.312469482421875;4.24999998926978;426;1 A
63.9715318384874;0.69964599609375;0.312652587890625;4.25999998924453;427;1 A
63.9815318384622;0.699615478515625;0.316070556640625;4.26999998921929;428;1 A
63.9915318384369;0.699737548828125;0.316375732421875;4.27999998919404;429;1 A
64.0015318384117;0.699676513671875;0.313995361328125;4.28999998916879;430;1 A
64.0115318383864;0.69964599609375;0.312591552734375;4.29999998914354;431;1 A
64.0215318383612;0.69976806640625;0.31207275390625;4.3099999891183;432;1 A
64.0315318383359;0.69952392578125;0.310943603515625;4.31999998909305;433;1 A
64.0415318383107;0.6995849609375;0.31085205078125;4.3299999890678;434;1 A
64.0515318382854;0.69970703125;0.310150146484375;4.33999998904255;435;1 A
64.0615318382602;0.699554443359375;0.308746337890625;4.34999998901731;436;1 A
64.0715318382349;0.69964599609375;0.309326171875;4.35999998899206;437;1 A
64.0815318382097;0.69964599609375;0.310302734375;4.36999998896681;438;1 A
64.0915318381844;0.6995849609375;0.30926513671875;4.37999998894156;439;1 A
64.1015318381592;0.699676513671875;0.309478759765625;4.38999998891632;440;1 A
64.1115318381339;0.699615478515625;0.3104248046875;4.39999998889107;441;1 A
64.1215318381087;0.699615478515625;0.30999755859375;4.40999998886582;442;1 A
64.1315318380834;0.699615478515625;0.311370849609375;4.41999998884057;443;1 A
64.1415318380582;0.699676513671875;0.3133544921875;4.42999998881533;444;1 A
64.151531838033;0.699737548828125;0.312896728515625;4.43999998879008;445;1 A
64.1615318380077;0.69964599609375;0.313507080078125;4.44999998876483;446;1 A
64.1715318379825;0.69964599609375;0.313232421875;4.45999998873958;447;1 A
64.1815318379572;0.69970703125;0.31134033203125;4.46999998871433;448;1 A
64.191531837932;0.69964599609375;0.312896728515625;4.47999998868909;449;1 A
64.2015318379067;0.699676513671875;0.31170654296875;4.48999998866384;450;1 A
64.2115318378815;0.69964599609375;0.308868408203125;4.49999998863859;451;1 A
64.2215318378562;0.69964599609375;0.31170654296875;4.50999998861334;452;1 A
64.231531837831;0.699737548828125;0.3121337890625;4.5199999885881;453;1 A
64.2415318378057;0.699615478515625;0.31097412109375;4.52999998856285;454;1 A
64.2515318377805;0.6995849609375;0.31170654296875;4.5399999885376;455;1 A
64.2615318377552;0.699676513671875;0.31243896484375;4.54999998851235;456;1 A
64.27153183773;0.6995849609375;0.31195068359375;4.55999998848711;457;1 A
64.2815318377047;0.69964599609375;0.3121337890625;4.56999998846186;458;1 A
64.2915318376795;0.699615478515625;0.31134033203125;4.57999998843661;459;1 A
64.3015318376542;0.699554443359375;0.309234619140625;4.58999998841136;460;1 A
64.311531837629;0.699615478515625;0.310943603515625;4.59999998838612;461;1 A
64.3215318376037;0.699676513671875;0.31304931640625;4.60999998836087;462;1 A
64.3315318375785;0.69964599609375;0.312713623046875;4.61999998833562;463;1 A
64.3415318375532;0.69964599609375;0.314178466796875;4.62999998831037;464;1 A
64.351531837528;0.699676513671875;0.31427001953125;4.63999998828513;465;1 A
64.3615318375028;0.699676513671875;0.314178466796875;4.64999998825988;466;1 A
64.3715318374775;0.699615478515625;0.315948486328125;4.65999998823463;467;1 A
64.3815318374523;0.699676513671875;0.31500244140625;4.66999998820938;468;1 A
64.391531837427;0.69964599609375;0.3131103515625;4.67999998818414;469;1 A
64.4015318374018;0.699615478515625;0.314056396484375;4.68999998815889;470;1 A
64.4115318373765;0.699676513671875;0.31439208984375;4.69999998813364;471;1 A
64.4215318373513;0.6995849609375;0.312774658203125;4.70999998810839;472;1 A
64.431531837326;0.699615478515625;0.31268310546875;4.71999998808315;473;1 A
64.4415318373008;0.699676513671875;0.311126708984375;4.7299999880579;474;1 A
64.4515318372755;0.699554443359375;0.3079833984375;4.73999998803265;475;1 A
64.4615318372503;0.699615478515625;0.3076171875;4.7499999880074;476;1 A
64.471531837225;0.699554443359375;0.307159423828125;4.75999998798216;477;1 A
64.4815318371998;0.699554443359375;0.305938720703125;4.76999998795691;478;1 A
64.4915318371745;0.699615478515625;0.307708740234375;4.77999998793166;479;1 A
64.5015318371493;0.699554443359375;0.308258056640625;4.78999998790641;480;1 A
64.511531837124;0.699554443359375;0.30731201171875;4.79999998788116;481;1 A
64.5215318370988;0.699615478515625;0.307281494140625;4.80999998785592;482;1 A
64.5315318370735;0.6995849609375;0.306671142578125;4.81999998783067;483;1 A
64.5415318370483;0.69964599609375;0.30596923828125;4.82999998780542;484;1 A
64.551531837023;0.699615478515625;0.308807373046875;4.83999998778017;485;1 A
64.5615318369978;0.699615478515625;0.31201171875;4.84999998775493;486;1 A
64.5715318369726;0.69970703125;0.31195068359375;4.85999998772968;487;1 A
64.5815318369473;0.6995849609375;0.314056396484375;4.86999998770443;488;1 A
64.5915318369221;0.69970703125;0.312225341796875;4.87999998767918;489;1 A
64.6015318368968;0.6995849609375;0.309814453125;4.88999998765394;490;1 A
64.6115318368716;0.699737548828125;0.313629150390625;4.89999998762869;491;1 A
64.6215318368463;0.69970703125;0.313262939453125;4.90999998760344;492;1 A
64.6315318368211;0.6995849609375;0.311126708984375;4.91999998757819;493;1 A
64.6415318367958;0.69964599609375;0.3116455078125;4.92999998755295;494;1 A
64.6515318367706;0.69964599609375;0.31146240234375;4.9399999875277;495;1 A
64.6615318367453;0.699615478515625;0.30865478515625;4.94999998750245;496;1 A
64.6715318367201;0.699615478515625;0.30859375;4.9599999874772;497;1 A
64.6815318366948;0.69964599609375;0.30682373046875;4.96999998745196;498;1 A
64.6915318366696;0.6995849609375;0.30560302734375;4.97999998742671;499;1 A
64.7015318366443;0.699615478515625;0.30810546875;4.98999998740146;500;1 A
