Time (s);WE(1).Potential (V);Corrected time (s);Index;WE(1).Current (A);Current range
12.4708649685141;-0.117706298828125;0;1;-0.0160003662109375;100 mA
12.4808649684888;-0.146759033203125;0.00999999997475243;2;-0.0159942626953125;100 mA
12.4908649684636;-0.16387939453125;0.0199999999495049;3;-0.0159942626953125;100 mA
12.5008649684383;-0.175811767578125;0.0299999999242573;4;-0.015997314453125;100 mA
12.5108649684131;-0.184844970703125;0.0399999998990097;5;-0.015997314453125;100 mA
12.5208649683879;-0.19207763671875;0.0499999998737621;6;-0.0159912109375;100 mA
12.5308649683626;-0.198150634765625;0.0599999998485146;7;-0.0159942626953125;100 mA
12.5408649683374;-0.20330810546875;0.069999999823267;8;-0.0159942626953125;100 mA
12.5508649683121;-0.207855224609375;0.0799999997980194;9;-0.0159912109375;100 mA
12.5608649682869;-0.211883544921875;0.0899999997727718;10;-0.015997314453125;100 mA
12.5708649682616;-0.21551513671875;0.0999999997475243;11;-0.015997314453125;100 mA
12.5808649682364;-0.21881103515625;0.109999999722277;12;-0.0160003662109375;100 mA
12.5908649682111;-0.2218017578125;0.119999999697029;13;-0.0159912109375;100 mA
12.6008649681859;-0.224609375;0.129999999671782;14;-0.0159881591796875;100 mA
12.6108649681606;-0.227203369140625;0.139999999646534;15;-0.0159942626953125;100 mA
12.6208649681354;-0.229644775390625;0.149999999621286;16;-0.0160003662109375;100 mA
12.6308649681101;-0.23193359375;0.159999999596039;17;-0.0159942626953125;100 mA
12.6408649680849;-0.23406982421875;0.169999999570791;18;-0.0159942626953125;100 mA
12.6508649680596;-0.236083984375;0.179999999545544;19;-0.0159942626953125;100 mA
12.6608649680344;-0.238006591796875;0.189999999520296;20;-0.0160003662109375;100 mA
12.6708649680091;-0.239837646484375;0.199999999495049;21;-0.0159942626953125;100 mA
12.6808649679839;-0.241607666015625;0.209999999469801;22;-0.0160003662109375;100 mA
12.6908649679586;-0.2432861328125;0.219999999444553;23;-0.0159942626953125;100 mA
12.7008649679334;-0.244903564453125;0.229999999419306;24;-0.0159912109375;100 mA
12.7108649679082;-0.246429443359375;0.239999999394058;25;-0.0160003662109375;100 mA
12.7208649678829;-0.2479248046875;0.249999999368811;26;-0.0159912109375;100 mA
12.7308649678577;-0.249359130859375;0.259999999343563;27;-0.0159942626953125;100 mA
12.7408649678324;-0.250701904296875;0.269999999318316;28;-0.0159942626953125;100 mA
12.7508649678072;-0.252044677734375;0.279999999293068;29;-0.015997314453125;100 mA
12.7608649677819;-0.253326416015625;0.28999999926782;30;-0.0159942626953125;100 mA
12.7708649677567;-0.25457763671875;0.299999999242573;31;-0.015997314453125;100 mA
12.7808649677314;-0.25579833984375;0.309999999217325;32;-0.0159942626953125;100 mA
12.7908649677062;-0.2569580078125;0.319999999192078;33;-0.0159942626953125;100 mA
12.8008649676809;-0.25811767578125;0.32999999916683;34;-0.0159942626953125;100 mA
12.8108649676557;-0.259246826171875;0.339999999141583;35;-0.0159942626953125;100 mA
12.8208649676304;-0.26031494140625;0.349999999116335;36;-0.0159912109375;100 mA
12.8308649676052;-0.261383056640625;0.359999999091087;37;-0.015997314453125;100 mA
12.8408649675799;-0.26239013671875;0.36999999906584;38;-0.0159942626953125;100 mA
12.8508649675547;-0.263427734375;0.379999999040592;39;-0.0160003662109375;100 mA
12.8608649675294;-0.264404296875;0.389999999015345;40;-0.0159942626953125;100 mA
12.8708649675042;-0.265350341796875;0.399999998990097;41;-0.0159942626953125;100 mA
12.8808649674789;-0.26629638671875;0.40999999896485;42;-0.015997314453125;100 mA
12.8908649674537;-0.267181396484375;0.419999998939602;43;-0.0159912109375;100 mA
12.9008649674284;-0.268096923828125;0.429999998914354;44;-0.0159942626953125;100 mA
12.9108649674032;-0.26898193359375;0.439999998889107;45;-0.015997314453125;100 mA
12.920864967378;-0.26983642578125;0.449999998863859;46;-0.015997314453125;100 mA
12.9308649673527;-0.27069091796875;0.459999998838612;47;-0.0160003662109375;100 mA
12.9408649673275;-0.271514892578125;0.469999998813364;48;-0.015997314453125;100 mA
12.9508649673022;-0.2723388671875;0.479999998788116;49;-0.0159942626953125;100 mA
12.960864967277;-0.27313232421875;0.489999998762869;50;-0.01600341796875;100 mA
12.9708649672517;-0.273895263671875;0.499999998737621;51;-0.0159942626953125;100 mA
12.9808649672265;-0.274688720703125;0.509999998712374;52;-0.0159942626953125;100 mA
12.9908649672012;-0.27545166015625;0.519999998687126;53;-0.0159912109375;100 mA
13.000864967176;-0.276214599609375;0.529999998661879;54;-0.0159942626953125;100 mA
13.0108649671507;-0.276947021484375;0.539999998636631;55;-0.0159942626953125;100 mA
13.0208649671255;-0.27764892578125;0.549999998611383;56;-0.0159942626953125;100 mA
13.0308649671002;-0.27838134765625;0.559999998586136;57;-0.0159942626953125;100 mA
13.040864967075;-0.279052734375;0.569999998560888;58;-0.0159942626953125;100 mA
13.0508649670497;-0.27978515625;0.579999998535641;59;-0.0159942626953125;100 mA
13.0608649670245;-0.28045654296875;0.589999998510393;60;-0.015997314453125;100 mA
13.0708649669992;-0.281097412109375;0.599999998485146;61;-0.015997314453125;100 mA
13.080864966974;-0.281768798828125;0.609999998459898;62;-0.0160003662109375;100 mA
13.0908649669487;-0.28240966796875;0.61999999843465;63;-0.015997314453125;100 mA
13.1008649669235;-0.283050537109375;0.629999998409403;64;-0.0159942626953125;100 mA
13.1108649668982;-0.28369140625;0.639999998384155;65;-0.0159912109375;100 mA
13.120864966873;-0.284332275390625;0.649999998358908;66;-0.0159942626953125;100 mA
13.1308649668478;-0.284942626953125;0.65999999833366;67;-0.0159942626953125;100 mA
13.1408649668225;-0.285552978515625;0.669999998308413;68;-0.0159942626953125;100 mA
13.1508649667973;-0.286163330078125;0.679999998283165;69;-0.0159942626953125;100 mA
13.160864966772;-0.286773681640625;0.689999998257917;70;-0.0159942626953125;100 mA
13.1708649667468;-0.287353515625;0.69999999823267;71;-0.0159912109375;100 mA
13.1808649667215;-0.287933349609375;0.709999998207422;72;-0.0159942626953125;100 mA
13.1908649666963;-0.28851318359375;0.719999998182175;73;-0.015997314453125;100 mA
13.200864966671;-0.289093017578125;0.729999998156927;74;-0.0159912109375;100 mA
13.2108649666458;-0.289642333984375;0.73999999813168;75;-0.0159942626953125;100 mA
13.2208649666205;-0.290191650390625;0.749999998106432;76;-0.0159912109375;100 mA
13.2308649665953;-0.290771484375;0.759999998081184;77;-0.0159881591796875;100 mA
13.24086496657;-0.291290283203125;0.769999998055937;78;-0.0159942626953125;100 mA
13.2508649665448;-0.291839599609375;0.779999998030689;79;-0.0160003662109375;100 mA
13.2608649665195;-0.292388916015625;0.789999998005442;80;-0.0159881591796875;100 mA
13.2708649664943;-0.29290771484375;0.799999997980194;81;-0.0159942626953125;100 mA
13.280864966469;-0.293426513671875;0.809999997954947;82;-0.0160003662109375;100 mA
13.2908649664438;-0.2939453125;0.819999997929699;83;-0.0159942626953125;100 mA
13.3008649664185;-0.294464111328125;0.829999997904451;84;-0.015997314453125;100 mA
13.3108649663933;-0.29498291015625;0.839999997879204;85;-0.0159942626953125;100 mA
13.320864966368;-0.29547119140625;0.849999997853956;86;-0.015997314453125;100 mA
13.3308649663428;-0.295989990234375;0.859999997828709;87;-0.0159912109375;100 mA
13.3408649663176;-0.29644775390625;0.869999997803461;88;-0.0159942626953125;100 mA
13.3508649662923;-0.29693603515625;0.879999997778214;89;-0.0159942626953125;100 mA
13.3608649662671;-0.29742431640625;0.889999997752966;90;-0.0159912109375;100 mA
13.3708649662418;-0.29791259765625;0.899999997727718;91;-0.0159912109375;100 mA
13.3808649662166;-0.29840087890625;0.909999997702471;92;-0.015997314453125;100 mA
13.3908649661913;-0.298858642578125;0.919999997677223;93;-0.015997314453125;100 mA
13.4008649661661;-0.299346923828125;0.929999997651976;94;-0.0159942626953125;100 mA
13.4108649661408;-0.2998046875;0.939999997626728;95;-0.015997314453125;100 mA
13.4208649661156;-0.300262451171875;0.949999997601481;96;-0.0159912109375;100 mA
13.4308649660903;-0.300750732421875;0.959999997576233;97;-0.015997314453125;100 mA
13.4408649660651;-0.301177978515625;0.969999997550985;98;-0.0159881591796875;100 mA
13.4508649660398;-0.3016357421875;0.979999997525738;99;-0.0159942626953125;100 mA
13.4608649660146;-0.302093505859375;0.98999999750049;100;-0.0159912109375;100 mA
13.4708649659893;-0.302520751953125;0.999999997475243;101;-0.015997314453125;100 mA
13.4808649659641;-0.302978515625;1.00999999745;102;-0.0159942626953125;100 mA
13.4908649659388;-0.30340576171875;1.01999999742475;103;-0.0159942626953125;100 mA
13.5008649659136;-0.3038330078125;1.0299999973995;104;-0.0159942626953125;100 mA
13.5108649658883;-0.304290771484375;1.03999999737425;105;-0.015997314453125;100 mA
13.5208649658631;-0.3046875;1.049999997349;106;-0.015997314453125;100 mA
13.5308649658378;-0.305145263671875;1.05999999732376;107;-0.0159942626953125;100 mA
13.5408649658126;-0.3055419921875;1.06999999729851;108;-0.0159881591796875;100 mA
13.5508649657874;-0.30596923828125;1.07999999727326;109;-0.015997314453125;100 mA
13.5608649657621;-0.306396484375;1.08999999724801;110;-0.0159912109375;100 mA
13.5708649657369;-0.306793212890625;1.09999999722277;111;-0.0159942626953125;100 mA
13.5808649657116;-0.307220458984375;1.10999999719752;112;-0.015997314453125;100 mA
13.5908649656864;-0.3076171875;1.11999999717227;113;-0.0159912109375;100 mA
13.6008649656611;-0.30804443359375;1.12999999714702;114;-0.0160003662109375;100 mA
13.6108649656359;-0.308441162109375;1.13999999712178;115;-0.015997314453125;100 mA
13.6208649656106;-0.308837890625;1.14999999709653;116;-0.0159942626953125;100 mA
13.6308649655854;-0.309234619140625;1.15999999707128;117;-0.0160003662109375;100 mA
13.6408649655601;-0.30963134765625;1.16999999704603;118;-0.0159942626953125;100 mA
13.6508649655349;-0.310028076171875;1.17999999702079;119;-0.0159942626953125;100 mA
13.6608649655096;-0.3104248046875;1.18999999699554;120;-0.0159942626953125;100 mA
13.6708649654844;-0.310791015625;1.19999999697029;121;-0.0159912109375;100 mA
13.6808649654591;-0.31121826171875;1.20999999694504;122;-0.0159942626953125;100 mA
13.6908649654339;-0.31158447265625;1.2199999969198;123;-0.015997314453125;100 mA
13.7008649654086;-0.311981201171875;1.22999999689455;124;-0.015997314453125;100 mA
13.7108649653834;-0.312347412109375;1.2399999968693;125;-0.0159942626953125;100 mA
13.7208649653581;-0.312713623046875;1.24999999684405;126;-0.0159942626953125;100 mA
13.7308649653329;-0.3131103515625;1.25999999681881;127;-0.015997314453125;100 mA
13.7408649653077;-0.3134765625;1.26999999679356;128;-0.0160003662109375;100 mA
13.7508649652824;-0.3138427734375;1.27999999676831;129;-0.0159942626953125;100 mA
13.7608649652572;-0.314208984375;1.28999999674306;130;-0.0159942626953125;100 mA
13.7708649652319;-0.3145751953125;1.29999999671782;131;-0.0159942626953125;100 mA
13.7808649652067;-0.314971923828125;1.30999999669257;132;-0.015997314453125;100 mA
13.7908649651814;-0.3153076171875;1.31999999666732;133;-0.0159942626953125;100 mA
13.8008649651562;-0.315673828125;1.32999999664207;134;-0.0160003662109375;100 mA
13.8108649651309;-0.3160400390625;1.33999999661683;135;-0.0160003662109375;100 mA
13.8208649651057;-0.31640625;1.34999999659158;136;-0.015997314453125;100 mA
13.8308649650804;-0.3167724609375;1.35999999656633;137;-0.0159881591796875;100 mA
13.8408649650552;-0.317108154296875;1.36999999654108;138;-0.0159942626953125;100 mA
13.8508649650299;-0.317474365234375;1.37999999651583;139;-0.0159942626953125;100 mA
13.8608649650047;-0.31781005859375;1.38999999649059;140;-0.015997314453125;100 mA
13.8708649649794;-0.318145751953125;1.39999999646534;141;-0.015997314453125;100 mA
13.8808649649542;-0.31854248046875;1.40999999644009;142;-0.0159942626953125;100 mA
13.8908649649289;-0.31884765625;1.41999999641484;143;-0.0159912109375;100 mA
13.9008649649037;-0.3192138671875;1.4299999963896;144;-0.0160003662109375;100 mA
13.9108649648784;-0.319549560546875;1.43999999636435;145;-0.015997314453125;100 mA
13.9208649648532;-0.31988525390625;1.4499999963391;146;-0.015997314453125;100 mA
13.9308649648279;-0.32025146484375;1.45999999631385;147;-0.0159942626953125;100 mA
13.9408649648027;-0.320587158203125;1.46999999628861;148;-0.0159881591796875;100 mA
13.9508649647775;-0.3209228515625;1.47999999626336;149;-0.0159942626953125;100 mA
13.9608649647522;-0.321258544921875;1.48999999623811;150;-0.0159942626953125;100 mA
13.970864964727;-0.32159423828125;1.49999999621286;151;-0.0159912109375;100 mA
13.9808649647017;-0.321929931640625;1.50999999618762;152;-0.0159942626953125;100 mA
13.9908649646765;-0.322235107421875;1.51999999616237;153;-0.0160003662109375;100 mA
14.0008649646512;-0.322601318359375;1.52999999613712;154;-0.0159912109375;100 mA
14.010864964626;-0.322906494140625;1.53999999611187;155;-0.015997314453125;100 mA
14.0208649646007;-0.3232421875;1.54999999608663;156;-0.0159942626953125;100 mA
14.0308649645755;-0.323577880859375;1.55999999606138;157;-0.015997314453125;100 mA
14.0408649645502;-0.323883056640625;1.56999999603613;158;-0.0159912109375;100 mA
14.050864964525;-0.32421875;1.57999999601088;159;-0.0159942626953125;100 mA
14.0608649644997;-0.324554443359375;1.58999999598564;160;-0.0159942626953125;100 mA
14.0708649644745;-0.324859619140625;1.59999999596039;161;-0.015997314453125;100 mA
14.0808649644492;-0.3251953125;1.60999999593514;162;-0.0159942626953125;100 mA
14.090864964424;-0.32550048828125;1.61999999590989;163;-0.0159942626953125;100 mA
14.1008649643987;-0.325836181640625;1.62999999588465;164;-0.0160003662109375;100 mA
14.1108649643735;-0.326141357421875;1.6399999958594;165;-0.015997314453125;100 mA
14.1208649643482;-0.326446533203125;1.64999999583415;166;-0.0159912109375;100 mA
14.130864964323;-0.3267822265625;1.6599999958089;167;-0.0159912109375;100 mA
14.1408649642977;-0.327056884765625;1.66999999578366;168;-0.015997314453125;100 mA
14.1508649642725;-0.327392578125;1.67999999575841;169;-0.015997314453125;100 mA
14.1608649642473;-0.32769775390625;1.68999999573316;170;-0.0159912109375;100 mA
14.170864964222;-0.3280029296875;1.69999999570791;171;-0.0160003662109375;100 mA
14.1808649641968;-0.32830810546875;1.70999999568267;172;-0.0159942626953125;100 mA
14.1908649641715;-0.32861328125;1.71999999565742;173;-0.0160003662109375;100 mA
14.2008649641463;-0.32891845703125;1.72999999563217;174;-0.0160003662109375;100 mA
14.210864964121;-0.3292236328125;1.73999999560692;175;-0.0159942626953125;100 mA
14.2208649640958;-0.32952880859375;1.74999999558167;176;-0.0159942626953125;100 mA
14.2308649640705;-0.329833984375;1.75999999555643;177;-0.0159942626953125;100 mA
14.2408649640453;-0.33013916015625;1.76999999553118;178;-0.015997314453125;100 mA
14.25086496402;-0.3304443359375;1.77999999550593;179;-0.015997314453125;100 mA
14.2608649639948;-0.33074951171875;1.78999999548068;180;-0.0159942626953125;100 mA
14.2708649639695;-0.331024169921875;1.79999999545544;181;-0.0160003662109375;100 mA
14.2808649639443;-0.33135986328125;1.80999999543019;182;-0.0159912109375;100 mA
14.290864963919;-0.331634521484375;1.81999999540494;183;-0.0159942626953125;100 mA
14.3008649638938;-0.331939697265625;1.82999999537969;184;-0.0159942626953125;100 mA
14.3108649638685;-0.332244873046875;1.83999999535445;185;-0.0159942626953125;100 mA
14.3208649638433;-0.33251953125;1.8499999953292;186;-0.0159912109375;100 mA
14.330864963818;-0.33282470703125;1.85999999530395;187;-0.015997314453125;100 mA
14.3408649637928;-0.333099365234375;1.8699999952787;188;-0.0159942626953125;100 mA
14.3508649637675;-0.333404541015625;1.87999999525346;189;-0.015997314453125;100 mA
14.3608649637423;-0.333709716796875;1.88999999522821;190;-0.0159942626953125;100 mA
14.3708649637171;-0.333984375;1.89999999520296;191;-0.0159942626953125;100 mA
14.3808649636918;-0.33428955078125;1.90999999517771;192;-0.0159912109375;100 mA
14.3908649636666;-0.334564208984375;1.91999999515247;193;-0.015997314453125;100 mA
14.4008649636413;-0.334869384765625;1.92999999512722;194;-0.015997314453125;100 mA
14.4108649636161;-0.33514404296875;1.93999999510197;195;-0.0159912109375;100 mA
14.4208649635908;-0.335418701171875;1.94999999507672;196;-0.0159942626953125;100 mA
14.4308649635656;-0.335723876953125;1.95999999505148;197;-0.0159942626953125;100 mA
14.4408649635403;-0.33599853515625;1.96999999502623;198;-0.015997314453125;100 mA
14.4508649635151;-0.336273193359375;1.97999999500098;199;-0.015997314453125;100 mA
14.4608649634898;-0.336578369140625;1.98999999497573;200;-0.0159942626953125;100 mA
14.4708649634646;-0.33685302734375;1.99999999495049;201;-0.0159912109375;100 mA
14.4808649634393;-0.337158203125;2.00999999492524;202;-0.015997314453125;100 mA
14.4908649634141;-0.33740234375;2.01999999489999;203;-0.0159912109375;100 mA
14.5008649633888;-0.33770751953125;2.02999999487474;204;-0.015997314453125;100 mA
14.5108649633636;-0.337982177734375;2.0399999948495;205;-0.0159912109375;100 mA
14.5208649633383;-0.3382568359375;2.04999999482425;206;-0.0159881591796875;100 mA
14.5308649633131;-0.338531494140625;2.059999994799;207;-0.0159942626953125;100 mA
14.5408649632878;-0.33880615234375;2.06999999477375;208;-0.0159912109375;100 mA
14.5508649632626;-0.339080810546875;2.0799999947485;209;-0.0159912109375;100 mA
14.5608649632373;-0.33935546875;2.08999999472326;210;-0.0159942626953125;100 mA
14.5708649632121;-0.339630126953125;2.09999999469801;211;-0.0159942626953125;100 mA
14.5808649631869;-0.339935302734375;2.10999999467276;212;-0.0159912109375;100 mA
14.5908649631616;-0.340179443359375;2.11999999464751;213;-0.015997314453125;100 mA
14.6008649631364;-0.340484619140625;2.12999999462227;214;-0.0159942626953125;100 mA
14.6108649631111;-0.34075927734375;2.13999999459702;215;-0.0159942626953125;100 mA
14.6208649630859;-0.34100341796875;2.14999999457177;216;-0.015997314453125;100 mA
14.6308649630606;-0.34130859375;2.15999999454652;217;-0.0159942626953125;100 mA
14.6408649630354;-0.341552734375;2.16999999452128;218;-0.015997314453125;100 mA
14.6508649630101;-0.341827392578125;2.17999999449603;219;-0.0159912109375;100 mA
14.6608649629849;-0.34210205078125;2.18999999447078;220;-0.0159942626953125;100 mA
14.6708649629596;-0.34234619140625;2.19999999444553;221;-0.0159912109375;100 mA
14.6808649629344;-0.3426513671875;2.20999999442029;222;-0.0159912109375;100 mA
14.6908649629091;-0.3428955078125;2.21999999439504;223;-0.0159912109375;100 mA
14.7008649628839;-0.343170166015625;2.22999999436979;224;-0.015997314453125;100 mA
14.7108649628586;-0.34344482421875;2.23999999434454;225;-0.0159881591796875;100 mA
14.7208649628334;-0.34368896484375;2.2499999943193;226;-0.0159942626953125;100 mA
14.7308649628081;-0.343963623046875;2.25999999429405;227;-0.0160003662109375;100 mA
14.7408649627829;-0.344207763671875;2.2699999942688;228;-0.0159942626953125;100 mA
14.7508649627576;-0.344482421875;2.27999999424355;229;-0.0159942626953125;100 mA
14.7608649627324;-0.344757080078125;2.28999999421831;230;-0.0159912109375;100 mA
14.7708649627072;-0.345001220703125;2.29999999419306;231;-0.0160003662109375;100 mA
14.7808649626819;-0.34527587890625;2.30999999416781;232;-0.0159942626953125;100 mA
14.7908649626567;-0.34552001953125;2.31999999414256;233;-0.0159912109375;100 mA
14.8008649626314;-0.345794677734375;2.32999999411732;234;-0.0160003662109375;100 mA
14.8108649626062;-0.3460693359375;2.33999999409207;235;-0.0159942626953125;100 mA
14.8208649625809;-0.3463134765625;2.34999999406682;236;-0.0159942626953125;100 mA
14.8308649625557;-0.346588134765625;2.35999999404157;237;-0.0159942626953125;100 mA
14.8408649625304;-0.346832275390625;2.36999999401633;238;-0.0159912109375;100 mA
14.8508649625052;-0.34710693359375;2.37999999399108;239;-0.0159912109375;100 mA
14.8608649624799;-0.34735107421875;2.38999999396583;240;-0.0159942626953125;100 mA
14.8708649624547;-0.34759521484375;2.39999999394058;241;-0.0159942626953125;100 mA
14.8808649624294;-0.347900390625;2.40999999391533;242;-0.0159942626953125;100 mA
14.8908649624042;-0.34814453125;2.41999999389009;243;-0.0159912109375;100 mA
14.9008649623789;-0.348388671875;2.42999999386484;244;-0.0159942626953125;100 mA
14.9108649623537;-0.348663330078125;2.43999999383959;245;-0.0159942626953125;100 mA
14.9208649623284;-0.348907470703125;2.44999999381434;246;-0.0159912109375;100 mA
14.9308649623032;-0.34918212890625;2.4599999937891;247;-0.0159942626953125;100 mA
14.9408649622779;-0.349395751953125;2.46999999376385;248;-0.0159942626953125;100 mA
14.9508649622527;-0.34967041015625;2.4799999937386;249;-0.015997314453125;100 mA
14.9608649622274;-0.349945068359375;2.48999999371335;250;-0.015997314453125;100 mA
14.9708649622022;-0.35015869140625;2.49999999368811;251;-0.015997314453125;100 mA
14.980864962177;-0.350433349609375;2.50999999366286;252;-0.0159912109375;100 mA
14.9908649621517;-0.350677490234375;2.51999999363761;253;-0.0159942626953125;100 mA
15.0008649621265;-0.3509521484375;2.52999999361236;254;-0.015997314453125;100 mA
15.0108649621012;-0.3511962890625;2.53999999358712;255;-0.0159942626953125;100 mA
15.020864962076;-0.3514404296875;2.54999999356187;256;-0.0159942626953125;100 mA
15.0308649620507;-0.351715087890625;2.55999999353662;257;-0.0159942626953125;100 mA
15.0408649620255;-0.351959228515625;2.56999999351137;258;-0.0159942626953125;100 mA
15.0508649620002;-0.352203369140625;2.57999999348613;259;-0.0159912109375;100 mA
15.060864961975;-0.352447509765625;2.58999999346088;260;-0.015997314453125;100 mA
15.0708649619497;-0.352691650390625;2.59999999343563;261;-0.0159942626953125;100 mA
15.0808649619245;-0.35296630859375;2.60999999341038;262;-0.0159942626953125;100 mA
15.0908649618992;-0.35321044921875;2.61999999338514;263;-0.0159942626953125;100 mA
15.100864961874;-0.35345458984375;2.62999999335989;264;-0.0159942626953125;100 mA
15.1108649618487;-0.35369873046875;2.63999999333464;265;-0.0159881591796875;100 mA
15.1208649618235;-0.35394287109375;2.64999999330939;266;-0.015997314453125;100 mA
15.1308649617982;-0.354217529296875;2.65999999328415;267;-0.0159942626953125;100 mA
15.140864961773;-0.35443115234375;2.6699999932589;268;-0.015997314453125;100 mA
15.1508649617477;-0.354705810546875;2.67999999323365;269;-0.0159942626953125;100 mA
15.1608649617225;-0.354949951171875;2.6899999932084;270;-0.0159942626953125;100 mA
15.1708649616972;-0.35516357421875;2.69999999318316;271;-0.0159912109375;100 mA
15.180864961672;-0.355438232421875;2.70999999315791;272;-0.0159942626953125;100 mA
15.1908649616468;-0.355682373046875;2.71999999313266;273;-0.0159912109375;100 mA
15.2008649616215;-0.355926513671875;2.72999999310741;274;-0.0159912109375;100 mA
15.2108649615963;-0.356170654296875;2.73999999308217;275;-0.0159912109375;100 mA
15.220864961571;-0.356414794921875;2.74999999305692;276;-0.0159942626953125;100 mA
15.2308649615458;-0.356689453125;2.75999999303167;277;-0.0159942626953125;100 mA
15.2408649615205;-0.356903076171875;2.76999999300642;278;-0.0159912109375;100 mA
15.2508649614953;-0.357147216796875;2.77999999298117;279;-0.0159942626953125;100 mA
15.26086496147;-0.357421875;2.78999999295593;280;-0.0159942626953125;100 mA
15.2708649614448;-0.357635498046875;2.79999999293068;281;-0.0159912109375;100 mA
15.2808649614195;-0.35791015625;2.80999999290543;282;-0.0159942626953125;100 mA
15.2908649613943;-0.358123779296875;2.81999999288018;283;-0.015997314453125;100 mA
15.300864961369;-0.358367919921875;2.82999999285494;284;-0.0159912109375;100 mA
15.3108649613438;-0.358612060546875;2.83999999282969;285;-0.0159881591796875;100 mA
15.3208649613185;-0.358856201171875;2.84999999280444;286;-0.0159942626953125;100 mA
15.3308649612933;-0.359100341796875;2.85999999277919;287;-0.0159942626953125;100 mA
15.340864961268;-0.35931396484375;2.86999999275395;288;-0.0159912109375;100 mA
15.3508649612428;-0.35955810546875;2.8799999927287;289;-0.015997314453125;100 mA
15.3608649612175;-0.35980224609375;2.88999999270345;290;-0.015997314453125;100 mA
15.3708649611923;-0.36004638671875;2.8999999926782;291;-0.0159912109375;100 mA
15.380864961167;-0.36029052734375;2.90999999265296;292;-0.0159942626953125;100 mA
15.3908649611418;-0.36053466796875;2.91999999262771;293;-0.0159942626953125;100 mA
15.4008649611166;-0.36077880859375;2.92999999260246;294;-0.015997314453125;100 mA
15.4108649610913;-0.36102294921875;2.93999999257721;295;-0.0159942626953125;100 mA
15.4208649610661;-0.361236572265625;2.94999999255197;296;-0.0159942626953125;100 mA
15.4308649610408;-0.361480712890625;2.95999999252672;297;-0.0159942626953125;100 mA
15.4408649610156;-0.361724853515625;2.96999999250147;298;-0.015997314453125;100 mA
15.4508649609903;-0.361968994140625;2.97999999247622;299;-0.0159942626953125;100 mA
15.4608649609651;-0.362213134765625;2.98999999245098;300;-0.0159942626953125;100 mA
15.4708649609398;-0.3624267578125;2.99999999242573;301;-0.0159912109375;100 mA
15.4808649609146;-0.362701416015625;3.00999999240048;302;-0.0159942626953125;100 mA
15.4908649608893;-0.3629150390625;3.01999999237523;303;-0.0159942626953125;100 mA
15.5008649608641;-0.3631591796875;3.02999999234999;304;-0.0159942626953125;100 mA
15.5108649608388;-0.3634033203125;3.03999999232474;305;-0.0159942626953125;100 mA
15.5208649608136;-0.363616943359375;3.04999999229949;306;-0.0159912109375;100 mA
15.5308649607883;-0.3638916015625;3.05999999227424;307;-0.0159881591796875;100 mA
15.5408649607631;-0.364105224609375;3.069999992249;308;-0.0159881591796875;100 mA
15.5508649607378;-0.364349365234375;3.07999999222375;309;-0.0159912109375;100 mA
15.5608649607126;-0.364593505859375;3.0899999921985;310;-0.0159912109375;100 mA
15.5708649606873;-0.36480712890625;3.09999999217325;311;-0.0159912109375;100 mA
15.5808649606621;-0.36505126953125;3.109999992148;312;-0.0159912109375;100 mA
15.5908649606368;-0.36529541015625;3.11999999212276;313;-0.0159881591796875;100 mA
15.6008649606116;-0.36553955078125;3.12999999209751;314;-0.0159912109375;100 mA
15.6108649605864;-0.365753173828125;3.13999999207226;315;-0.0159912109375;100 mA
15.6208649605611;-0.365997314453125;3.14999999204701;316;-0.0159912109375;100 mA
15.6308649605359;-0.366241455078125;3.15999999202177;317;-0.0159942626953125;100 mA
15.6408649605106;-0.366455078125;3.16999999199652;318;-0.015997314453125;100 mA
15.6508649604854;-0.36669921875;3.17999999197127;319;-0.0159942626953125;100 mA
15.6608649604601;-0.366943359375;3.18999999194602;320;-0.0159942626953125;100 mA
15.6708649604349;-0.367156982421875;3.19999999192078;321;-0.0159942626953125;100 mA
15.6808649604096;-0.367401123046875;3.20999999189553;322;-0.015997314453125;100 mA
15.6908649603844;-0.367645263671875;3.21999999187028;323;-0.015997314453125;100 mA
15.7008649603591;-0.36785888671875;3.22999999184503;324;-0.015997314453125;100 mA
15.7108649603339;-0.36810302734375;3.23999999181979;325;-0.0159942626953125;100 mA
15.7208649603086;-0.36834716796875;3.24999999179454;326;-0.0159942626953125;100 mA
15.7308649602834;-0.36859130859375;3.25999999176929;327;-0.015997314453125;100 mA
15.7408649602581;-0.368804931640625;3.26999999174404;328;-0.0159942626953125;100 mA
15.7508649602329;-0.369049072265625;3.2799999917188;329;-0.0160003662109375;100 mA
15.7608649602076;-0.369293212890625;3.28999999169355;330;-0.015997314453125;100 mA
15.7708649601824;-0.3695068359375;3.2999999916683;331;-0.0159942626953125;100 mA
15.7808649601571;-0.3697509765625;3.30999999164305;332;-0.0159881591796875;100 mA
15.7908649601319;-0.369964599609375;3.31999999161781;333;-0.0159912109375;100 mA
15.8008649601067;-0.370208740234375;3.32999999159256;334;-0.0159912109375;100 mA
15.8108649600814;-0.370452880859375;3.33999999156731;335;-0.0159912109375;100 mA
15.8208649600562;-0.37066650390625;3.34999999154206;336;-0.0159942626953125;100 mA
15.8308649600309;-0.37091064453125;3.35999999151682;337;-0.015997314453125;100 mA
15.8408649600057;-0.371124267578125;3.36999999149157;338;-0.0159912109375;100 mA
15.8508649599804;-0.371368408203125;3.37999999146632;339;-0.0159942626953125;100 mA
15.8608649599552;-0.371612548828125;3.38999999144107;340;-0.015997314453125;100 mA
15.8708649599299;-0.371826171875;3.39999999141583;341;-0.015997314453125;100 mA
15.8808649599047;-0.3720703125;3.40999999139058;342;-0.0159942626953125;100 mA
15.8908649598794;-0.372283935546875;3.41999999136533;343;-0.0159881591796875;100 mA
15.9008649598542;-0.372528076171875;3.42999999134008;344;-0.0159881591796875;100 mA
15.9108649598289;-0.372772216796875;3.43999999131483;345;-0.0159912109375;100 mA
15.9208649598037;-0.37298583984375;3.44999999128959;346;-0.015997314453125;100 mA
15.9308649597784;-0.37322998046875;3.45999999126434;347;-0.0159942626953125;100 mA
15.9408649597532;-0.373443603515625;3.46999999123909;348;-0.0159912109375;100 mA
15.9508649597279;-0.373687744140625;3.47999999121384;349;-0.0159912109375;100 mA
15.9608649597027;-0.373931884765625;3.4899999911886;350;-0.0159912109375;100 mA
15.9708649596774;-0.374114990234375;3.49999999116335;351;-0.0159942626953125;100 mA
15.9808649596522;-0.3743896484375;3.5099999911381;352;-0.0159942626953125;100 mA
15.9908649596269;-0.374603271484375;3.51999999111285;353;-0.0159942626953125;100 mA
16.0008649596017;-0.37481689453125;3.52999999108761;354;-0.0159912109375;100 mA
16.0108649595765;-0.37506103515625;3.53999999106236;355;-0.0160003662109375;100 mA
16.0208649595512;-0.375274658203125;3.54999999103711;356;-0.0159912109375;100 mA
16.030864959526;-0.375518798828125;3.55999999101186;357;-0.0159912109375;100 mA
16.0408649595007;-0.375732421875;3.56999999098662;358;-0.0159942626953125;100 mA
16.0508649594755;-0.3759765625;3.57999999096137;359;-0.0159942626953125;100 mA
16.0608649594502;-0.376190185546875;3.58999999093612;360;-0.0159912109375;100 mA
16.070864959425;-0.37640380859375;3.59999999091087;361;-0.0159912109375;100 mA
16.0808649593997;-0.37664794921875;3.60999999088563;362;-0.0159942626953125;100 mA
16.0908649593745;-0.37689208984375;3.61999999086038;363;-0.015997314453125;100 mA
16.1008649593492;-0.377105712890625;3.62999999083513;364;-0.0159942626953125;100 mA
16.110864959324;-0.377349853515625;3.63999999080988;365;-0.0159912109375;100 mA
16.1208649592987;-0.3775634765625;3.64999999078464;366;-0.0159942626953125;100 mA
16.1308649592735;-0.3778076171875;3.65999999075939;367;-0.0159912109375;100 mA
16.1408649592482;-0.378021240234375;3.66999999073414;368;-0.0159912109375;100 mA
16.150864959223;-0.378265380859375;3.67999999070889;369;-0.0159942626953125;100 mA
16.1608649591977;-0.378509521484375;3.68999999068365;370;-0.0159881591796875;100 mA
16.1708649591725;-0.378692626953125;3.6999999906584;371;-0.0159881591796875;100 mA
16.1808649591472;-0.37896728515625;3.70999999063315;372;-0.0159942626953125;100 mA
16.190864959122;-0.379180908203125;3.7199999906079;373;-0.0159942626953125;100 mA
16.2008649590967;-0.37939453125;3.72999999058266;374;-0.0159942626953125;100 mA
16.2108649590715;-0.379638671875;3.73999999055741;375;-0.015997314453125;100 mA
16.2208649590463;-0.379852294921875;3.74999999053216;376;-0.0159942626953125;100 mA
16.230864959021;-0.380096435546875;3.75999999050691;377;-0.0159912109375;100 mA
16.2408649589958;-0.38031005859375;3.76999999048167;378;-0.0160003662109375;100 mA
16.2508649589705;-0.38055419921875;3.77999999045642;379;-0.015997314453125;100 mA
16.2608649589453;-0.38079833984375;3.78999999043117;380;-0.0159942626953125;100 mA
16.27086495892;-0.381011962890625;3.79999999040592;381;-0.015997314453125;100 mA
16.2808649588948;-0.381256103515625;3.80999999038067;382;-0.0159912109375;100 mA
16.2908649588695;-0.3814697265625;3.81999999035543;383;-0.0159942626953125;100 mA
16.3008649588443;-0.381683349609375;3.82999999033018;384;-0.0159912109375;100 mA
16.310864958819;-0.381927490234375;3.83999999030493;385;-0.0159942626953125;100 mA
16.3208649587938;-0.38214111328125;3.84999999027968;386;-0.0159912109375;100 mA
16.3308649587685;-0.38238525390625;3.85999999025444;387;-0.0159942626953125;100 mA
16.3408649587433;-0.382598876953125;3.86999999022919;388;-0.015997314453125;100 mA
16.350864958718;-0.382843017578125;3.87999999020394;389;-0.015997314453125;100 mA
16.3608649586928;-0.383056640625;3.88999999017869;390;-0.0159881591796875;100 mA
16.3708649586675;-0.383270263671875;3.89999999015345;391;-0.0159881591796875;100 mA
16.3808649586423;-0.383544921875;3.9099999901282;392;-0.0159942626953125;100 mA
16.390864958617;-0.383758544921875;3.91999999010295;393;-0.0159912109375;100 mA
16.4008649585918;-0.38397216796875;3.9299999900777;394;-0.0159912109375;100 mA
16.4108649585665;-0.38421630859375;3.93999999005246;395;-0.0159942626953125;100 mA
16.4208649585413;-0.384429931640625;3.94999999002721;396;-0.015997314453125;100 mA
16.4308649585161;-0.384674072265625;3.95999999000196;397;-0.0159942626953125;100 mA
16.4408649584908;-0.3848876953125;3.96999998997671;398;-0.0159912109375;100 mA
16.4508649584656;-0.3851318359375;3.97999998995147;399;-0.0159942626953125;100 mA
16.4608649584403;-0.385345458984375;3.98999998992622;400;-0.0159881591796875;100 mA
16.4708649584151;-0.38555908203125;3.99999998990097;401;-0.0159881591796875;100 mA
16.4808649583898;-0.38580322265625;4.00999998987572;402;-0.0159942626953125;100 mA
16.4908649583646;-0.386016845703125;4.01999998985048;403;-0.0159942626953125;100 mA
16.5008649583393;-0.386260986328125;4.02999998982523;404;-0.0159912109375;100 mA
16.5108649583141;-0.386474609375;4.03999998979998;405;-0.0159912109375;100 mA
16.5208649582888;-0.38671875;4.04999998977473;406;-0.0159881591796875;100 mA
16.5308649582636;-0.386962890625;4.05999998974949;407;-0.0159942626953125;100 mA
16.5408649582383;-0.387176513671875;4.06999998972424;408;-0.0159912109375;100 mA
16.5508649582131;-0.38739013671875;4.07999998969899;409;-0.0159942626953125;100 mA
16.5608649581878;-0.38763427734375;4.08999998967374;410;-0.015997314453125;100 mA
16.5708649581626;-0.387847900390625;4.0999999896485;411;-0.0159912109375;100 mA
16.5808649581373;-0.388092041015625;4.10999998962325;412;-0.0159912109375;100 mA
16.5908649581121;-0.3883056640625;4.119999989598;413;-0.015997314453125;100 mA
16.6008649580868;-0.3885498046875;4.12999998957275;414;-0.015997314453125;100 mA
16.6108649580616;-0.3887939453125;4.1399999895475;415;-0.015997314453125;100 mA
16.6208649580363;-0.389007568359375;4.14999998952226;416;-0.0159942626953125;100 mA
16.6308649580111;-0.389251708984375;4.15999998949701;417;-0.0159942626953125;100 mA
16.6408649579859;-0.38946533203125;4.16999998947176;418;-0.0159942626953125;100 mA
16.6508649579606;-0.389678955078125;4.17999998944651;419;-0.0159912109375;100 mA
16.6608649579354;-0.389923095703125;4.18999998942127;420;-0.0159942626953125;100 mA
16.6708649579101;-0.39013671875;4.19999998939602;421;-0.015997314453125;100 mA
16.6808649578849;-0.390380859375;4.20999998937077;422;-0.0159881591796875;100 mA
16.6908649578596;-0.390594482421875;4.21999998934552;423;-0.0159912109375;100 mA
16.7008649578344;-0.39080810546875;4.22999998932028;424;-0.0159942626953125;100 mA
16.7108649578091;-0.39105224609375;4.23999998929503;425;-0.0159942626953125;100 mA
16.7208649577839;-0.39129638671875;4.24999998926978;426;-0.0159942626953125;100 mA
16.7308649577586;-0.391510009765625;4.25999998924453;427;-0.0159942626953125;100 mA
16.7408649577334;-0.3917236328125;4.26999998921929;428;-0.0159942626953125;100 mA
16.7508649577081;-0.3919677734375;4.27999998919404;429;-0.0159881591796875;100 mA
16.7608649576829;-0.3922119140625;4.28999998916879;430;-0.0159942626953125;100 mA
16.7708649576576;-0.392425537109375;4.29999998914354;431;-0.0159912109375;100 mA
16.7808649576324;-0.392669677734375;4.3099999891183;432;-0.0159912109375;100 mA
16.7908649576071;-0.39288330078125;4.31999998909305;433;-0.0159942626953125;100 mA
16.8008649575819;-0.39312744140625;4.3299999890678;434;-0.015997314453125;100 mA
16.8108649575566;-0.393341064453125;4.33999998904255;435;-0.0159912109375;100 mA
16.8208649575314;-0.393585205078125;4.34999998901731;436;-0.015997314453125;100 mA
16.8308649575062;-0.393798828125;4.35999998899206;437;-0.0159881591796875;100 mA
16.8408649574809;-0.39404296875;4.36999998896681;438;-0.015997314453125;100 mA
16.8508649574557;-0.394256591796875;4.37999998894156;439;-0.015997314453125;100 mA
16.8608649574304;-0.394500732421875;4.38999998891632;440;-0.015997314453125;100 mA
16.8708649574052;-0.39471435546875;4.39999998889107;441;-0.0159912109375;100 mA
16.8808649573799;-0.39495849609375;4.40999998886582;442;-0.0159942626953125;100 mA
16.8908649573547;-0.39520263671875;4.41999998884057;443;-0.0159912109375;100 mA
16.9008649573294;-0.395416259765625;4.42999998881533;444;-0.0159942626953125;100 mA
16.9108649573042;-0.395660400390625;4.43999998879008;445;-0.0159942626953125;100 mA
16.9208649572789;-0.3958740234375;4.44999998876483;446;-0.0159942626953125;100 mA
16.9308649572537;-0.3961181640625;4.45999998873958;447;-0.015997314453125;100 mA
16.9408649572284;-0.396331787109375;4.46999998871433;448;-0.015997314453125;100 mA
16.9508649572032;-0.396575927734375;4.47999998868909;449;-0.0159942626953125;100 mA
16.9608649571779;-0.396820068359375;4.48999998866384;450;-0.0159942626953125;100 mA
16.9708649571527;-0.39703369140625;4.49999998863859;451;-0.0159942626953125;100 mA
16.9808649571274;-0.39727783203125;4.50999998861334;452;-0.015997314453125;100 mA
16.9908649571022;-0.397491455078125;4.5199999885881;453;-0.015997314453125;100 mA
17.0008649570769;-0.397735595703125;4.52999998856285;454;-0.0159881591796875;100 mA
17.0108649570517;-0.397979736328125;4.5399999885376;455;-0.015997314453125;100 mA
17.0208649570264;-0.398193359375;4.54999998851235;456;-0.0159912109375;100 mA
17.0308649570012;-0.3984375;4.55999998848711;457;-0.0159942626953125;100 mA
17.040864956976;-0.398651123046875;4.56999998846186;458;-0.0159942626953125;100 mA
17.0508649569507;-0.398895263671875;4.57999998843661;459;-0.015997314453125;100 mA
17.0608649569255;-0.399139404296875;4.58999998841136;460;-0.0159912109375;100 mA
17.0708649569002;-0.39935302734375;4.59999998838612;461;-0.0159942626953125;100 mA
17.080864956875;-0.39959716796875;4.60999998836087;462;-0.0159942626953125;100 mA
17.0908649568497;-0.399810791015625;4.61999998833562;463;-0.0159912109375;100 mA
17.1008649568245;-0.400054931640625;4.62999998831037;464;-0.015997314453125;100 mA
17.1108649567992;-0.400299072265625;4.63999998828513;465;-0.0159942626953125;100 mA
17.120864956774;-0.4005126953125;4.64999998825988;466;-0.0159881591796875;100 mA
17.1308649567487;-0.4007568359375;4.65999998823463;467;-0.0159912109375;100 mA
17.1408649567235;-0.4010009765625;4.66999998820938;468;-0.0159942626953125;100 mA
17.1508649566982;-0.401214599609375;4.67999998818414;469;-0.0159912109375;100 mA
17.160864956673;-0.4014892578125;4.68999998815889;470;-0.0160003662109375;100 mA
17.1708649566477;-0.40167236328125;4.69999998813364;471;-0.0159912109375;100 mA
17.1808649566225;-0.401947021484375;4.70999998810839;472;-0.0159942626953125;100 mA
17.1908649565972;-0.40216064453125;4.71999998808315;473;-0.015997314453125;100 mA
17.200864956572;-0.40240478515625;4.7299999880579;474;-0.0159912109375;100 mA
17.2108649565467;-0.40264892578125;4.73999998803265;475;-0.0159942626953125;100 mA
17.2208649565215;-0.402862548828125;4.7499999880074;476;-0.0159912109375;100 mA
17.2308649564962;-0.403106689453125;4.75999998798216;477;-0.0159912109375;100 mA
17.240864956471;-0.403350830078125;4.76999998795691;478;-0.0159942626953125;100 mA
17.2508649564458;-0.403564453125;4.77999998793166;479;-0.0159912109375;100 mA
17.2608649564205;-0.40380859375;4.78999998790641;480;-0.0159942626953125;100 mA
17.2708649563953;-0.404022216796875;4.79999998788116;481;-0.0159942626953125;100 mA
17.28086495637;-0.404296875;4.80999998785592;482;-0.0159912109375;100 mA
17.2908649563448;-0.404510498046875;4.81999998783067;483;-0.0159942626953125;100 mA
17.3008649563195;-0.404754638671875;4.82999998780542;484;-0.015997314453125;100 mA
17.3108649562943;-0.404998779296875;4.83999998778017;485;-0.015997314453125;100 mA
17.320864956269;-0.40521240234375;4.84999998775493;486;-0.0159942626953125;100 mA
17.3308649562438;-0.40545654296875;4.85999998772968;487;-0.0159942626953125;100 mA
17.3408649562185;-0.40570068359375;4.86999998770443;488;-0.0159912109375;100 mA
17.3508649561933;-0.40594482421875;4.87999998767918;489;-0.0159912109375;100 mA
17.360864956168;-0.40618896484375;4.88999998765394;490;-0.0159942626953125;100 mA
17.3708649561428;-0.4063720703125;4.89999998762869;491;-0.015997314453125;100 mA
17.3808649561175;-0.406646728515625;4.90999998760344;492;-0.0159912109375;100 mA
17.3908649560923;-0.4068603515625;4.91999998757819;493;-0.0159912109375;100 mA
17.400864956067;-0.4071044921875;4.92999998755295;494;-0.0159912109375;100 mA
17.4108649560418;-0.4073486328125;4.9399999875277;495;-0.0159942626953125;100 mA
17.4208649560165;-0.407562255859375;4.94999998750245;496;-0.0159912109375;100 mA
17.4308649559913;-0.4078369140625;4.9599999874772;497;-0.0159942626953125;100 mA
17.440864955966;-0.408050537109375;4.96999998745196;498;-0.0159912109375;100 mA
17.4508649559408;-0.408294677734375;4.97999998742671;499;-0.0159942626953125;100 mA
17.4608649559156;-0.408538818359375;4.98999998740146;500;-0.0159942626953125;100 mA
17.4708649558903;-0.40875244140625;4.99999998737621;501;-0.015997314453125;100 mA
17.4808649558651;-0.409027099609375;5.00999998735097;502;-0.0159942626953125;100 mA
17.4908649558398;-0.409271240234375;5.01999998732572;503;-0.0159942626953125;100 mA
17.5008649558146;-0.40948486328125;5.02999998730047;504;-0.0159942626953125;100 mA
17.5108649557893;-0.409759521484375;5.03999998727522;505;-0.015997314453125;100 mA
17.5208649557641;-0.40997314453125;5.04999998724998;506;-0.0160003662109375;100 mA
17.5308649557388;-0.41021728515625;5.05999998722473;507;-0.0159942626953125;100 mA
17.5408649557136;-0.41046142578125;5.06999998719948;508;-0.0159912109375;100 mA
17.5508649556883;-0.41070556640625;5.07999998717423;509;-0.0159942626953125;100 mA
17.5608649556631;-0.41094970703125;5.08999998714899;510;-0.0159942626953125;100 mA
17.5708649556378;-0.41119384765625;5.09999998712374;511;-0.0159942626953125;100 mA
17.5808649556126;-0.41143798828125;5.10999998709849;512;-0.0159942626953125;100 mA
17.5908649555873;-0.41168212890625;5.11999998707324;513;-0.0159912109375;100 mA
17.6008649555621;-0.41192626953125;5.129999987048;514;-0.0159881591796875;100 mA
17.6108649555368;-0.41217041015625;5.13999998702275;515;-0.0159942626953125;100 mA
17.6208649555116;-0.412384033203125;5.1499999869975;516;-0.0160003662109375;100 mA
17.6308649554863;-0.41265869140625;5.15999998697225;517;-0.0159942626953125;100 mA
17.6408649554611;-0.41290283203125;5.169999986947;518;-0.0159881591796875;100 mA
17.6508649554358;-0.41314697265625;5.17999998692176;519;-0.0159881591796875;100 mA
17.6608649554106;-0.41339111328125;5.18999998689651;520;-0.0159881591796875;100 mA
17.6708649553854;-0.413604736328125;5.19999998687126;521;-0.015997314453125;100 mA
17.6808649553601;-0.41387939453125;5.20999998684601;522;-0.0159942626953125;100 mA
17.6908649553349;-0.41412353515625;5.21999998682077;523;-0.0159942626953125;100 mA
17.7008649553096;-0.41436767578125;5.22999998679552;524;-0.015997314453125;100 mA
17.7108649552844;-0.41461181640625;5.23999998677027;525;-0.0159881591796875;100 mA
17.7208649552591;-0.41485595703125;5.24999998674502;526;-0.015997314453125;100 mA
17.7308649552339;-0.41510009765625;5.25999998671978;527;-0.0159912109375;100 mA
17.7408649552086;-0.41534423828125;5.26999998669453;528;-0.0159942626953125;100 mA
17.7508649551834;-0.41558837890625;5.27999998666928;529;-0.0159881591796875;100 mA
17.7608649551581;-0.41583251953125;5.28999998664403;530;-0.0159942626953125;100 mA
17.7708649551329;-0.41607666015625;5.29999998661879;531;-0.0159912109375;100 mA
17.7808649551076;-0.416351318359375;5.30999998659354;532;-0.0160003662109375;100 mA
17.7908649550824;-0.41656494140625;5.31999998656829;533;-0.0159942626953125;100 mA
17.8008649550571;-0.41680908203125;5.32999998654304;534;-0.0159942626953125;100 mA
17.8108649550319;-0.417083740234375;5.3399999865178;535;-0.015997314453125;100 mA
17.8208649550066;-0.417327880859375;5.34999998649255;536;-0.0159942626953125;100 mA
17.8308649549814;-0.417572021484375;5.3599999864673;537;-0.0159942626953125;100 mA
17.8408649549561;-0.417816162109375;5.36999998644205;538;-0.0159942626953125;100 mA
17.8508649549309;-0.418060302734375;5.37999998641681;539;-0.0159942626953125;100 mA
17.8608649549057;-0.4183349609375;5.38999998639156;540;-0.0159912109375;100 mA
17.8708649548804;-0.4185791015625;5.39999998636631;541;-0.0159912109375;100 mA
17.8808649548552;-0.4188232421875;5.40999998634106;542;-0.0159912109375;100 mA
17.8908649548299;-0.4190673828125;5.41999998631582;543;-0.0159881591796875;100 mA
17.9008649548047;-0.4193115234375;5.42999998629057;544;-0.0159912109375;100 mA
17.9108649547794;-0.419586181640625;5.43999998626532;545;-0.0159942626953125;100 mA
17.9208649547542;-0.419830322265625;5.44999998624007;546;-0.0160003662109375;100 mA
17.9308649547289;-0.42010498046875;5.45999998621483;547;-0.0159912109375;100 mA
17.9408649547037;-0.42034912109375;5.46999998618958;548;-0.0159912109375;100 mA
17.9508649546784;-0.42059326171875;5.47999998616433;549;-0.015997314453125;100 mA
17.9608649546532;-0.420867919921875;5.48999998613908;550;-0.0159881591796875;100 mA
17.9708649546279;-0.42108154296875;5.49999998611383;551;-0.0159912109375;100 mA
17.9808649546027;-0.421356201171875;5.50999998608859;552;-0.0159881591796875;100 mA
17.9908649545774;-0.421600341796875;5.51999998606334;553;-0.015997314453125;100 mA
18.0008649545522;-0.421844482421875;5.52999998603809;554;-0.0159881591796875;100 mA
18.0108649545269;-0.422119140625;5.53999998601284;555;-0.0159912109375;100 mA
18.0208649545017;-0.42236328125;5.5499999859876;556;-0.0159912109375;100 mA
18.0308649544764;-0.422607421875;5.55999998596235;557;-0.015985107421875;100 mA
18.0408649544512;-0.422882080078125;5.5699999859371;558;-0.0159942626953125;100 mA
18.0508649544259;-0.423126220703125;5.57999998591185;559;-0.0159912109375;100 mA
18.0608649544007;-0.42340087890625;5.58999998588661;560;-0.0159881591796875;100 mA
18.0708649543755;-0.42364501953125;5.59999998586136;561;-0.0159942626953125;100 mA
18.0808649543502;-0.423919677734375;5.60999998583611;562;-0.0159881591796875;100 mA
18.090864954325;-0.424163818359375;5.61999998581086;563;-0.015997314453125;100 mA
18.1008649542997;-0.424407958984375;5.62999998578562;564;-0.015997314453125;100 mA
18.1108649542745;-0.4246826171875;5.63999998576037;565;-0.0159912109375;100 mA
18.1208649542492;-0.4249267578125;5.64999998573512;566;-0.0159942626953125;100 mA
18.130864954224;-0.425201416015625;5.65999998570987;567;-0.0159912109375;100 mA
18.1408649541987;-0.425445556640625;5.66999998568463;568;-0.0159942626953125;100 mA
18.1508649541735;-0.42572021484375;5.67999998565938;569;-0.0159912109375;100 mA
18.1608649541482;-0.425994873046875;5.68999998563413;570;-0.0159912109375;100 mA
18.170864954123;-0.426239013671875;5.69999998560888;571;-0.0159942626953125;100 mA
18.1808649540977;-0.426513671875;5.70999998558364;572;-0.0159942626953125;100 mA
18.1908649540725;-0.4267578125;5.71999998555839;573;-0.0159912109375;100 mA
18.2008649540472;-0.427032470703125;5.72999998553314;574;-0.0159912109375;100 mA
18.210864954022;-0.42730712890625;5.73999998550789;575;-0.0159912109375;100 mA
18.2208649539967;-0.42755126953125;5.74999998548265;576;-0.0159942626953125;100 mA
18.2308649539715;-0.427825927734375;5.7599999854574;577;-0.015997314453125;100 mA
18.2408649539462;-0.428070068359375;5.76999998543215;578;-0.0159912109375;100 mA
18.250864953921;-0.4283447265625;5.7799999854069;579;-0.0159942626953125;100 mA
18.2608649538957;-0.428619384765625;5.78999998538166;580;-0.0159912109375;100 mA
18.2708649538705;-0.428863525390625;5.79999998535641;581;-0.0159881591796875;100 mA
18.2808649538453;-0.42913818359375;5.80999998533116;582;-0.0159881591796875;100 mA
18.29086495382;-0.429412841796875;5.81999998530591;583;-0.0159881591796875;100 mA
18.3008649537948;-0.429656982421875;5.82999998528066;584;-0.0159912109375;100 mA
18.3108649537695;-0.429962158203125;5.83999998525542;585;-0.0159881591796875;100 mA
18.3208649537443;-0.430206298828125;5.84999998523017;586;-0.0159942626953125;100 mA
18.330864953719;-0.43048095703125;5.85999998520492;587;-0.0159912109375;100 mA
18.3408649536938;-0.430755615234375;5.86999998517967;588;-0.0159881591796875;100 mA
18.3508649536685;-0.430999755859375;5.87999998515443;589;-0.0159912109375;100 mA
18.3608649536433;-0.431304931640625;5.88999998512918;590;-0.0159942626953125;100 mA
18.370864953618;-0.431549072265625;5.89999998510393;591;-0.0159912109375;100 mA
18.3808649535928;-0.43182373046875;5.90999998507868;592;-0.0159912109375;100 mA
18.3908649535675;-0.432098388671875;5.91999998505344;593;-0.0159912109375;100 mA
18.4008649535423;-0.432373046875;5.92999998502819;594;-0.0159942626953125;100 mA
18.410864953517;-0.432647705078125;5.93999998500294;595;-0.0159881591796875;100 mA
18.4208649534918;-0.43292236328125;5.94999998497769;596;-0.0159912109375;100 mA
18.4308649534665;-0.433197021484375;5.95999998495245;597;-0.0159942626953125;100 mA
18.4408649534413;-0.4334716796875;5.9699999849272;598;-0.015997314453125;100 mA
18.450864953416;-0.433746337890625;5.97999998490195;599;-0.0159912109375;100 mA
18.4608649533908;-0.43402099609375;5.9899999848767;600;-0.0159942626953125;100 mA
18.4708649533655;-0.434295654296875;5.99999998485146;601;-0.0159912109375;100 mA
18.4808649533403;-0.4345703125;6.00999998482621;602;-0.0159881591796875;100 mA
18.4908649533151;-0.434844970703125;6.01999998480096;603;-0.015997314453125;100 mA
18.5008649532898;-0.43511962890625;6.02999998477571;604;-0.0159942626953125;100 mA
18.5108649532646;-0.4354248046875;6.03999998475047;605;-0.0159942626953125;100 mA
18.5208649532393;-0.4356689453125;6.04999998472522;606;-0.015997314453125;100 mA
18.5308649532141;-0.43597412109375;6.05999998469997;607;-0.0159942626953125;100 mA
18.5408649531888;-0.436248779296875;6.06999998467472;608;-0.0159912109375;100 mA
18.5508649531636;-0.4365234375;6.07999998464948;609;-0.0159942626953125;100 mA
18.5608649531383;-0.436798095703125;6.08999998462423;610;-0.0159912109375;100 mA
18.5708649531131;-0.43707275390625;6.09999998459898;611;-0.0159942626953125;100 mA
18.5808649530878;-0.4373779296875;6.10999998457373;612;-0.015997314453125;100 mA
18.5908649530626;-0.437652587890625;6.11999998454849;613;-0.0159912109375;100 mA
18.6008649530373;-0.43792724609375;6.12999998452324;614;-0.0159912109375;100 mA
18.6108649530121;-0.438232421875;6.13999998449799;615;-0.015997314453125;100 mA
18.6208649529868;-0.4384765625;6.14999998447274;616;-0.015997314453125;100 mA
18.6308649529616;-0.43878173828125;6.1599999844475;617;-0.015997314453125;100 mA
18.6408649529363;-0.4390869140625;6.16999998442225;618;-0.0159912109375;100 mA
18.6508649529111;-0.439361572265625;6.179999984397;619;-0.015985107421875;100 mA
18.6608649528858;-0.439666748046875;6.18999998437175;620;-0.0159881591796875;100 mA
18.6708649528606;-0.439910888671875;6.1999999843465;621;-0.0159942626953125;100 mA
18.6808649528353;-0.440216064453125;6.20999998432126;622;-0.0159942626953125;100 mA
18.6908649528101;-0.440521240234375;6.21999998429601;623;-0.0159912109375;100 mA
18.7008649527849;-0.4407958984375;6.22999998427076;624;-0.0159912109375;100 mA
18.7108649527596;-0.44110107421875;6.23999998424551;625;-0.015997314453125;100 mA
18.7208649527344;-0.441375732421875;6.24999998422027;626;-0.0159942626953125;100 mA
18.7308649527091;-0.441680908203125;6.25999998419502;627;-0.0159912109375;100 mA
18.7408649526839;-0.44195556640625;6.26999998416977;628;-0.0159942626953125;100 mA
18.7508649526586;-0.4422607421875;6.27999998414452;629;-0.0159942626953125;100 mA
18.7608649526334;-0.44256591796875;6.28999998411928;630;-0.0159912109375;100 mA
18.7708649526081;-0.442840576171875;6.29999998409403;631;-0.0159942626953125;100 mA
18.7808649525829;-0.443145751953125;6.30999998406878;632;-0.0159942626953125;100 mA
18.7908649525576;-0.443450927734375;6.31999998404353;633;-0.0159912109375;100 mA
18.8008649525324;-0.4437255859375;6.32999998401829;634;-0.0159912109375;100 mA
18.8108649525071;-0.44403076171875;6.33999998399304;635;-0.0159881591796875;100 mA
18.8208649524819;-0.444305419921875;6.34999998396779;636;-0.0159942626953125;100 mA
18.8308649524566;-0.444610595703125;6.35999998394254;637;-0.0159942626953125;100 mA
18.8408649524314;-0.444915771484375;6.3699999839173;638;-0.0159942626953125;100 mA
18.8508649524061;-0.445220947265625;6.37999998389205;639;-0.0159942626953125;100 mA
18.8608649523809;-0.445526123046875;6.3899999838668;640;-0.0160003662109375;100 mA
18.8708649523556;-0.445831298828125;6.39999998384155;641;-0.0159912109375;100 mA
18.8808649523304;-0.446136474609375;6.40999998381631;642;-0.0159881591796875;100 mA
18.8908649523052;-0.446441650390625;6.41999998379106;643;-0.0159942626953125;100 mA
18.9008649522799;-0.44671630859375;6.42999998376581;644;-0.0160003662109375;100 mA
18.9108649522547;-0.447052001953125;6.43999998374056;645;-0.0159912109375;100 mA
18.9208649522294;-0.44732666015625;6.44999998371532;646;-0.0159912109375;100 mA
18.9308649522042;-0.447662353515625;6.45999998369007;647;-0.0159942626953125;100 mA
18.9408649521789;-0.44793701171875;6.46999998366482;648;-0.0159912109375;100 mA
18.9508649521537;-0.4482421875;6.47999998363957;649;-0.0159942626953125;100 mA
18.9608649521284;-0.448577880859375;6.48999998361433;650;-0.0159942626953125;100 mA
18.9708649521032;-0.448883056640625;6.49999998358908;651;-0.0159912109375;100 mA
18.9808649520779;-0.449188232421875;6.50999998356383;652;-0.0159942626953125;100 mA
18.9908649520527;-0.449493408203125;6.51999998353858;653;-0.0159942626953125;100 mA
19.0008649520274;-0.449798583984375;6.52999998351333;654;-0.0159912109375;100 mA
19.0108649520022;-0.45013427734375;6.53999998348809;655;-0.015997314453125;100 mA
19.0208649519769;-0.450439453125;6.54999998346284;656;-0.0159942626953125;100 mA
19.0308649519517;-0.45074462890625;6.55999998343759;657;-0.0159912109375;100 mA
19.0408649519264;-0.451080322265625;6.56999998341234;658;-0.0159912109375;100 mA
19.0508649519012;-0.451385498046875;6.5799999833871;659;-0.0159912109375;100 mA
19.0608649518759;-0.45172119140625;6.58999998336185;660;-0.0159912109375;100 mA
19.0708649518507;-0.451995849609375;6.5999999833366;661;-0.0159912109375;100 mA
19.0808649518254;-0.45233154296875;6.60999998331135;662;-0.015997314453125;100 mA
19.0908649518002;-0.452667236328125;6.61999998328611;663;-0.0159912109375;100 mA
19.100864951775;-0.452972412109375;6.62999998326086;664;-0.0159881591796875;100 mA
19.1108649517497;-0.45330810546875;6.63999998323561;665;-0.0159942626953125;100 mA
19.1208649517245;-0.45361328125;6.64999998321036;666;-0.015997314453125;100 mA
19.1308649516992;-0.45391845703125;6.65999998318512;667;-0.0159942626953125;100 mA
19.140864951674;-0.454254150390625;6.66999998315987;668;-0.015985107421875;100 mA
19.1508649516487;-0.454559326171875;6.67999998313462;669;-0.0159881591796875;100 mA
19.1608649516235;-0.454925537109375;6.68999998310937;670;-0.0159942626953125;100 mA
19.1708649515982;-0.455230712890625;6.69999998308413;671;-0.0159881591796875;100 mA
19.180864951573;-0.45556640625;6.70999998305888;672;-0.0159912109375;100 mA
19.1908649515477;-0.45587158203125;6.71999998303363;673;-0.015985107421875;100 mA
19.2008649515225;-0.456207275390625;6.72999998300838;674;-0.0159942626953125;100 mA
19.2108649514972;-0.45654296875;6.73999998298314;675;-0.0159942626953125;100 mA
19.220864951472;-0.456878662109375;6.74999998295789;676;-0.015985107421875;100 mA
19.2308649514467;-0.45721435546875;6.75999998293264;677;-0.0159942626953125;100 mA
19.2408649514215;-0.457550048828125;6.76999998290739;678;-0.0159881591796875;100 mA
19.2508649513962;-0.4578857421875;6.77999998288215;679;-0.0159912109375;100 mA
19.260864951371;-0.458221435546875;6.7899999828569;680;-0.015985107421875;100 mA
19.2708649513457;-0.45855712890625;6.79999998283165;681;-0.0159912109375;100 mA
19.2808649513205;-0.458892822265625;6.8099999828064;682;-0.0159912109375;100 mA
19.2908649512952;-0.459228515625;6.81999998278116;683;-0.0159912109375;100 mA
19.30086495127;-0.459564208984375;6.82999998275591;684;-0.0159942626953125;100 mA
19.3108649512448;-0.459930419921875;6.83999998273066;685;-0.0159942626953125;100 mA
19.3208649512195;-0.460235595703125;6.84999998270541;686;-0.0159942626953125;100 mA
19.3308649511943;-0.460601806640625;6.85999998268016;687;-0.0159912109375;100 mA
19.340864951169;-0.4609375;6.86999998265492;688;-0.0159942626953125;100 mA
19.3508649511438;-0.461273193359375;6.87999998262967;689;-0.0159942626953125;100 mA
19.3608649511185;-0.461639404296875;6.88999998260442;690;-0.0159912109375;100 mA
19.3708649510933;-0.46197509765625;6.89999998257917;691;-0.0159912109375;100 mA
19.380864951068;-0.46234130859375;6.90999998255393;692;-0.0159912109375;100 mA
19.3908649510428;-0.462677001953125;6.91999998252868;693;-0.0159942626953125;100 mA
19.4008649510175;-0.463043212890625;6.92999998250343;694;-0.0159912109375;100 mA
19.4108649509923;-0.463409423828125;6.93999998247818;695;-0.0159942626953125;100 mA
19.420864950967;-0.4637451171875;6.94999998245294;696;-0.0159912109375;100 mA
19.4308649509418;-0.464111328125;6.95999998242769;697;-0.015997314453125;100 mA
19.4408649509165;-0.4644775390625;6.96999998240244;698;-0.0159912109375;100 mA
19.4508649508913;-0.464813232421875;6.97999998237719;699;-0.0159912109375;100 mA
19.460864950866;-0.4652099609375;6.98999998235195;700;-0.0159912109375;100 mA
19.4708649508408;-0.465545654296875;6.9999999823267;701;-0.0159881591796875;100 mA
19.4808649508155;-0.465911865234375;7.00999998230145;702;-0.0159942626953125;100 mA
19.4908649507903;-0.466278076171875;7.0199999822762;703;-0.0159912109375;100 mA
19.500864950765;-0.46661376953125;7.02999998225096;704;-0.0159912109375;100 mA
19.5108649507398;-0.467010498046875;7.03999998222571;705;-0.0159881591796875;100 mA
19.5208649507146;-0.467376708984375;7.04999998220046;706;-0.0159942626953125;100 mA
19.5308649506893;-0.467742919921875;7.05999998217521;707;-0.0159942626953125;100 mA
19.5408649506641;-0.468109130859375;7.06999998214997;708;-0.0159912109375;100 mA
19.5508649506388;-0.468475341796875;7.07999998212472;709;-0.0159912109375;100 mA
19.5608649506136;-0.468841552734375;7.08999998209947;710;-0.015997314453125;100 mA
19.5708649505883;-0.469207763671875;7.09999998207422;711;-0.0159912109375;100 mA
19.5808649505631;-0.4696044921875;7.10999998204898;712;-0.0159912109375;100 mA
19.5908649505378;-0.469970703125;7.11999998202373;713;-0.015997314453125;100 mA
19.6008649505126;-0.4703369140625;7.12999998199848;714;-0.0159912109375;100 mA
19.6108649504873;-0.470733642578125;7.13999998197323;715;-0.0159912109375;100 mA
19.6208649504621;-0.471099853515625;7.14999998194799;716;-0.0159942626953125;100 mA
19.6308649504368;-0.47149658203125;7.15999998192274;717;-0.0159912109375;100 mA
19.6408649504116;-0.47186279296875;7.16999998189749;718;-0.0159912109375;100 mA
19.6508649503863;-0.472259521484375;7.17999998187224;719;-0.0159881591796875;100 mA
19.6608649503611;-0.47265625;7.189999981847;720;-0.0159881591796875;100 mA
19.6708649503358;-0.4730224609375;7.19999998182175;721;-0.0159912109375;100 mA
19.6808649503106;-0.47344970703125;7.2099999817965;722;-0.0159942626953125;100 mA
19.6908649502853;-0.473846435546875;7.21999998177125;723;-0.0159912109375;100 mA
19.7008649502601;-0.474212646484375;7.229999981746;724;-0.0159912109375;100 mA
19.7108649502348;-0.474639892578125;7.23999998172076;725;-0.0159942626953125;100 mA
19.7208649502096;-0.475006103515625;7.24999998169551;726;-0.0159912109375;100 mA
19.7308649501844;-0.475433349609375;7.25999998167026;727;-0.0159912109375;100 mA
19.7408649501591;-0.475830078125;7.26999998164501;728;-0.0159912109375;100 mA
19.7508649501339;-0.476226806640625;7.27999998161977;729;-0.0159912109375;100 mA
19.7608649501086;-0.476654052734375;7.28999998159452;730;-0.015985107421875;100 mA
19.7708649500834;-0.477020263671875;7.29999998156927;731;-0.0159942626953125;100 mA
19.7808649500581;-0.477447509765625;7.30999998154402;732;-0.0159942626953125;100 mA
19.7908649500329;-0.477874755859375;7.31999998151878;733;-0.0159942626953125;100 mA
19.8008649500076;-0.478271484375;7.32999998149353;734;-0.0159912109375;100 mA
19.8108649499824;-0.47869873046875;7.33999998146828;735;-0.0159942626953125;100 mA
19.8208649499571;-0.479095458984375;7.34999998144303;736;-0.0159942626953125;100 mA
19.8308649499319;-0.479522705078125;7.35999998141779;737;-0.015997314453125;100 mA
19.8408649499066;-0.479949951171875;7.36999998139254;738;-0.0159912109375;100 mA
19.8508649498814;-0.4803466796875;7.37999998136729;739;-0.0159912109375;100 mA
19.8608649498561;-0.480804443359375;7.38999998134204;740;-0.0159942626953125;100 mA
19.8708649498309;-0.481201171875;7.3999999813168;741;-0.0159942626953125;100 mA
19.8808649498056;-0.481658935546875;7.40999998129155;742;-0.0159912109375;100 mA
19.8908649497804;-0.482086181640625;7.4199999812663;743;-0.0159912109375;100 mA
19.9008649497551;-0.482513427734375;7.42999998124105;744;-0.0159881591796875;100 mA
19.9108649497299;-0.48297119140625;7.43999998121581;745;-0.0159912109375;100 mA
19.9208649497047;-0.483367919921875;7.44999998119056;746;-0.0159881591796875;100 mA
19.9308649496794;-0.48382568359375;7.45999998116531;747;-0.0159942626953125;100 mA
19.9408649496542;-0.4842529296875;7.46999998114006;748;-0.015997314453125;100 mA
19.9508649496289;-0.48468017578125;7.47999998111482;749;-0.0159912109375;100 mA
19.9608649496037;-0.48516845703125;7.48999998108957;750;-0.0159912109375;100 mA
19.9708649495784;-0.485595703125;7.49999998106432;751;-0.0159881591796875;100 mA
19.9808649495532;-0.486053466796875;7.50999998103907;752;-0.0159942626953125;100 mA
19.9908649495279;-0.48651123046875;7.51999998101383;753;-0.015997314453125;100 mA
20.0008649495027;-0.4869384765625;7.52999998098858;754;-0.0159912109375;100 mA
20.0108649494774;-0.4874267578125;7.53999998096333;755;-0.0159942626953125;100 mA
20.0208649494522;-0.48785400390625;7.54999998093808;756;-0.0159912109375;100 mA
20.0308649494269;-0.48834228515625;7.55999998091283;757;-0.0159881591796875;100 mA
20.0408649494017;-0.488800048828125;7.56999998088759;758;-0.0159942626953125;100 mA
20.0508649493764;-0.4892578125;7.57999998086234;759;-0.015985107421875;100 mA
20.0608649493512;-0.48974609375;7.58999998083709;760;-0.0159942626953125;100 mA
20.0708649493259;-0.490203857421875;7.59999998081184;761;-0.015985107421875;100 mA
20.0808649493007;-0.490692138671875;7.6099999807866;762;-0.0159881591796875;100 mA
20.0908649492754;-0.49114990234375;7.61999998076135;763;-0.0159942626953125;100 mA
20.1008649492502;-0.49163818359375;7.6299999807361;764;-0.0159912109375;100 mA
20.1108649492249;-0.49212646484375;7.63999998071085;765;-0.0159881591796875;100 mA
20.1208649491997;-0.49261474609375;7.64999998068561;766;-0.0159881591796875;100 mA
20.1308649491745;-0.49310302734375;7.65999998066036;767;-0.0159912109375;100 mA
20.1408649491492;-0.49359130859375;7.66999998063511;768;-0.0159912109375;100 mA
20.150864949124;-0.49407958984375;7.67999998060986;769;-0.0159912109375;100 mA
20.1608649490987;-0.494598388671875;7.68999998058462;770;-0.0159912109375;100 mA
20.1708649490735;-0.495086669921875;7.69999998055937;771;-0.0159881591796875;100 mA
20.1808649490482;-0.49560546875;7.70999998053412;772;-0.0159942626953125;100 mA
20.190864949023;-0.49609375;7.71999998050887;773;-0.0159881591796875;100 mA
20.2008649489977;-0.49658203125;7.72999998048363;774;-0.0159912109375;100 mA
20.2108649489725;-0.49713134765625;7.73999998045838;775;-0.015997314453125;100 mA
20.2208649489472;-0.49761962890625;7.74999998043313;776;-0.0159912109375;100 mA
20.230864948922;-0.4981689453125;7.75999998040788;777;-0.0159942626953125;100 mA
20.2408649488967;-0.498687744140625;7.76999998038264;778;-0.0159942626953125;100 mA
20.2508649488715;-0.49920654296875;7.77999998035739;779;-0.015985107421875;100 mA
20.2608649488462;-0.49957275390625;7.78999998033214;780;-0.0159942626953125;100 mA
20.270864948821;-0.50018310546875;7.79999998030689;781;-0.0159912109375;100 mA
20.2808649487957;-0.50079345703125;7.80999998028165;782;-0.0159912109375;100 mA
20.2908649487705;-0.50140380859375;7.8199999802564;783;-0.0159942626953125;100 mA
20.3008649487452;-0.501708984375;7.82999998023115;784;-0.0159942626953125;100 mA
20.31086494872;-0.5023193359375;7.8399999802059;785;-0.0159881591796875;100 mA
20.3208649486947;-0.5029296875;7.84999998018066;786;-0.0159881591796875;100 mA
20.3308649486695;-0.5035400390625;7.85999998015541;787;-0.0159881591796875;100 mA
20.3408649486443;-0.50384521484375;7.86999998013016;788;-0.0159912109375;100 mA
20.350864948619;-0.50445556640625;7.87999998010491;789;-0.0159881591796875;100 mA
20.3608649485938;-0.50506591796875;7.88999998007966;790;-0.0159912109375;100 mA
20.3708649485685;-0.50567626953125;7.89999998005442;791;-0.0159881591796875;100 mA
20.3808649485433;-0.50628662109375;7.90999998002917;792;-0.0159881591796875;100 mA
20.390864948518;-0.50689697265625;7.91999998000392;793;-0.0159912109375;100 mA
20.4008649484928;-0.50750732421875;7.92999997997867;794;-0.015985107421875;100 mA
20.4108649484675;-0.50811767578125;7.93999997995343;795;-0.0159942626953125;100 mA
20.4208649484423;-0.50872802734375;7.94999997992818;796;-0.0159912109375;100 mA
20.430864948417;-0.50933837890625;7.95999997990293;797;-0.0159881591796875;100 mA
20.4408649483918;-0.50994873046875;7.96999997987768;798;-0.0159881591796875;100 mA
20.4508649483665;-0.51025390625;7.97999997985244;799;-0.0159881591796875;100 mA
20.4608649483413;-0.51116943359375;7.98999997982719;800;-0.0159912109375;100 mA
20.470864948316;-0.511474609375;7.99999997980194;801;-0.0159912109375;100 mA
20.4808649482908;-0.51239013671875;8.00999997977669;802;-0.0159881591796875;100 mA
20.4908649482655;-0.51300048828125;8.01999997975145;803;-0.0159912109375;100 mA
20.5008649482403;-0.51361083984375;8.0299999797262;804;-0.0159881591796875;100 mA
20.510864948215;-0.51422119140625;8.03999997970095;805;-0.0159912109375;100 mA
20.5208649481898;-0.51483154296875;8.0499999796757;806;-0.0159881591796875;100 mA
20.5308649481645;-0.51544189453125;8.05999997965046;807;-0.0159912109375;100 mA
20.5408649481393;-0.51605224609375;8.06999997962521;808;-0.0159912109375;100 mA
20.5508649481141;-0.51666259765625;8.07999997959996;809;-0.0159912109375;100 mA
20.5608649480888;-0.51727294921875;8.08999997957471;810;-0.0159912109375;100 mA
20.5708649480636;-0.5181884765625;8.09999997954947;811;-0.015985107421875;100 mA
20.5808649480383;-0.518798828125;8.10999997952422;812;-0.0159820556640625;100 mA
20.5908649480131;-0.5194091796875;8.11999997949897;813;-0.0159912109375;100 mA
20.6008649479878;-0.52001953125;8.12999997947372;814;-0.0159912109375;100 mA
20.6108649479626;-0.5206298828125;8.13999997944848;815;-0.0159912109375;100 mA
20.6208649479373;-0.52154541015625;8.14999997942323;816;-0.0159881591796875;100 mA
20.6308649479121;-0.52215576171875;8.15999997939798;817;-0.0159942626953125;100 mA
20.6408649478868;-0.52276611328125;8.16999997937273;818;-0.0159881591796875;100 mA
20.6508649478616;-0.523681640625;8.17999997934749;819;-0.0159881591796875;100 mA
20.6608649478363;-0.5242919921875;8.18999997932224;820;-0.015985107421875;100 mA
20.6708649478111;-0.52490234375;8.19999997929699;821;-0.0159912109375;100 mA
20.6808649477858;-0.52581787109375;8.20999997927174;822;-0.0159912109375;100 mA
20.6908649477606;-0.52642822265625;8.2199999792465;823;-0.015985107421875;100 mA
20.7008649477353;-0.52734375;8.22999997922125;824;-0.0159942626953125;100 mA
20.7108649477101;-0.5279541015625;8.239999979196;825;-0.0159881591796875;100 mA
20.7208649476848;-0.528564453125;8.24999997917075;826;-0.0159881591796875;100 mA
20.7308649476596;-0.52947998046875;8.2599999791455;827;-0.0159881591796875;100 mA
20.7408649476343;-0.53009033203125;8.26999997912026;828;-0.0159881591796875;100 mA
20.7508649476091;-0.531005859375;8.27999997909501;829;-0.0159912109375;100 mA
20.7608649475839;-0.53192138671875;8.28999997906976;830;-0.0159881591796875;100 mA
20.7708649475586;-0.53253173828125;8.29999997904451;831;-0.015985107421875;100 mA
20.7808649475334;-0.533447265625;8.30999997901927;832;-0.0159881591796875;100 mA
20.7908649475081;-0.53436279296875;8.31999997899402;833;-0.0159881591796875;100 mA
20.8008649474829;-0.53497314453125;8.32999997896877;834;-0.0159912109375;100 mA
20.8108649474576;-0.535888671875;8.33999997894352;835;-0.0159881591796875;100 mA
20.8208649474324;-0.53680419921875;8.34999997891828;836;-0.0159942626953125;100 mA
20.8308649474071;-0.5377197265625;8.35999997889303;837;-0.015985107421875;100 mA
20.8408649473819;-0.538330078125;8.36999997886778;838;-0.0159881591796875;100 mA
20.8508649473566;-0.53924560546875;8.37999997884253;839;-0.015985107421875;100 mA
20.8608649473314;-0.5401611328125;8.38999997881729;840;-0.0159881591796875;100 mA
20.8708649473061;-0.54107666015625;8.39999997879204;841;-0.0159912109375;100 mA
20.8808649472809;-0.5419921875;8.40999997876679;842;-0.0159881591796875;100 mA
20.8908649472556;-0.54290771484375;8.41999997874154;843;-0.0159912109375;100 mA
20.9008649472304;-0.5438232421875;8.4299999787163;844;-0.0159912109375;100 mA
20.9108649472051;-0.54473876953125;8.43999997869105;845;-0.015985107421875;100 mA
20.9208649471799;-0.545654296875;8.4499999786658;846;-0.0159912109375;100 mA
20.9308649471546;-0.54656982421875;8.45999997864055;847;-0.0159881591796875;100 mA
20.9408649471294;-0.5474853515625;8.46999997861531;848;-0.0159912109375;100 mA
20.9508649471042;-0.54840087890625;8.47999997859006;849;-0.0159881591796875;100 mA
20.9608649470789;-0.54962158203125;8.48999997856481;850;-0.0159881591796875;100 mA
20.9708649470537;-0.550537109375;8.49999997853956;851;-0.015985107421875;100 mA
20.9808649470284;-0.55145263671875;8.50999997851432;852;-0.0159881591796875;100 mA
20.9908649470032;-0.55267333984375;8.51999997848907;853;-0.0159881591796875;100 mA
21.0008649469779;-0.5535888671875;8.52999997846382;854;-0.0159912109375;100 mA
21.0108649469527;-0.55450439453125;8.53999997843857;855;-0.0159912109375;100 mA
21.0208649469274;-0.55572509765625;8.54999997841333;856;-0.0159912109375;100 mA
21.0308649469022;-0.556640625;8.55999997838808;857;-0.0159881591796875;100 mA
21.0408649468769;-0.557861328125;8.56999997836283;858;-0.0159912109375;100 mA
21.0508649468517;-0.55877685546875;8.57999997833758;859;-0.0159912109375;100 mA
21.0608649468264;-0.55999755859375;8.58999997831233;860;-0.0159912109375;100 mA
21.0708649468012;-0.56121826171875;8.59999997828709;861;-0.0159912109375;100 mA
21.0808649467759;-0.56243896484375;8.60999997826184;862;-0.0159881591796875;100 mA
21.0908649467507;-0.5633544921875;8.61999997823659;863;-0.0159881591796875;100 mA
21.1008649467254;-0.5645751953125;8.62999997821134;864;-0.0159881591796875;100 mA
21.1108649467002;-0.5657958984375;8.6399999781861;865;-0.0159912109375;100 mA
21.1208649466749;-0.5670166015625;8.64999997816085;866;-0.0159942626953125;100 mA
21.1308649466497;-0.5682373046875;8.6599999781356;867;-0.0159912109375;100 mA
21.1408649466244;-0.5694580078125;8.66999997811035;868;-0.0159881591796875;100 mA
21.1508649465992;-0.5706787109375;8.67999997808511;869;-0.0159881591796875;100 mA
21.160864946574;-0.57220458984375;8.68999997805986;870;-0.0159912109375;100 mA
21.1708649465487;-0.57342529296875;8.69999997803461;871;-0.0159912109375;100 mA
21.1808649465235;-0.57464599609375;8.70999997800936;872;-0.0159881591796875;100 mA
21.1908649464982;-0.576171875;8.71999997798412;873;-0.0159881591796875;100 mA
21.200864946473;-0.577392578125;8.72999997795887;874;-0.0159912109375;100 mA
21.2108649464477;-0.57891845703125;8.73999997793362;875;-0.0159942626953125;100 mA
21.2208649464225;-0.58013916015625;8.74999997790837;876;-0.0159881591796875;100 mA
21.2308649463972;-0.5816650390625;8.75999997788313;877;-0.0159881591796875;100 mA
21.240864946372;-0.58319091796875;8.76999997785788;878;-0.0159912109375;100 mA
21.2508649463467;-0.584716796875;8.77999997783263;879;-0.0159942626953125;100 mA
21.2608649463215;-0.58624267578125;8.78999997780738;880;-0.0159912109375;100 mA
21.2708649462962;-0.5877685546875;8.79999997778214;881;-0.0159912109375;100 mA
21.280864946271;-0.58929443359375;8.80999997775689;882;-0.0159881591796875;100 mA
21.2908649462457;-0.5908203125;8.81999997773164;883;-0.015985107421875;100 mA
21.3008649462205;-0.59234619140625;8.82999997770639;884;-0.015985107421875;100 mA
21.3108649461952;-0.59417724609375;8.83999997768115;885;-0.015985107421875;100 mA
21.32086494617;-0.595703125;8.8499999776559;886;-0.015985107421875;100 mA
21.3308649461447;-0.5975341796875;8.85999997763065;887;-0.015985107421875;100 mA
21.3408649461195;-0.59906005859375;8.8699999776054;888;-0.0159881591796875;100 mA
21.3508649460942;-0.60089111328125;8.87999997758016;889;-0.0159912109375;100 mA
21.360864946069;-0.60272216796875;8.88999997755491;890;-0.015985107421875;100 mA
21.3708649460438;-0.60455322265625;8.89999997752966;891;-0.015985107421875;100 mA
21.3808649460185;-0.60638427734375;8.90999997750441;892;-0.0159912109375;100 mA
21.3908649459933;-0.60821533203125;8.91999997747916;893;-0.015985107421875;100 mA
21.400864945968;-0.61004638671875;8.92999997745392;894;-0.0159912109375;100 mA
21.4108649459428;-0.6121826171875;8.93999997742867;895;-0.0159881591796875;100 mA
21.4208649459175;-0.614013671875;8.94999997740342;896;-0.015985107421875;100 mA
21.4308649458923;-0.61614990234375;8.95999997737817;897;-0.0159881591796875;100 mA
21.440864945867;-0.61798095703125;8.96999997735293;898;-0.0159942626953125;100 mA
21.4508649458418;-0.6201171875;8.97999997732768;899;-0.0159912109375;100 mA
21.4608649458165;-0.62225341796875;8.98999997730243;900;-0.0159881591796875;100 mA
21.4708649457913;-0.6243896484375;8.99999997727718;901;-0.0159881591796875;100 mA
21.480864945766;-0.6268310546875;9.00999997725194;902;-0.015985107421875;100 mA
21.4908649457408;-0.62896728515625;9.01999997722669;903;-0.0159820556640625;100 mA
21.5008649457155;-0.63140869140625;9.02999997720144;904;-0.015985107421875;100 mA
21.5108649456903;-0.633544921875;9.03999997717619;905;-0.0159881591796875;100 mA
21.520864945665;-0.635986328125;9.04999997715095;906;-0.0159881591796875;100 mA
21.5308649456398;-0.638427734375;9.0599999771257;907;-0.015985107421875;100 mA
21.5408649456145;-0.640869140625;9.06999997710045;908;-0.0159912109375;100 mA
21.5508649455893;-0.643310546875;9.0799999770752;909;-0.0159881591796875;100 mA
21.560864945564;-0.64605712890625;9.08999997704996;910;-0.0159912109375;100 mA
21.5708649455388;-0.64849853515625;9.09999997702471;911;-0.015985107421875;100 mA
21.5808649455136;-0.6512451171875;9.10999997699946;912;-0.0159881591796875;100 mA
21.5908649454883;-0.6536865234375;9.11999997697421;913;-0.015985107421875;100 mA
21.6008649454631;-0.65643310546875;9.12999997694897;914;-0.0159912109375;100 mA
21.6108649454378;-0.6591796875;9.13999997692372;915;-0.0159912109375;100 mA
21.6208649454126;-0.66192626953125;9.14999997689847;916;-0.0159912109375;100 mA
21.6308649453873;-0.66497802734375;9.15999997687322;917;-0.0159881591796875;100 mA
21.6408649453621;-0.667724609375;9.16999997684798;918;-0.0159881591796875;100 mA
21.6508649453368;-0.6707763671875;9.17999997682273;919;-0.015985107421875;100 mA
21.6608649453116;-0.673828125;9.18999997679748;920;-0.015997314453125;100 mA
21.6708649452863;-0.67657470703125;9.19999997677223;921;-0.0159912109375;100 mA
21.6808649452611;-0.67962646484375;9.20999997674699;922;-0.015985107421875;100 mA
21.6908649452358;-0.68267822265625;9.21999997672174;923;-0.015985107421875;100 mA
21.7008649452106;-0.68603515625;9.22999997669649;924;-0.0159881591796875;100 mA
21.7108649451853;-0.6890869140625;9.23999997667124;925;-0.0159942626953125;100 mA
21.7208649451601;-0.692138671875;9.249999976646;926;-0.0159881591796875;100 mA
21.7308649451348;-0.69549560546875;9.25999997662075;927;-0.0159820556640625;100 mA
21.7408649451096;-0.6988525390625;9.2699999765955;928;-0.01597900390625;100 mA
21.7508649450843;-0.70220947265625;9.27999997657025;929;-0.0159912109375;100 mA
21.7608649450591;-0.70556640625;9.289999976545;930;-0.0159881591796875;100 mA
21.7708649450338;-0.70892333984375;9.29999997651976;931;-0.0159881591796875;100 mA
21.7808649450086;-0.7122802734375;9.30999997649451;932;-0.015985107421875;100 mA
21.7908649449834;-0.71563720703125;9.31999997646926;933;-0.0159881591796875;100 mA
21.8008649449581;-0.718994140625;9.32999997644401;934;-0.015985107421875;100 mA
21.8108649449329;-0.72265625;9.33999997641877;935;-0.0159881591796875;100 mA
21.8208649449076;-0.72601318359375;9.34999997639352;936;-0.0159912109375;100 mA
21.8308649448824;-0.7293701171875;9.35999997636827;937;-0.0159881591796875;100 mA
21.8408649448571;-0.7330322265625;9.36999997634302;938;-0.0159881591796875;100 mA
21.8508649448319;-0.73638916015625;9.37999997631778;939;-0.0159881591796875;100 mA
21.8608649448066;-0.74005126953125;9.38999997629253;940;-0.0159881591796875;100 mA
21.8708649447814;-0.74371337890625;9.39999997626728;941;-0.0159912109375;100 mA
21.8808649447561;-0.74737548828125;9.40999997624203;942;-0.0159881591796875;100 mA
21.8908649447309;-0.75103759765625;9.41999997621679;943;-0.0159820556640625;100 mA
21.9008649447056;-0.75439453125;9.42999997619154;944;-0.0159912109375;100 mA
21.9108649446804;-0.758056640625;9.43999997616629;945;-0.015985107421875;100 mA
21.9208649446551;-0.76171875;9.44999997614104;946;-0.0159912109375;100 mA
21.9308649446299;-0.765380859375;9.4599999761158;947;-0.0159912109375;100 mA
21.9408649446046;-0.76904296875;9.46999997609055;948;-0.015985107421875;100 mA
21.9508649445794;-0.772705078125;9.4799999760653;949;-0.015985107421875;100 mA
21.9608649445541;-0.7763671875;9.48999997604005;950;-0.0159912109375;100 mA
21.9708649445289;-0.780029296875;9.49999997601481;951;-0.0159912109375;100 mA
21.9808649445037;-0.78338623046875;9.50999997598956;952;-0.0159881591796875;100 mA
21.9908649444784;-0.78704833984375;9.51999997596431;953;-0.0159881591796875;100 mA
22.0008649444532;-0.79071044921875;9.52999997593906;954;-0.0159881591796875;100 mA
22.0108649444279;-0.79437255859375;9.53999997591382;955;-0.015985107421875;100 mA
22.0208649444027;-0.79803466796875;9.54999997588857;956;-0.0159881591796875;100 mA
22.0308649443774;-0.80169677734375;9.55999997586332;957;-0.015985107421875;100 mA
22.0408649443522;-0.80535888671875;9.56999997583807;958;-0.0159881591796875;100 mA
22.0508649443269;-0.80902099609375;9.57999997581283;959;-0.0159881591796875;100 mA
22.0608649443017;-0.81268310546875;9.58999997578758;960;-0.015985107421875;100 mA
22.0708649442764;-0.81634521484375;9.59999997576233;961;-0.015985107421875;100 mA
22.0808649442512;-0.8197021484375;9.60999997573708;962;-0.0159881591796875;100 mA
22.0908649442259;-0.8233642578125;9.61999997571183;963;-0.0159912109375;100 mA
22.1008649442007;-0.8270263671875;9.62999997568659;964;-0.0159881591796875;100 mA
22.1108649441754;-0.8306884765625;9.63999997566134;965;-0.0159820556640625;100 mA
22.1208649441502;-0.8343505859375;9.64999997563609;966;-0.0159881591796875;100 mA
22.1308649441249;-0.8380126953125;9.65999997561084;967;-0.0159881591796875;100 mA
22.1408649440997;-0.8416748046875;9.6699999755856;968;-0.0159881591796875;100 mA
22.1508649440744;-0.8453369140625;9.67999997556035;969;-0.015985107421875;100 mA
22.1608649440492;-0.8489990234375;9.6899999755351;970;-0.0159881591796875;100 mA
22.1708649440239;-0.8526611328125;9.69999997550985;971;-0.0159881591796875;100 mA
22.1808649439987;-0.8563232421875;9.70999997548461;972;-0.015985107421875;100 mA
22.1908649439735;-0.85968017578125;9.71999997545936;973;-0.0159881591796875;100 mA
22.2008649439482;-0.86334228515625;9.72999997543411;974;-0.0159881591796875;100 mA
22.210864943923;-0.86700439453125;9.73999997540886;975;-0.015985107421875;100 mA
22.2208649438977;-0.87066650390625;9.74999997538362;976;-0.015985107421875;100 mA
22.2308649438725;-0.87432861328125;9.75999997535837;977;-0.015985107421875;100 mA
22.2408649438472;-0.87799072265625;9.76999997533312;978;-0.015985107421875;100 mA
22.250864943822;-0.88165283203125;9.77999997530787;979;-0.015985107421875;100 mA
22.2608649437967;-0.88531494140625;9.78999997528263;980;-0.0159881591796875;100 mA
22.2708649437715;-0.88897705078125;9.79999997525738;981;-0.0159881591796875;100 mA
22.2808649437462;-0.89263916015625;9.80999997523213;982;-0.015985107421875;100 mA
22.290864943721;-0.89630126953125;9.81999997520688;983;-0.015985107421875;100 mA
22.3008649436957;-0.89996337890625;9.82999997518164;984;-0.0159820556640625;100 mA
22.3108649436705;-0.90362548828125;9.83999997515639;985;-0.015985107421875;100 mA
22.3208649436452;-0.90728759765625;9.84999997513114;986;-0.0159881591796875;100 mA
22.33086494362;-0.91094970703125;9.85999997510589;987;-0.015985107421875;100 mA
22.3408649435947;-0.9149169921875;9.86999997508065;988;-0.015985107421875;100 mA
22.3508649435695;-0.9185791015625;9.8799999750554;989;-0.0159820556640625;100 mA
22.3608649435442;-0.9222412109375;9.88999997503015;990;-0.0159820556640625;100 mA
22.370864943519;-0.9259033203125;9.8999999750049;991;-0.0159820556640625;100 mA
22.3808649434937;-0.9295654296875;9.90999997497966;992;-0.0159912109375;100 mA
22.3908649434685;-0.9332275390625;9.91999997495441;993;-0.01597900390625;100 mA
22.4008649434433;-0.9368896484375;9.92999997492916;994;-0.0159820556640625;100 mA
22.410864943418;-0.9405517578125;9.93999997490391;995;-0.015985107421875;100 mA
22.4208649433928;-0.9442138671875;9.94999997487866;996;-0.015985107421875;100 mA
22.4308649433675;-0.9478759765625;9.95999997485342;997;-0.015985107421875;100 mA
22.4408649433423;-0.9515380859375;9.96999997482817;998;-0.0159881591796875;100 mA
22.450864943317;-0.9552001953125;9.97999997480292;999;-0.0159881591796875;100 mA
22.4608649432918;-0.9588623046875;9.98999997477767;1000;-0.015985107421875;100 mA
