Time (s);WE(1).Potential (V);Corrected time (s);Index;WE(1).Current (A);Current range
362.471127084848;-0.20623779296875;0;1;-0.0259765625;100 mA
362.481127084823;-0.216064453125;0.00999999997475243;2;-0.0259796142578125;100 mA
362.491127084798;-0.22320556640625;0.0199999999495049;3;-0.0259796142578125;100 mA
362.501127084773;-0.228912353515625;0.0299999999242573;4;-0.0259857177734375;100 mA
362.511127084747;-0.233734130859375;0.0399999998990097;5;-0.025982666015625;100 mA
362.521127084722;-0.237884521484375;0.0499999998737621;6;-0.0259796142578125;100 mA
362.531127084697;-0.241607666015625;0.0599999998485146;7;-0.0259857177734375;100 mA
362.541127084672;-0.24493408203125;0.069999999823267;8;-0.025982666015625;100 mA
362.551127084646;-0.24798583984375;0.0799999997980194;9;-0.025982666015625;100 mA
362.561127084621;-0.25079345703125;0.0899999997727718;10;-0.02598876953125;100 mA
362.571127084596;-0.25335693359375;0.0999999997475243;11;-0.0259765625;100 mA
362.581127084571;-0.255828857421875;0.109999999722277;12;-0.02598876953125;100 mA
362.591127084545;-0.258087158203125;0.119999999697029;13;-0.025982666015625;100 mA
362.60112708452;-0.260284423828125;0.129999999671782;14;-0.0259796142578125;100 mA
362.611127084495;-0.2623291015625;0.139999999646534;15;-0.02598876953125;100 mA
362.62112708447;-0.2642822265625;0.149999999621286;16;-0.0259857177734375;100 mA
362.631127084444;-0.266143798828125;0.159999999596039;17;-0.025982666015625;100 mA
362.641127084419;-0.2679443359375;0.169999999570791;18;-0.0259857177734375;100 mA
362.651127084394;-0.269683837890625;0.179999999545544;19;-0.025982666015625;100 mA
362.661127084369;-0.271331787109375;0.189999999520296;20;-0.02598876953125;100 mA
362.671127084343;-0.272918701171875;0.199999999495049;21;-0.0259857177734375;100 mA
362.681127084318;-0.27447509765625;0.209999999469801;22;-0.02598876953125;100 mA
362.691127084293;-0.275970458984375;0.219999999444553;23;-0.0259765625;100 mA
362.701127084268;-0.277435302734375;0.229999999419306;24;-0.0259857177734375;100 mA
362.711127084242;-0.278839111328125;0.239999999394058;25;-0.0259857177734375;100 mA
362.721127084217;-0.28021240234375;0.249999999368811;26;-0.025982666015625;100 mA
362.731127084192;-0.28155517578125;0.259999999343563;27;-0.025982666015625;100 mA
362.741127084167;-0.2828369140625;0.269999999318316;28;-0.025982666015625;100 mA
362.751127084141;-0.284088134765625;0.279999999293068;29;-0.025982666015625;100 mA
362.761127084116;-0.28533935546875;0.28999999926782;30;-0.025982666015625;100 mA
362.771127084091;-0.28656005859375;0.299999999242573;31;-0.0259857177734375;100 mA
362.781127084066;-0.287750244140625;0.309999999217325;32;-0.0259857177734375;100 mA
362.79112708404;-0.288909912109375;0.319999999192078;33;-0.0259857177734375;100 mA
362.801127084015;-0.290069580078125;0.32999999916683;34;-0.025982666015625;100 mA
362.81112708399;-0.291168212890625;0.339999999141583;35;-0.025982666015625;100 mA
362.821127083965;-0.292266845703125;0.349999999116335;36;-0.02598876953125;100 mA
362.831127083939;-0.293365478515625;0.359999999091087;37;-0.0259796142578125;100 mA
362.841127083914;-0.294403076171875;0.36999999906584;38;-0.0259857177734375;100 mA
362.851127083889;-0.29547119140625;0.379999999040592;39;-0.0259857177734375;100 mA
362.861127083864;-0.296478271484375;0.389999999015345;40;-0.025982666015625;100 mA
362.871127083838;-0.297454833984375;0.399999998990097;41;-0.0259857177734375;100 mA
362.881127083813;-0.2984619140625;0.40999999896485;42;-0.0259796142578125;100 mA
362.891127083788;-0.2994384765625;0.419999998939602;43;-0.025982666015625;100 mA
362.901127083763;-0.3004150390625;0.429999998914354;44;-0.0259857177734375;100 mA
362.911127083737;-0.301361083984375;0.439999998889107;45;-0.0259857177734375;100 mA
362.921127083712;-0.30230712890625;0.449999998863859;46;-0.025982666015625;100 mA
362.931127083687;-0.30322265625;0.459999998838612;47;-0.0259857177734375;100 mA
362.941127083662;-0.30413818359375;0.469999998813364;48;-0.0259796142578125;100 mA
362.951127083636;-0.3050537109375;0.479999998788116;49;-0.0259796142578125;100 mA
362.961127083611;-0.305938720703125;0.489999998762869;50;-0.025982666015625;100 mA
362.971127083586;-0.30682373046875;0.499999998737621;51;-0.025982666015625;100 mA
362.981127083561;-0.307708740234375;0.509999998712374;52;-0.0259796142578125;100 mA
362.991127083536;-0.308563232421875;0.519999998687126;53;-0.0259857177734375;100 mA
363.00112708351;-0.309417724609375;0.529999998661879;54;-0.0259796142578125;100 mA
363.011127083485;-0.310272216796875;0.539999998636631;55;-0.025982666015625;100 mA
363.02112708346;-0.31109619140625;0.549999998611383;56;-0.0259796142578125;100 mA
363.031127083435;-0.31195068359375;0.559999998586136;57;-0.025982666015625;100 mA
363.041127083409;-0.312744140625;0.569999998560888;58;-0.0259857177734375;100 mA
363.051127083384;-0.313568115234375;0.579999998535641;59;-0.0259796142578125;100 mA
363.061127083359;-0.31439208984375;0.589999998510393;60;-0.025982666015625;100 mA
363.071127083334;-0.315155029296875;0.599999998485146;61;-0.0259857177734375;100 mA
363.081127083308;-0.31597900390625;0.609999998459898;62;-0.0259765625;100 mA
363.091127083283;-0.316741943359375;0.61999999843465;63;-0.0259857177734375;100 mA
363.101127083258;-0.317535400390625;0.629999998409403;64;-0.0259857177734375;100 mA
363.111127083233;-0.318328857421875;0.639999998384155;65;-0.025982666015625;100 mA
363.121127083207;-0.319061279296875;0.649999998358908;66;-0.02598876953125;100 mA
363.131127083182;-0.319854736328125;0.65999999833366;67;-0.0259857177734375;100 mA
363.141127083157;-0.320587158203125;0.669999998308413;68;-0.0259796142578125;100 mA
363.151127083132;-0.32135009765625;0.679999998283165;69;-0.0259796142578125;100 mA
363.161127083106;-0.322113037109375;0.689999998257917;70;-0.025982666015625;100 mA
363.171127083081;-0.32281494140625;0.69999999823267;71;-0.025982666015625;100 mA
363.181127083056;-0.323577880859375;0.709999998207422;72;-0.0259796142578125;100 mA
363.191127083031;-0.324310302734375;0.719999998182175;73;-0.025982666015625;100 mA
363.201127083005;-0.325042724609375;0.729999998156927;74;-0.025982666015625;100 mA
363.21112708298;-0.325775146484375;0.73999999813168;75;-0.025982666015625;100 mA
363.221127082955;-0.32647705078125;0.749999998106432;76;-0.0259796142578125;100 mA
363.23112708293;-0.32720947265625;0.759999998081184;77;-0.0259857177734375;100 mA
363.241127082904;-0.327911376953125;0.769999998055937;78;-0.0259857177734375;100 mA
363.251127082879;-0.32861328125;0.779999998030689;79;-0.025982666015625;100 mA
363.261127082854;-0.329315185546875;0.789999998005442;80;-0.0259796142578125;100 mA
363.271127082829;-0.329986572265625;0.799999997980194;81;-0.0259857177734375;100 mA
363.281127082803;-0.330718994140625;0.809999997954947;82;-0.0259796142578125;100 mA
363.291127082778;-0.331390380859375;0.819999997929699;83;-0.0259796142578125;100 mA
363.301127082753;-0.33209228515625;0.829999997904451;84;-0.0259857177734375;100 mA
363.311127082728;-0.332794189453125;0.839999997879204;85;-0.025982666015625;100 mA
363.321127082702;-0.33343505859375;0.849999997853956;86;-0.025982666015625;100 mA
363.331127082677;-0.334136962890625;0.859999997828709;87;-0.0259857177734375;100 mA
363.341127082652;-0.334808349609375;0.869999997803461;88;-0.0259796142578125;100 mA
363.351127082627;-0.33551025390625;0.879999997778214;89;-0.0259796142578125;100 mA
363.361127082601;-0.336181640625;0.889999997752966;90;-0.0259765625;100 mA
363.371127082576;-0.336822509765625;0.899999997727718;91;-0.0259857177734375;100 mA
363.381127082551;-0.3375244140625;0.909999997702471;92;-0.025982666015625;100 mA
363.391127082526;-0.338165283203125;0.919999997677223;93;-0.0259796142578125;100 mA
363.4011270825;-0.338836669921875;0.929999997651976;94;-0.0259796142578125;100 mA
363.411127082475;-0.339508056640625;0.939999997626728;95;-0.025982666015625;100 mA
363.42112708245;-0.34014892578125;0.949999997601481;96;-0.0259796142578125;100 mA
363.431127082425;-0.3408203125;0.959999997576233;97;-0.0259796142578125;100 mA
363.441127082399;-0.341461181640625;0.969999997550985;98;-0.025982666015625;100 mA
363.451127082374;-0.342132568359375;0.979999997525738;99;-0.0259796142578125;100 mA
363.461127082349;-0.342803955078125;0.98999999750049;100;-0.025982666015625;100 mA
363.471127082324;-0.343414306640625;0.999999997475243;101;-0.025982666015625;100 mA
363.481127082298;-0.344085693359375;1.00999999745;102;-0.0259857177734375;100 mA
363.491127082273;-0.344696044921875;1.01999999742475;103;-0.025982666015625;100 mA
363.501127082248;-0.345367431640625;1.0299999973995;104;-0.025982666015625;100 mA
363.511127082223;-0.34600830078125;1.03999999737425;105;-0.0259796142578125;100 mA
363.521127082197;-0.346649169921875;1.049999997349;106;-0.0259796142578125;100 mA
363.531127082172;-0.3472900390625;1.05999999732376;107;-0.0259796142578125;100 mA
363.541127082147;-0.347930908203125;1.06999999729851;108;-0.025982666015625;100 mA
363.551127082122;-0.34857177734375;1.07999999727326;109;-0.02598876953125;100 mA
363.561127082096;-0.349212646484375;1.08999999724801;110;-0.0259796142578125;100 mA
363.571127082071;-0.349822998046875;1.09999999722277;111;-0.025982666015625;100 mA
363.581127082046;-0.350494384765625;1.10999999719752;112;-0.025982666015625;100 mA
363.591127082021;-0.351104736328125;1.11999999717227;113;-0.0259796142578125;100 mA
363.601127081995;-0.35174560546875;1.12999999714702;114;-0.0259796142578125;100 mA
363.61112708197;-0.352386474609375;1.13999999712178;115;-0.0259857177734375;100 mA
363.621127081945;-0.352996826171875;1.14999999709653;116;-0.0259857177734375;100 mA
363.63112708192;-0.353668212890625;1.15999999707128;117;-0.0259796142578125;100 mA
363.641127081894;-0.354278564453125;1.16999999704603;118;-0.0259857177734375;100 mA
363.651127081869;-0.35491943359375;1.17999999702079;119;-0.0259857177734375;100 mA
363.661127081844;-0.355560302734375;1.18999999699554;120;-0.0259796142578125;100 mA
363.671127081819;-0.356170654296875;1.19999999697029;121;-0.025982666015625;100 mA
363.681127081793;-0.3568115234375;1.20999999694504;122;-0.0259796142578125;100 mA
363.691127081768;-0.357452392578125;1.2199999969198;123;-0.025982666015625;100 mA
363.701127081743;-0.358062744140625;1.22999999689455;124;-0.0259857177734375;100 mA
363.711127081718;-0.35870361328125;1.2399999968693;125;-0.0259796142578125;100 mA
363.721127081692;-0.35931396484375;1.24999999684405;126;-0.0259796142578125;100 mA
363.731127081667;-0.359954833984375;1.25999999681881;127;-0.025982666015625;100 mA
363.741127081642;-0.360565185546875;1.26999999679356;128;-0.025982666015625;100 mA
363.751127081617;-0.3612060546875;1.27999999676831;129;-0.0259765625;100 mA
363.761127081591;-0.361846923828125;1.28999999674306;130;-0.025982666015625;100 mA
363.771127081566;-0.362457275390625;1.29999999671782;131;-0.025982666015625;100 mA
363.781127081541;-0.36309814453125;1.30999999669257;132;-0.0259765625;100 mA
363.791127081516;-0.36370849609375;1.31999999666732;133;-0.025982666015625;100 mA
363.80112708149;-0.364349365234375;1.32999999664207;134;-0.0259796142578125;100 mA
363.811127081465;-0.364990234375;1.33999999661683;135;-0.0259796142578125;100 mA
363.82112708144;-0.3656005859375;1.34999999659158;136;-0.025982666015625;100 mA
363.831127081415;-0.366241455078125;1.35999999656633;137;-0.025982666015625;100 mA
363.841127081389;-0.36688232421875;1.36999999654108;138;-0.0259796142578125;100 mA
363.851127081364;-0.367523193359375;1.37999999651583;139;-0.0259857177734375;100 mA
363.861127081339;-0.368133544921875;1.38999999649059;140;-0.0259765625;100 mA
363.871127081314;-0.368743896484375;1.39999999646534;141;-0.025982666015625;100 mA
363.881127081288;-0.369415283203125;1.40999999644009;142;-0.0259796142578125;100 mA
363.891127081263;-0.370025634765625;1.41999999641484;143;-0.0259765625;100 mA
363.901127081238;-0.37066650390625;1.4299999963896;144;-0.025982666015625;100 mA
363.911127081213;-0.371307373046875;1.43999999636435;145;-0.025982666015625;100 mA
363.921127081187;-0.371917724609375;1.4499999963391;146;-0.0259796142578125;100 mA
363.931127081162;-0.372589111328125;1.45999999631385;147;-0.0259796142578125;100 mA
363.941127081137;-0.37322998046875;1.46999999628861;148;-0.0259796142578125;100 mA
363.951127081112;-0.37384033203125;1.47999999626336;149;-0.025982666015625;100 mA
363.961127081086;-0.37451171875;1.48999999623811;150;-0.0259796142578125;100 mA
363.971127081061;-0.3751220703125;1.49999999621286;151;-0.025982666015625;100 mA
363.981127081036;-0.375762939453125;1.50999999618762;152;-0.025982666015625;100 mA
363.991127081011;-0.37640380859375;1.51999999616237;153;-0.0259857177734375;100 mA
364.001127080985;-0.377044677734375;1.52999999613712;154;-0.0259796142578125;100 mA
364.01112708096;-0.377685546875;1.53999999611187;155;-0.025982666015625;100 mA
364.021127080935;-0.378326416015625;1.54999999608663;156;-0.025982666015625;100 mA
364.03112708091;-0.378997802734375;1.55999999606138;157;-0.0259735107421875;100 mA
364.041127080885;-0.379638671875;1.56999999603613;158;-0.0259765625;100 mA
364.051127080859;-0.380279541015625;1.57999999601088;159;-0.025982666015625;100 mA
364.061127080834;-0.380950927734375;1.58999999598564;160;-0.025982666015625;100 mA
364.071127080809;-0.381591796875;1.59999999596039;161;-0.0259857177734375;100 mA
364.081127080784;-0.38226318359375;1.60999999593514;162;-0.025982666015625;100 mA
364.091127080758;-0.382904052734375;1.61999999590989;163;-0.0259796142578125;100 mA
364.101127080733;-0.383575439453125;1.62999999588465;164;-0.025982666015625;100 mA
364.111127080708;-0.384246826171875;1.6399999958594;165;-0.0259765625;100 mA
364.121127080683;-0.3848876953125;1.64999999583415;166;-0.0259857177734375;100 mA
364.131127080657;-0.38555908203125;1.6599999958089;167;-0.0259796142578125;100 mA
364.141127080632;-0.38623046875;1.66999999578366;168;-0.0259857177734375;100 mA
364.151127080607;-0.38690185546875;1.67999999575841;169;-0.0259857177734375;100 mA
364.161127080582;-0.3875732421875;1.68999999573316;170;-0.025982666015625;100 mA
364.171127080556;-0.388214111328125;1.69999999570791;171;-0.0259796142578125;100 mA
364.181127080531;-0.388916015625;1.70999999568267;172;-0.025982666015625;100 mA
364.191127080506;-0.38958740234375;1.71999999565742;173;-0.025982666015625;100 mA
364.201127080481;-0.3902587890625;1.72999999563217;174;-0.0259796142578125;100 mA
364.211127080455;-0.390960693359375;1.73999999560692;175;-0.025982666015625;100 mA
364.22112708043;-0.3916015625;1.74999999558167;176;-0.0259796142578125;100 mA
364.231127080405;-0.392303466796875;1.75999999555643;177;-0.025982666015625;100 mA
364.24112708038;-0.39300537109375;1.76999999553118;178;-0.0259796142578125;100 mA
364.251127080354;-0.3936767578125;1.77999999550593;179;-0.0259796142578125;100 mA
364.261127080329;-0.3944091796875;1.78999999548068;180;-0.02598876953125;100 mA
364.271127080304;-0.39508056640625;1.79999999545544;181;-0.0259796142578125;100 mA
364.281127080279;-0.395782470703125;1.80999999543019;182;-0.0259765625;100 mA
364.291127080253;-0.396484375;1.81999999540494;183;-0.0259796142578125;100 mA
364.301127080228;-0.397186279296875;1.82999999537969;184;-0.025982666015625;100 mA
364.311127080203;-0.397918701171875;1.83999999535445;185;-0.0259857177734375;100 mA
364.321127080178;-0.39862060546875;1.8499999953292;186;-0.025982666015625;100 mA
364.331127080152;-0.39935302734375;1.85999999530395;187;-0.0259796142578125;100 mA
364.341127080127;-0.400054931640625;1.8699999952787;188;-0.0259796142578125;100 mA
364.351127080102;-0.400787353515625;1.87999999525346;189;-0.025982666015625;100 mA
364.361127080077;-0.401519775390625;1.88999999522821;190;-0.0259857177734375;100 mA
364.371127080051;-0.4022216796875;1.89999999520296;191;-0.0259796142578125;100 mA
364.381127080026;-0.402984619140625;1.90999999517771;192;-0.025982666015625;100 mA
364.391127080001;-0.403717041015625;1.91999999515247;193;-0.0259796142578125;100 mA
364.401127079976;-0.404449462890625;1.92999999512722;194;-0.0259857177734375;100 mA
364.41112707995;-0.40521240234375;1.93999999510197;195;-0.0259796142578125;100 mA
364.421127079925;-0.40594482421875;1.94999999507672;196;-0.0259796142578125;100 mA
364.4311270799;-0.40667724609375;1.95999999505148;197;-0.0259796142578125;100 mA
364.441127079875;-0.407440185546875;1.96999999502623;198;-0.025982666015625;100 mA
364.451127079849;-0.408203125;1.97999999500098;199;-0.025982666015625;100 mA
364.461127079824;-0.40899658203125;1.98999999497573;200;-0.0259765625;100 mA
364.471127079799;-0.40972900390625;1.99999999495049;201;-0.0259765625;100 mA
364.481127079774;-0.4105224609375;2.00999999492524;202;-0.0259796142578125;100 mA
364.491127079748;-0.411285400390625;2.01999999489999;203;-0.025982666015625;100 mA
364.501127079723;-0.412078857421875;2.02999999487474;204;-0.0259796142578125;100 mA
364.511127079698;-0.41290283203125;2.0399999948495;205;-0.0259857177734375;100 mA
364.521127079673;-0.413665771484375;2.04999999482425;206;-0.02598876953125;100 mA
364.531127079647;-0.41448974609375;2.059999994799;207;-0.0259857177734375;100 mA
364.541127079622;-0.415283203125;2.06999999477375;208;-0.0259796142578125;100 mA
364.551127079597;-0.416107177734375;2.0799999947485;209;-0.025982666015625;100 mA
364.561127079572;-0.41693115234375;2.08999999472326;210;-0.02598876953125;100 mA
364.571127079546;-0.417724609375;2.09999999469801;211;-0.0259765625;100 mA
364.581127079521;-0.4185791015625;2.10999999467276;212;-0.0259796142578125;100 mA
364.591127079496;-0.419403076171875;2.11999999464751;213;-0.0259765625;100 mA
364.601127079471;-0.420257568359375;2.12999999462227;214;-0.0259796142578125;100 mA
364.611127079445;-0.421112060546875;2.13999999459702;215;-0.0259765625;100 mA
364.62112707942;-0.42193603515625;2.14999999457177;216;-0.0259735107421875;100 mA
364.631127079395;-0.422821044921875;2.15999999454652;217;-0.0259765625;100 mA
364.64112707937;-0.423675537109375;2.16999999452128;218;-0.0259857177734375;100 mA
364.651127079344;-0.424560546875;2.17999999449603;219;-0.0259857177734375;100 mA
364.661127079319;-0.425445556640625;2.18999999447078;220;-0.0259796142578125;100 mA
364.671127079294;-0.42633056640625;2.19999999444553;221;-0.0259857177734375;100 mA
364.681127079269;-0.42724609375;2.20999999442029;222;-0.0259857177734375;100 mA
364.691127079243;-0.428131103515625;2.21999999439504;223;-0.025982666015625;100 mA
364.701127079218;-0.429046630859375;2.22999999436979;224;-0.0259796142578125;100 mA
364.711127079193;-0.42999267578125;2.23999999434454;225;-0.0259857177734375;100 mA
364.721127079168;-0.430908203125;2.2499999943193;226;-0.025982666015625;100 mA
364.731127079142;-0.431854248046875;2.25999999429405;227;-0.025982666015625;100 mA
364.741127079117;-0.43280029296875;2.2699999942688;228;-0.025982666015625;100 mA
364.751127079092;-0.433746337890625;2.27999999424355;229;-0.0259796142578125;100 mA
364.761127079067;-0.43475341796875;2.28999999421831;230;-0.0259765625;100 mA
364.771127079041;-0.435699462890625;2.29999999419306;231;-0.0259796142578125;100 mA
364.781127079016;-0.43670654296875;2.30999999416781;232;-0.025982666015625;100 mA
364.791127078991;-0.43768310546875;2.31999999414256;233;-0.025982666015625;100 mA
364.801127078966;-0.438690185546875;2.32999999411732;234;-0.0259765625;100 mA
364.81112707894;-0.439727783203125;2.33999999409207;235;-0.025982666015625;100 mA
364.821127078915;-0.440765380859375;2.34999999406682;236;-0.0259765625;100 mA
364.83112707889;-0.441802978515625;2.35999999404157;237;-0.0259796142578125;100 mA
364.841127078865;-0.44287109375;2.36999999401633;238;-0.0259796142578125;100 mA
364.851127078839;-0.443939208984375;2.37999999399108;239;-0.0259796142578125;100 mA
364.861127078814;-0.445037841796875;2.38999999396583;240;-0.0259796142578125;100 mA
364.871127078789;-0.44610595703125;2.39999999394058;241;-0.0259796142578125;100 mA
364.881127078764;-0.447235107421875;2.40999999391533;242;-0.025982666015625;100 mA
364.891127078738;-0.448333740234375;2.41999999389009;243;-0.0259796142578125;100 mA
364.901127078713;-0.449462890625;2.42999999386484;244;-0.025982666015625;100 mA
364.911127078688;-0.450653076171875;2.43999999383959;245;-0.0259796142578125;100 mA
364.921127078663;-0.4517822265625;2.44999999381434;246;-0.025982666015625;100 mA
364.931127078637;-0.452972412109375;2.4599999937891;247;-0.025982666015625;100 mA
364.941127078612;-0.45416259765625;2.46999999376385;248;-0.0259765625;100 mA
364.951127078587;-0.455352783203125;2.4799999937386;249;-0.025982666015625;100 mA
364.961127078562;-0.45660400390625;2.48999999371335;250;-0.0259796142578125;100 mA
364.971127078536;-0.457855224609375;2.49999999368811;251;-0.025982666015625;100 mA
364.981127078511;-0.459136962890625;2.50999999366286;252;-0.025982666015625;100 mA
364.991127078486;-0.460418701171875;2.51999999363761;253;-0.0259796142578125;100 mA
365.001127078461;-0.461700439453125;2.52999999361236;254;-0.025982666015625;100 mA
365.011127078435;-0.46307373046875;2.53999999358712;255;-0.0259857177734375;100 mA
365.02112707841;-0.464385986328125;2.54999999356187;256;-0.0259765625;100 mA
365.031127078385;-0.465789794921875;2.55999999353662;257;-0.0259796142578125;100 mA
365.04112707836;-0.4671630859375;2.56999999351137;258;-0.0259796142578125;100 mA
365.051127078335;-0.46856689453125;2.57999999348613;259;-0.0259857177734375;100 mA
365.061127078309;-0.47003173828125;2.58999999346088;260;-0.0259796142578125;100 mA
365.071127078284;-0.471466064453125;2.59999999343563;261;-0.0259857177734375;100 mA
365.081127078259;-0.472991943359375;2.60999999341038;262;-0.0259857177734375;100 mA
365.091127078234;-0.474517822265625;2.61999999338514;263;-0.0259796142578125;100 mA
365.101127078208;-0.476043701171875;2.62999999335989;264;-0.0259765625;100 mA
365.111127078183;-0.4776611328125;2.63999999333464;265;-0.0259796142578125;100 mA
365.121127078158;-0.479248046875;2.64999999330939;266;-0.0259765625;100 mA
365.131127078133;-0.480926513671875;2.65999999328415;267;-0.025982666015625;100 mA
365.141127078107;-0.48260498046875;2.6699999932589;268;-0.0259796142578125;100 mA
365.151127078082;-0.48431396484375;2.67999999323365;269;-0.025982666015625;100 mA
365.161127078057;-0.486083984375;2.6899999932084;270;-0.025982666015625;100 mA
365.171127078032;-0.48785400390625;2.69999999318316;271;-0.0259796142578125;100 mA
365.181127078006;-0.489715576171875;2.70999999315791;272;-0.0259765625;100 mA
365.191127077981;-0.4915771484375;2.71999999313266;273;-0.025982666015625;100 mA
365.201127077956;-0.493499755859375;2.72999999310741;274;-0.0259765625;100 mA
365.211127077931;-0.4954833984375;2.73999999308217;275;-0.0259796142578125;100 mA
365.221127077905;-0.49749755859375;2.74999999305692;276;-0.025982666015625;100 mA
365.23112707788;-0.499267578125;2.75999999303167;277;-0.0259765625;100 mA
365.241127077855;-0.501708984375;2.76999999300642;278;-0.0259796142578125;100 mA
365.25112707783;-0.50384521484375;2.77999999298117;279;-0.0259765625;100 mA
365.261127077804;-0.5059814453125;2.78999999295593;280;-0.0259796142578125;100 mA
365.271127077779;-0.5084228515625;2.79999999293068;281;-0.0259765625;100 mA
365.281127077754;-0.5108642578125;2.80999999290543;282;-0.0259796142578125;100 mA
365.291127077729;-0.5133056640625;2.81999999288018;283;-0.0259796142578125;100 mA
365.301127077703;-0.5157470703125;2.82999999285494;284;-0.0259796142578125;100 mA
365.311127077678;-0.51849365234375;2.83999999282969;285;-0.0259765625;100 mA
365.321127077653;-0.52093505859375;2.84999999280444;286;-0.025982666015625;100 mA
365.331127077628;-0.523681640625;2.85999999277919;287;-0.0259796142578125;100 mA
365.341127077602;-0.5267333984375;2.86999999275395;288;-0.0259735107421875;100 mA
365.351127077577;-0.52947998046875;2.8799999927287;289;-0.0259765625;100 mA
365.361127077552;-0.5328369140625;2.88999999270345;290;-0.025982666015625;100 mA
365.371127077527;-0.535888671875;2.8999999926782;291;-0.0259765625;100 mA
365.381127077501;-0.53924560546875;2.90999999265296;292;-0.0259796142578125;100 mA
365.391127077476;-0.5426025390625;2.91999999262771;293;-0.025982666015625;100 mA
365.401127077451;-0.5462646484375;2.92999999260246;294;-0.0259796142578125;100 mA
365.411127077426;-0.5499267578125;2.93999999257721;295;-0.0259796142578125;100 mA
365.4211270774;-0.5535888671875;2.94999999255197;296;-0.0259765625;100 mA
365.431127077375;-0.55755615234375;2.95999999252672;297;-0.0259765625;100 mA
365.44112707735;-0.56182861328125;2.96999999250147;298;-0.0259765625;100 mA
365.451127077325;-0.56610107421875;2.97999999247622;299;-0.0259765625;100 mA
365.461127077299;-0.5706787109375;2.98999999245098;300;-0.0259765625;100 mA
365.471127077274;-0.57525634765625;2.99999999242573;301;-0.0259796142578125;100 mA
365.481127077249;-0.58013916015625;3.00999999240048;302;-0.0259796142578125;100 mA
365.491127077224;-0.5853271484375;3.01999999237523;303;-0.0259765625;100 mA
365.501127077198;-0.59051513671875;3.02999999234999;304;-0.0259796142578125;100 mA
365.511127077173;-0.59600830078125;3.03999999232474;305;-0.0259796142578125;100 mA
365.521127077148;-0.601806640625;3.04999999229949;306;-0.0259796142578125;100 mA
365.531127077123;-0.60760498046875;3.05999999227424;307;-0.0259765625;100 mA
365.541127077097;-0.61370849609375;3.069999992249;308;-0.0259735107421875;100 mA
365.551127077072;-0.6201171875;3.07999999222375;309;-0.0259765625;100 mA
365.561127077047;-0.6268310546875;3.0899999921985;310;-0.0259735107421875;100 mA
365.571127077022;-0.633544921875;3.09999999217325;311;-0.0259735107421875;100 mA
365.581127076996;-0.64056396484375;3.109999992148;312;-0.0259735107421875;100 mA
365.591127076971;-0.64788818359375;3.11999999212276;313;-0.0259796142578125;100 mA
365.601127076946;-0.65521240234375;3.12999999209751;314;-0.0259765625;100 mA
365.611127076921;-0.662841796875;3.13999999207226;315;-0.0259765625;100 mA
365.621127076895;-0.67047119140625;3.14999999204701;316;-0.0259765625;100 mA
365.63112707687;-0.67840576171875;3.15999999202177;317;-0.0259765625;100 mA
365.641127076845;-0.6866455078125;3.16999999199652;318;-0.0259765625;100 mA
365.65112707682;-0.69488525390625;3.17999999197127;319;-0.0259796142578125;100 mA
365.661127076794;-0.70343017578125;3.18999999194602;320;-0.0259796142578125;100 mA
365.671127076769;-0.71197509765625;3.19999999192078;321;-0.0259765625;100 mA
365.681127076744;-0.72052001953125;3.20999999189553;322;-0.0259796142578125;100 mA
365.691127076719;-0.7293701171875;3.21999999187028;323;-0.0259735107421875;100 mA
365.701127076693;-0.73822021484375;3.22999999184503;324;-0.0259796142578125;100 mA
365.711127076668;-0.7470703125;3.23999999181979;325;-0.0259765625;100 mA
365.721127076643;-0.7562255859375;3.24999999179454;326;-0.0259735107421875;100 mA
365.731127076618;-0.765380859375;3.25999999176929;327;-0.0259735107421875;100 mA
365.741127076592;-0.7745361328125;3.26999999174404;328;-0.0259765625;100 mA
365.751127076567;-0.78369140625;3.2799999917188;329;-0.0259765625;100 mA
365.761127076542;-0.7928466796875;3.28999999169355;330;-0.0259735107421875;100 mA
365.771127076517;-0.802001953125;3.2999999916683;331;-0.0259735107421875;100 mA
365.781127076491;-0.81146240234375;3.30999999164305;332;-0.0259735107421875;100 mA
365.791127076466;-0.8209228515625;3.31999999161781;333;-0.0259765625;100 mA
365.801127076441;-0.83038330078125;3.32999999159256;334;-0.0259735107421875;100 mA
365.811127076416;-0.83984375;3.33999999156731;335;-0.0259765625;100 mA
365.82112707639;-0.8489990234375;3.34999999154206;336;-0.025970458984375;100 mA
365.831127076365;-0.85845947265625;3.35999999151682;337;-0.0259735107421875;100 mA
365.84112707634;-0.867919921875;3.36999999149157;338;-0.0259735107421875;100 mA
365.851127076315;-0.87738037109375;3.37999999146632;339;-0.025970458984375;100 mA
365.861127076289;-0.88653564453125;3.38999999144107;340;-0.0259765625;100 mA
365.871127076264;-0.89569091796875;3.39999999141583;341;-0.0259765625;100 mA
365.881127076239;-0.9051513671875;3.40999999139058;342;-0.0259674072265625;100 mA
365.891127076214;-0.914306640625;3.41999999136533;343;-0.0259735107421875;100 mA
365.901127076188;-0.9234619140625;3.42999999134008;344;-0.025970458984375;100 mA
365.911127076163;-0.9326171875;3.43999999131483;345;-0.025970458984375;100 mA
365.921127076138;-0.94146728515625;3.44999999128959;346;-0.0259735107421875;100 mA
365.931127076113;-0.9503173828125;3.45999999126434;347;-0.0259735107421875;100 mA
365.941127076087;-0.95947265625;3.46999999123909;348;-0.0259735107421875;100 mA
365.951127076062;-0.96832275390625;3.47999999121384;349;-0.025970458984375;100 mA
365.961127076037;-0.9771728515625;3.4899999911886;350;-0.0259765625;100 mA
365.971127076012;-0.98602294921875;3.49999999116335;351;-0.0259765625;100 mA
365.981127075986;-0.994873046875;3.5099999911381;352;-0.0259735107421875;100 mA
365.991127075961;-1.00341796875;3.51999999111285;353;-0.0259735107421875;100 mA
366.001127075936;-1.01226806640625;3.52999999108761;354;-0.025970458984375;100 mA
366.011127075911;-1.0211181640625;3.53999999106236;355;-0.0259765625;100 mA
366.021127075885;-1.0296630859375;3.54999999103711;356;-0.0259735107421875;100 mA
366.03112707586;-1.0382080078125;3.55999999101186;357;-0.0259735107421875;100 mA
366.041127075835;-1.04705810546875;3.56999999098662;358;-0.0259735107421875;100 mA
366.05112707581;-1.05560302734375;3.57999999096137;359;-0.0259735107421875;100 mA
366.061127075784;-1.06414794921875;3.58999999093612;360;-0.0259674072265625;100 mA
366.071127075759;-1.07269287109375;3.59999999091087;361;-0.0259735107421875;100 mA
366.081127075734;-1.08123779296875;3.60999999088563;362;-0.025970458984375;100 mA
366.091127075709;-1.0894775390625;3.61999999086038;363;-0.0259735107421875;100 mA
366.101127075684;-1.0980224609375;3.62999999083513;364;-0.025970458984375;100 mA
366.111127075658;-1.10626220703125;3.63999999080988;365;-0.0259735107421875;100 mA
366.121127075633;-1.11480712890625;3.64999999078464;366;-0.0259765625;100 mA
366.131127075608;-1.123046875;3.65999999075939;367;-0.0259735107421875;100 mA
366.141127075583;-1.131591796875;3.66999999073414;368;-0.0259735107421875;100 mA
366.151127075557;-1.13983154296875;3.67999999070889;369;-0.025970458984375;100 mA
366.161127075532;-1.1480712890625;3.68999999068365;370;-0.0259735107421875;100 mA
366.171127075507;-1.15631103515625;3.6999999906584;371;-0.025970458984375;100 mA
366.181127075482;-1.16424560546875;3.70999999063315;372;-0.025970458984375;100 mA
366.191127075456;-1.1724853515625;3.7199999906079;373;-0.0259674072265625;100 mA
366.201127075431;-1.180419921875;3.72999999058266;374;-0.0259735107421875;100 mA
366.211127075406;-1.1883544921875;3.73999999055741;375;-0.0259735107421875;100 mA
366.221127075381;-1.1962890625;3.74999999053216;376;-0.0259765625;100 mA
366.231127075355;-1.2042236328125;3.75999999050691;377;-0.0259674072265625;100 mA
366.24112707533;-1.212158203125;3.76999999048167;378;-0.025970458984375;100 mA
366.251127075305;-1.21978759765625;3.77999999045642;379;-0.025970458984375;100 mA
366.26112707528;-1.2274169921875;3.78999999043117;380;-0.025970458984375;100 mA
366.271127075254;-1.23504638671875;3.79999999040592;381;-0.0259735107421875;100 mA
366.281127075229;-1.24237060546875;3.80999999038067;382;-0.0259674072265625;100 mA
366.291127075204;-1.24969482421875;3.81999999035543;383;-0.0259735107421875;100 mA
366.301127075179;-1.25701904296875;3.82999999033018;384;-0.0259674072265625;100 mA
366.311127075153;-1.26434326171875;3.83999999030493;385;-0.025970458984375;100 mA
366.321127075128;-1.2713623046875;3.84999999027968;386;-0.025970458984375;100 mA
366.331127075103;-1.27838134765625;3.85999999025444;387;-0.025970458984375;100 mA
366.341127075078;-1.285400390625;3.86999999022919;388;-0.025970458984375;100 mA
366.351127075052;-1.2921142578125;3.87999999020394;389;-0.025970458984375;100 mA
366.361127075027;-1.298828125;3.88999999017869;390;-0.0259735107421875;100 mA
366.371127075002;-1.3055419921875;3.89999999015345;391;-0.0259735107421875;100 mA
366.381127074977;-1.31195068359375;3.9099999901282;392;-0.0259735107421875;100 mA
366.391127074951;-1.318359375;3.91999999010295;393;-0.0259674072265625;100 mA
366.401127074926;-1.32476806640625;3.9299999900777;394;-0.025970458984375;100 mA
366.411127074901;-1.3311767578125;3.93999999005246;395;-0.0259674072265625;100 mA
366.421127074876;-1.3372802734375;3.94999999002721;396;-0.0259674072265625;100 mA
366.43112707485;-1.3433837890625;3.95999999000196;397;-0.025970458984375;100 mA
366.441127074825;-1.34918212890625;3.96999998997671;398;-0.025970458984375;100 mA
366.4511270748;-1.35528564453125;3.97999998995147;399;-0.02596435546875;100 mA
366.461127074775;-1.361083984375;3.98999998992622;400;-0.0259674072265625;100 mA
366.471127074749;-1.36688232421875;3.99999998990097;401;-0.02596435546875;100 mA
366.481127074724;-1.3726806640625;4.00999998987572;402;-0.025970458984375;100 mA
366.491127074699;-1.37847900390625;4.01999998985048;403;-0.025970458984375;100 mA
366.501127074674;-1.38397216796875;4.02999998982523;404;-0.0259674072265625;100 mA
366.511127074648;-1.38946533203125;4.03999998979998;405;-0.0259735107421875;100 mA
366.521127074623;-1.39495849609375;4.04999998977473;406;-0.0259674072265625;100 mA
366.531127074598;-1.40045166015625;4.05999998974949;407;-0.02596435546875;100 mA
366.541127074573;-1.40594482421875;4.06999998972424;408;-0.02596435546875;100 mA
366.551127074547;-1.4111328125;4.07999998969899;409;-0.02596435546875;100 mA
366.561127074522;-1.41632080078125;4.08999998967374;410;-0.0259674072265625;100 mA
366.571127074497;-1.4215087890625;4.0999999896485;411;-0.0259674072265625;100 mA
366.581127074472;-1.42669677734375;4.10999998962325;412;-0.0259674072265625;100 mA
366.591127074446;-1.43157958984375;4.119999989598;413;-0.025970458984375;100 mA
366.601127074421;-1.436767578125;4.12999998957275;414;-0.0259674072265625;100 mA
366.611127074396;-1.441650390625;4.1399999895475;415;-0.0259674072265625;100 mA
366.621127074371;-1.446533203125;4.14999998952226;416;-0.0259735107421875;100 mA
366.631127074345;-1.451416015625;4.15999998949701;417;-0.025970458984375;100 mA
366.64112707432;-1.456298828125;4.16999998947176;418;-0.0259674072265625;100 mA
366.651127074295;-1.46087646484375;4.17999998944651;419;-0.0259674072265625;100 mA
366.66112707427;-1.4654541015625;4.18999998942127;420;-0.0259674072265625;100 mA
366.671127074244;-1.47003173828125;4.19999998939602;421;-0.0259674072265625;100 mA
366.681127074219;-1.474609375;4.20999998937077;422;-0.0259613037109375;100 mA
366.691127074194;-1.47918701171875;4.21999998934552;423;-0.0259674072265625;100 mA
366.701127074169;-1.48345947265625;4.22999998932028;424;-0.0259674072265625;100 mA
366.711127074143;-1.488037109375;4.23999998929503;425;-0.025970458984375;100 mA
366.721127074118;-1.4923095703125;4.24999998926978;426;-0.0259674072265625;100 mA
366.731127074093;-1.49658203125;4.25999998924453;427;-0.0259674072265625;100 mA
366.741127074068;-1.5008544921875;4.26999998921929;428;-0.0259674072265625;100 mA
366.751127074042;-1.505126953125;4.27999998919404;429;-0.025970458984375;100 mA
366.761127074017;-1.5093994140625;4.28999998916879;430;-0.025970458984375;100 mA
366.771127073992;-1.513671875;4.29999998914354;431;-0.02596435546875;100 mA
366.781127073967;-1.51763916015625;4.3099999891183;432;-0.0259674072265625;100 mA
366.791127073941;-1.52191162109375;4.31999998909305;433;-0.02596435546875;100 mA
366.801127073916;-1.52587890625;4.3299999890678;434;-0.02596435546875;100 mA
366.811127073891;-1.5301513671875;4.33999998904255;435;-0.02596435546875;100 mA
366.821127073866;-1.53411865234375;4.34999998901731;436;-0.025970458984375;100 mA
366.83112707384;-1.5380859375;4.35999998899206;437;-0.02596435546875;100 mA
366.841127073815;-1.5423583984375;4.36999998896681;438;-0.02596435546875;100 mA
366.85112707379;-1.54632568359375;4.37999998894156;439;-0.02596435546875;100 mA
366.861127073765;-1.55029296875;4.38999998891632;440;-0.0259613037109375;100 mA
366.871127073739;-1.55426025390625;4.39999998889107;441;-0.02596435546875;100 mA
366.881127073714;-1.5582275390625;4.40999998886582;442;-0.02596435546875;100 mA
366.891127073689;-1.56219482421875;4.41999998884057;443;-0.0259674072265625;100 mA
366.901127073664;-1.566162109375;4.42999998881533;444;-0.025970458984375;100 mA
366.911127073638;-1.57012939453125;4.43999998879008;445;-0.025970458984375;100 mA
366.921127073613;-1.5740966796875;4.44999998876483;446;-0.02596435546875;100 mA
366.931127073588;-1.57806396484375;4.45999998873958;447;-0.02596435546875;100 mA
366.941127073563;-1.58203125;4.46999998871433;448;-0.02596435546875;100 mA
366.951127073537;-1.58599853515625;4.47999998868909;449;-0.02596435546875;100 mA
366.961127073512;-1.5899658203125;4.48999998866384;450;-0.0259674072265625;100 mA
366.971127073487;-1.5936279296875;4.49999998863859;451;-0.0259674072265625;100 mA
366.981127073462;-1.59759521484375;4.50999998861334;452;-0.0259674072265625;100 mA
366.991127073436;-1.6015625;4.5199999885881;453;-0.0259674072265625;100 mA
367.001127073411;-1.60552978515625;4.52999998856285;454;-0.0259674072265625;100 mA
367.011127073386;-1.60919189453125;4.5399999885376;455;-0.0259674072265625;100 mA
367.021127073361;-1.6131591796875;4.54999998851235;456;-0.02596435546875;100 mA
367.031127073335;-1.6168212890625;4.55999998848711;457;-0.02596435546875;100 mA
367.04112707331;-1.6204833984375;4.56999998846186;458;-0.0259613037109375;100 mA
367.051127073285;-1.62445068359375;4.57999998843661;459;-0.02596435546875;100 mA
367.06112707326;-1.62811279296875;4.58999998841136;460;-0.02596435546875;100 mA
367.071127073234;-1.63177490234375;4.59999998838612;461;-0.02596435546875;100 mA
367.081127073209;-1.63543701171875;4.60999998836087;462;-0.0259674072265625;100 mA
367.091127073184;-1.63909912109375;4.61999998833562;463;-0.02596435546875;100 mA
367.101127073159;-1.64276123046875;4.62999998831037;464;-0.0259613037109375;100 mA
367.111127073134;-1.64642333984375;4.63999998828513;465;-0.02596435546875;100 mA
367.121127073108;-1.6497802734375;4.64999998825988;466;-0.0259674072265625;100 mA
367.131127073083;-1.6534423828125;4.65999998823463;467;-0.0259613037109375;100 mA
367.141127073058;-1.65679931640625;4.66999998820938;468;-0.02596435546875;100 mA
367.151127073033;-1.66046142578125;4.67999998818414;469;-0.025958251953125;100 mA
367.161127073007;-1.663818359375;4.68999998815889;470;-0.0259613037109375;100 mA
367.171127072982;-1.66717529296875;4.69999998813364;471;-0.025970458984375;100 mA
367.181127072957;-1.6705322265625;4.70999998810839;472;-0.025958251953125;100 mA
367.191127072932;-1.67388916015625;4.71999998808315;473;-0.02596435546875;100 mA
367.201127072906;-1.67724609375;4.7299999880579;474;-0.0259613037109375;100 mA
367.211127072881;-1.68060302734375;4.73999998803265;475;-0.02596435546875;100 mA
367.221127072856;-1.68365478515625;4.7499999880074;476;-0.0259674072265625;100 mA
367.231127072831;-1.68670654296875;4.75999998798216;477;-0.025970458984375;100 mA
367.241127072805;-1.6900634765625;4.76999998795691;478;-0.02596435546875;100 mA
367.25112707278;-1.693115234375;4.77999998793166;479;-0.0259674072265625;100 mA
367.261127072755;-1.6961669921875;4.78999998790641;480;-0.0259613037109375;100 mA
367.27112707273;-1.69891357421875;4.79999998788116;481;-0.0259674072265625;100 mA
367.281127072704;-1.70196533203125;4.80999998785592;482;-0.02596435546875;100 mA
367.291127072679;-1.70501708984375;4.81999998783067;483;-0.0259613037109375;100 mA
367.301127072654;-1.707763671875;4.82999998780542;484;-0.02596435546875;100 mA
367.311127072629;-1.7108154296875;4.83999998778017;485;-0.025958251953125;100 mA
367.321127072603;-1.71356201171875;4.84999998775493;486;-0.0259613037109375;100 mA
367.331127072578;-1.71630859375;4.85999998772968;487;-0.02596435546875;100 mA
367.341127072553;-1.71875;4.86999998770443;488;-0.0259613037109375;100 mA
367.351127072528;-1.72149658203125;4.87999998767918;489;-0.0259613037109375;100 mA
367.361127072502;-1.7242431640625;4.88999998765394;490;-0.02596435546875;100 mA
367.371127072477;-1.7266845703125;4.89999998762869;491;-0.0259674072265625;100 mA
367.381127072452;-1.72943115234375;4.90999998760344;492;-0.0259674072265625;100 mA
367.391127072427;-1.73187255859375;4.91999998757819;493;-0.02596435546875;100 mA
367.401127072401;-1.734619140625;4.92999998755295;494;-0.0259613037109375;100 mA
367.411127072376;-1.737060546875;4.9399999875277;495;-0.025958251953125;100 mA
367.421127072351;-1.739501953125;4.94999998750245;496;-0.0259674072265625;100 mA
367.431127072326;-1.74163818359375;4.9599999874772;497;-0.0259613037109375;100 mA
367.4411270723;-1.74407958984375;4.96999998745196;498;-0.0259613037109375;100 mA
367.451127072275;-1.74652099609375;4.97999998742671;499;-0.02596435546875;100 mA
367.46112707225;-1.74896240234375;4.98999998740146;500;-0.0259613037109375;100 mA
367.471127072225;-1.7510986328125;4.99999998737621;501;-0.0259613037109375;100 mA
367.481127072199;-1.75323486328125;5.00999998735097;502;-0.02596435546875;100 mA
367.491127072174;-1.75567626953125;5.01999998732572;503;-0.025958251953125;100 mA
367.501127072149;-1.7578125;5.02999998730047;504;-0.02596435546875;100 mA
367.511127072124;-1.75994873046875;5.03999998727522;505;-0.02596435546875;100 mA
367.521127072098;-1.7620849609375;5.04999998724998;506;-0.02596435546875;100 mA
367.531127072073;-1.76422119140625;5.05999998722473;507;-0.02596435546875;100 mA
367.541127072048;-1.76605224609375;5.06999998719948;508;-0.0259613037109375;100 mA
367.551127072023;-1.7681884765625;5.07999998717423;509;-0.02596435546875;100 mA
367.561127071997;-1.77032470703125;5.08999998714899;510;-0.02596435546875;100 mA
367.571127071972;-1.77215576171875;5.09999998712374;511;-0.0259613037109375;100 mA
367.581127071947;-1.7742919921875;5.10999998709849;512;-0.025958251953125;100 mA
367.591127071922;-1.776123046875;5.11999998707324;513;-0.02596435546875;100 mA
367.601127071896;-1.77825927734375;5.129999987048;514;-0.025958251953125;100 mA
367.611127071871;-1.78009033203125;5.13999998702275;515;-0.0259674072265625;100 mA
367.621127071846;-1.7822265625;5.1499999869975;516;-0.0259613037109375;100 mA
367.631127071821;-1.7840576171875;5.15999998697225;517;-0.0259613037109375;100 mA
367.641127071795;-1.785888671875;5.169999986947;518;-0.025970458984375;100 mA
367.65112707177;-1.7877197265625;5.17999998692176;519;-0.0259613037109375;100 mA
367.661127071745;-1.78955078125;5.18999998689651;520;-0.0259613037109375;100 mA
367.67112707172;-1.7913818359375;5.19999998687126;521;-0.0259613037109375;100 mA
367.681127071694;-1.793212890625;5.20999998684601;522;-0.025958251953125;100 mA
367.691127071669;-1.79473876953125;5.21999998682077;523;-0.0259613037109375;100 mA
367.701127071644;-1.79656982421875;5.22999998679552;524;-0.0259613037109375;100 mA
367.711127071619;-1.79840087890625;5.23999998677027;525;-0.02596435546875;100 mA
367.721127071593;-1.80023193359375;5.24999998674502;526;-0.025958251953125;100 mA
367.731127071568;-1.8017578125;5.25999998671978;527;-0.02596435546875;100 mA
367.741127071543;-1.8035888671875;5.26999998669453;528;-0.0259613037109375;100 mA
367.751127071518;-1.80511474609375;5.27999998666928;529;-0.02596435546875;100 mA
367.761127071492;-1.80694580078125;5.28999998664403;530;-0.025958251953125;100 mA
367.771127071467;-1.8084716796875;5.29999998661879;531;-0.02596435546875;100 mA
367.781127071442;-1.80999755859375;5.30999998659354;532;-0.0259613037109375;100 mA
367.791127071417;-1.81182861328125;5.31999998656829;533;-0.025958251953125;100 mA
367.801127071391;-1.8133544921875;5.32999998654304;534;-0.0259613037109375;100 mA
367.811127071366;-1.81488037109375;5.3399999865178;535;-0.0259674072265625;100 mA
367.821127071341;-1.81671142578125;5.34999998649255;536;-0.0259613037109375;100 mA
367.831127071316;-1.8182373046875;5.3599999864673;537;-0.0259613037109375;100 mA
367.84112707129;-1.81976318359375;5.36999998644205;538;-0.0259613037109375;100 mA
367.851127071265;-1.8212890625;5.37999998641681;539;-0.02596435546875;100 mA
367.86112707124;-1.82281494140625;5.38999998639156;540;-0.0259613037109375;100 mA
367.871127071215;-1.8243408203125;5.39999998636631;541;-0.0259613037109375;100 mA
367.881127071189;-1.82586669921875;5.40999998634106;542;-0.0259674072265625;100 mA
367.891127071164;-1.827392578125;5.41999998631582;543;-0.0259613037109375;100 mA
367.901127071139;-1.82891845703125;5.42999998629057;544;-0.0259613037109375;100 mA
367.911127071114;-1.8304443359375;5.43999998626532;545;-0.0259613037109375;100 mA
367.921127071088;-1.8316650390625;5.44999998624007;546;-0.0259613037109375;100 mA
367.931127071063;-1.83319091796875;5.45999998621483;547;-0.0259613037109375;100 mA
367.941127071038;-1.834716796875;5.46999998618958;548;-0.0259613037109375;100 mA
367.951127071013;-1.8359375;5.47999998616433;549;-0.0259674072265625;100 mA
367.961127070987;-1.83746337890625;5.48999998613908;550;-0.02596435546875;100 mA
367.971127070962;-1.8389892578125;5.49999998611383;551;-0.025958251953125;100 mA
367.981127070937;-1.8402099609375;5.50999998608859;552;-0.0259552001953125;100 mA
367.991127070912;-1.8414306640625;5.51999998606334;553;-0.02596435546875;100 mA
368.001127070886;-1.8426513671875;5.52999998603809;554;-0.025958251953125;100 mA
368.011127070861;-1.84417724609375;5.53999998601284;555;-0.0259613037109375;100 mA
368.021127070836;-1.84539794921875;5.5499999859876;556;-0.0259613037109375;100 mA
368.031127070811;-1.84661865234375;5.55999998596235;557;-0.0259613037109375;100 mA
368.041127070785;-1.84783935546875;5.5699999859371;558;-0.02596435546875;100 mA
368.05112707076;-1.84906005859375;5.57999998591185;559;-0.02596435546875;100 mA
368.061127070735;-1.85028076171875;5.58999998588661;560;-0.025958251953125;100 mA
368.07112707071;-1.85150146484375;5.59999998586136;561;-0.025958251953125;100 mA
368.081127070684;-1.85272216796875;5.60999998583611;562;-0.025958251953125;100 mA
368.091127070659;-1.8536376953125;5.61999998581086;563;-0.0259613037109375;100 mA
368.101127070634;-1.8548583984375;5.62999998578562;564;-0.0259613037109375;100 mA
368.111127070609;-1.85577392578125;5.63999998576037;565;-0.0259613037109375;100 mA
368.121127070583;-1.85699462890625;5.64999998573512;566;-0.0259552001953125;100 mA
368.131127070558;-1.85791015625;5.65999998570987;567;-0.025958251953125;100 mA
368.141127070533;-1.859130859375;5.66999998568463;568;-0.0259552001953125;100 mA
368.151127070508;-1.86004638671875;5.67999998565938;569;-0.0259552001953125;100 mA
368.161127070483;-1.8609619140625;5.68999998563413;570;-0.025958251953125;100 mA
368.171127070457;-1.8621826171875;5.69999998560888;571;-0.0259613037109375;100 mA
368.181127070432;-1.86309814453125;5.70999998558364;572;-0.025958251953125;100 mA
368.191127070407;-1.864013671875;5.71999998555839;573;-0.025958251953125;100 mA
368.201127070382;-1.86492919921875;5.72999998553314;574;-0.025958251953125;100 mA
368.211127070356;-1.86614990234375;5.73999998550789;575;-0.0259613037109375;100 mA
368.221127070331;-1.8670654296875;5.74999998548265;576;-0.0259552001953125;100 mA
368.231127070306;-1.86798095703125;5.7599999854574;577;-0.02596435546875;100 mA
368.241127070281;-1.868896484375;5.76999998543215;578;-0.0259613037109375;100 mA
368.251127070255;-1.86981201171875;5.7799999854069;579;-0.02596435546875;100 mA
368.26112707023;-1.87042236328125;5.78999998538166;580;-0.0259674072265625;100 mA
368.271127070205;-1.871337890625;5.79999998535641;581;-0.0259613037109375;100 mA
368.28112707018;-1.87225341796875;5.80999998533116;582;-0.0259613037109375;100 mA
368.291127070154;-1.8731689453125;5.81999998530591;583;-0.02596435546875;100 mA
368.301127070129;-1.873779296875;5.82999998528066;584;-0.0259613037109375;100 mA
368.311127070104;-1.87469482421875;5.83999998525542;585;-0.025958251953125;100 mA
368.321127070079;-1.8756103515625;5.84999998523017;586;-0.0259613037109375;100 mA
368.331127070053;-1.87652587890625;5.85999998520492;587;-0.0259613037109375;100 mA
368.341127070028;-1.87713623046875;5.86999998517967;588;-0.02596435546875;100 mA
368.351127070003;-1.87774658203125;5.87999998515443;589;-0.0259613037109375;100 mA
368.361127069978;-1.878662109375;5.88999998512918;590;-0.0259521484375;100 mA
368.371127069952;-1.8792724609375;5.89999998510393;591;-0.0259674072265625;100 mA
368.381127069927;-1.88018798828125;5.90999998507868;592;-0.0259613037109375;100 mA
368.391127069902;-1.88079833984375;5.91999998505344;593;-0.0259613037109375;100 mA
368.401127069877;-1.8817138671875;5.92999998502819;594;-0.0259552001953125;100 mA
368.411127069851;-1.88232421875;5.93999998500294;595;-0.0259552001953125;100 mA
368.421127069826;-1.8829345703125;5.94999998497769;596;-0.0259613037109375;100 mA
368.431127069801;-1.883544921875;5.95999998495245;597;-0.0259613037109375;100 mA
368.441127069776;-1.8841552734375;5.9699999849272;598;-0.0259613037109375;100 mA
368.45112706975;-1.884765625;5.97999998490195;599;-0.0259674072265625;100 mA
368.461127069725;-1.8853759765625;5.9899999848767;600;-0.02596435546875;100 mA
368.4711270697;-1.885986328125;5.99999998485146;601;-0.025958251953125;100 mA
368.481127069675;-1.8865966796875;6.00999998482621;602;-0.0259613037109375;100 mA
368.491127069649;-1.88720703125;6.01999998480096;603;-0.0259613037109375;100 mA
368.501127069624;-1.8878173828125;6.02999998477571;604;-0.025958251953125;100 mA
368.511127069599;-1.888427734375;6.03999998475047;605;-0.025958251953125;100 mA
368.521127069574;-1.8890380859375;6.04999998472522;606;-0.025958251953125;100 mA
368.531127069548;-1.8896484375;6.05999998469997;607;-0.0259552001953125;100 mA
368.541127069523;-1.8902587890625;6.06999998467472;608;-0.0259552001953125;100 mA
368.551127069498;-1.89056396484375;6.07999998464948;609;-0.0259613037109375;100 mA
368.561127069473;-1.89117431640625;6.08999998462423;610;-0.025958251953125;100 mA
368.571127069447;-1.89178466796875;6.09999998459898;611;-0.02596435546875;100 mA
368.581127069422;-1.89239501953125;6.10999998457373;612;-0.0259613037109375;100 mA
368.591127069397;-1.8927001953125;6.11999998454849;613;-0.0259552001953125;100 mA
368.601127069372;-1.893310546875;6.12999998452324;614;-0.0259674072265625;100 mA
368.611127069346;-1.8939208984375;6.13999998449799;615;-0.025958251953125;100 mA
368.621127069321;-1.89453125;6.14999998447274;616;-0.0259613037109375;100 mA
368.631127069296;-1.8951416015625;6.1599999844475;617;-0.025958251953125;100 mA
368.641127069271;-1.895751953125;6.16999998442225;618;-0.0259613037109375;100 mA
368.651127069245;-1.89605712890625;6.179999984397;619;-0.0259613037109375;100 mA
368.66112706922;-1.89666748046875;6.18999998437175;620;-0.02596435546875;100 mA
368.671127069195;-1.89727783203125;6.1999999843465;621;-0.0259613037109375;100 mA
368.68112706917;-1.89788818359375;6.20999998432126;622;-0.025958251953125;100 mA
368.691127069144;-1.898193359375;6.21999998429601;623;-0.0259613037109375;100 mA
368.701127069119;-1.8988037109375;6.22999998427076;624;-0.025958251953125;100 mA
368.711127069094;-1.8994140625;6.23999998424551;625;-0.0259613037109375;100 mA
368.721127069069;-1.89971923828125;6.24999998422027;626;-0.02596435546875;100 mA
368.731127069043;-1.90032958984375;6.25999998419502;627;-0.0259552001953125;100 mA
368.741127069018;-1.90093994140625;6.26999998416977;628;-0.0259613037109375;100 mA
368.751127068993;-1.9012451171875;6.27999998414452;629;-0.0259613037109375;100 mA
368.761127068968;-1.90185546875;6.28999998411928;630;-0.0259613037109375;100 mA
368.771127068942;-1.90216064453125;6.29999998409403;631;-0.0259613037109375;100 mA
368.781127068917;-1.90277099609375;6.30999998406878;632;-0.0259613037109375;100 mA
368.791127068892;-1.903076171875;6.31999998404353;633;-0.025958251953125;100 mA
368.801127068867;-1.9036865234375;6.32999998401829;634;-0.0259552001953125;100 mA
368.811127068841;-1.90399169921875;6.33999998399304;635;-0.0259613037109375;100 mA
368.821127068816;-1.90460205078125;6.34999998396779;636;-0.025958251953125;100 mA
368.831127068791;-1.9049072265625;6.35999998394254;637;-0.025958251953125;100 mA
368.841127068766;-1.905517578125;6.3699999839173;638;-0.025958251953125;100 mA
368.85112706874;-1.90582275390625;6.37999998389205;639;-0.025958251953125;100 mA
368.861127068715;-1.9061279296875;6.3899999838668;640;-0.0259613037109375;100 mA
368.87112706869;-1.90673828125;6.39999998384155;641;-0.0259552001953125;100 mA
368.881127068665;-1.90704345703125;6.40999998381631;642;-0.0259552001953125;100 mA
368.891127068639;-1.9073486328125;6.41999998379106;643;-0.0259613037109375;100 mA
368.901127068614;-1.907958984375;6.42999998376581;644;-0.025958251953125;100 mA
368.911127068589;-1.90826416015625;6.43999998374056;645;-0.0259552001953125;100 mA
368.921127068564;-1.9085693359375;6.44999998371532;646;-0.0259613037109375;100 mA
368.931127068538;-1.9091796875;6.45999998369007;647;-0.0259613037109375;100 mA
368.941127068513;-1.90948486328125;6.46999998366482;648;-0.0259613037109375;100 mA
368.951127068488;-1.9097900390625;6.47999998363957;649;-0.025958251953125;100 mA
368.961127068463;-1.91009521484375;6.48999998361433;650;-0.0259552001953125;100 mA
368.971127068437;-1.910400390625;6.49999998358908;651;-0.0259552001953125;100 mA
368.981127068412;-1.91070556640625;6.50999998356383;652;-0.025958251953125;100 mA
368.991127068387;-1.9110107421875;6.51999998353858;653;-0.0259613037109375;100 mA
369.001127068362;-1.91131591796875;6.52999998351333;654;-0.025958251953125;100 mA
369.011127068336;-1.91192626953125;6.53999998348809;655;-0.025958251953125;100 mA
369.021127068311;-1.9122314453125;6.54999998346284;656;-0.02596435546875;100 mA
369.031127068286;-1.91253662109375;6.55999998343759;657;-0.025958251953125;100 mA
369.041127068261;-1.912841796875;6.56999998341234;658;-0.02596435546875;100 mA
369.051127068235;-1.91314697265625;6.5799999833871;659;-0.02596435546875;100 mA
369.06112706821;-1.9134521484375;6.58999998336185;660;-0.0259613037109375;100 mA
369.071127068185;-1.91375732421875;6.5999999833366;661;-0.025958251953125;100 mA
369.08112706816;-1.9140625;6.60999998331135;662;-0.025958251953125;100 mA
369.091127068134;-1.91436767578125;6.61999998328611;663;-0.025958251953125;100 mA
369.101127068109;-1.9146728515625;6.62999998326086;664;-0.0259613037109375;100 mA
369.111127068084;-1.91497802734375;6.63999998323561;665;-0.0259613037109375;100 mA
369.121127068059;-1.915283203125;6.64999998321036;666;-0.0259552001953125;100 mA
369.131127068033;-1.91558837890625;6.65999998318512;667;-0.0259613037109375;100 mA
369.141127068008;-1.9158935546875;6.66999998315987;668;-0.02596435546875;100 mA
369.151127067983;-1.9158935546875;6.67999998313462;669;-0.02596435546875;100 mA
369.161127067958;-1.91619873046875;6.68999998310937;670;-0.0259613037109375;100 mA
369.171127067933;-1.91650390625;6.69999998308413;671;-0.0259521484375;100 mA
369.181127067907;-1.91680908203125;6.70999998305888;672;-0.0259521484375;100 mA
369.191127067882;-1.9171142578125;6.71999998303363;673;-0.0259552001953125;100 mA
369.201127067857;-1.91741943359375;6.72999998300838;674;-0.0259552001953125;100 mA
369.211127067832;-1.917724609375;6.73999998298314;675;-0.025958251953125;100 mA
369.221127067806;-1.917724609375;6.74999998295789;676;-0.02596435546875;100 mA
369.231127067781;-1.91802978515625;6.75999998293264;677;-0.0259552001953125;100 mA
369.241127067756;-1.9183349609375;6.76999998290739;678;-0.0259613037109375;100 mA
369.251127067731;-1.91864013671875;6.77999998288215;679;-0.025958251953125;100 mA
369.261127067705;-1.9189453125;6.7899999828569;680;-0.025958251953125;100 mA
369.27112706768;-1.9189453125;6.79999998283165;681;-0.0259521484375;100 mA
369.281127067655;-1.91925048828125;6.8099999828064;682;-0.025958251953125;100 mA
369.29112706763;-1.9195556640625;6.81999998278116;683;-0.0259613037109375;100 mA
369.301127067604;-1.91986083984375;6.82999998275591;684;-0.0259613037109375;100 mA
369.311127067579;-1.920166015625;6.83999998273066;685;-0.0259613037109375;100 mA
369.321127067554;-1.92047119140625;6.84999998270541;686;-0.0259552001953125;100 mA
369.331127067529;-1.92047119140625;6.85999998268016;687;-0.0259613037109375;100 mA
369.341127067503;-1.9207763671875;6.86999998265492;688;-0.025958251953125;100 mA
369.351127067478;-1.92108154296875;6.87999998262967;689;-0.025958251953125;100 mA
369.361127067453;-1.92138671875;6.88999998260442;690;-0.0259613037109375;100 mA
369.371127067428;-1.92138671875;6.89999998257917;691;-0.0259613037109375;100 mA
369.381127067402;-1.92169189453125;6.90999998255393;692;-0.025958251953125;100 mA
369.391127067377;-1.9219970703125;6.91999998252868;693;-0.0259552001953125;100 mA
369.401127067352;-1.9219970703125;6.92999998250343;694;-0.02596435546875;100 mA
369.411127067327;-1.92230224609375;6.93999998247818;695;-0.0259552001953125;100 mA
369.421127067301;-1.922607421875;6.94999998245294;696;-0.02596435546875;100 mA
369.431127067276;-1.92291259765625;6.95999998242769;697;-0.0259552001953125;100 mA
369.441127067251;-1.92291259765625;6.96999998240244;698;-0.025958251953125;100 mA
369.451127067226;-1.9232177734375;6.97999998237719;699;-0.0259613037109375;100 mA
369.4611270672;-1.92352294921875;6.98999998235195;700;-0.025958251953125;100 mA
369.471127067175;-1.923828125;6.9999999823267;701;-0.02596435546875;100 mA
369.48112706715;-1.923828125;7.00999998230145;702;-0.0259613037109375;100 mA
369.491127067125;-1.92413330078125;7.0199999822762;703;-0.0259613037109375;100 mA
369.501127067099;-1.92413330078125;7.02999998225096;704;-0.025958251953125;100 mA
369.511127067074;-1.9244384765625;7.03999998222571;705;-0.025958251953125;100 mA
369.521127067049;-1.92474365234375;7.04999998220046;706;-0.0259613037109375;100 mA
369.531127067024;-1.92474365234375;7.05999998217521;707;-0.0259613037109375;100 mA
369.541127066998;-1.925048828125;7.06999998214997;708;-0.0259613037109375;100 mA
369.551127066973;-1.92535400390625;7.07999998212472;709;-0.025958251953125;100 mA
369.561127066948;-1.92535400390625;7.08999998209947;710;-0.0259552001953125;100 mA
369.571127066923;-1.9256591796875;7.09999998207422;711;-0.025958251953125;100 mA
369.581127066897;-1.92596435546875;7.10999998204898;712;-0.0259613037109375;100 mA
369.591127066872;-1.92596435546875;7.11999998202373;713;-0.0259613037109375;100 mA
369.601127066847;-1.92626953125;7.12999998199848;714;-0.025958251953125;100 mA
369.611127066822;-1.92626953125;7.13999998197323;715;-0.0259613037109375;100 mA
369.621127066796;-1.92657470703125;7.14999998194799;716;-0.025958251953125;100 mA
369.631127066771;-1.92657470703125;7.15999998192274;717;-0.025958251953125;100 mA
369.641127066746;-1.9268798828125;7.16999998189749;718;-0.02596435546875;100 mA
369.651127066721;-1.92718505859375;7.17999998187224;719;-0.0259552001953125;100 mA
369.661127066695;-1.92718505859375;7.189999981847;720;-0.025958251953125;100 mA
369.67112706667;-1.927490234375;7.19999998182175;721;-0.0259613037109375;100 mA
369.681127066645;-1.927490234375;7.2099999817965;722;-0.02596435546875;100 mA
369.69112706662;-1.92779541015625;7.21999998177125;723;-0.0259613037109375;100 mA
369.701127066594;-1.92779541015625;7.229999981746;724;-0.02596435546875;100 mA
369.711127066569;-1.9281005859375;7.23999998172076;725;-0.025958251953125;100 mA
369.721127066544;-1.92840576171875;7.24999998169551;726;-0.0259613037109375;100 mA
369.731127066519;-1.92840576171875;7.25999998167026;727;-0.0259613037109375;100 mA
369.741127066493;-1.9287109375;7.26999998164501;728;-0.025958251953125;100 mA
369.751127066468;-1.9287109375;7.27999998161977;729;-0.025958251953125;100 mA
369.761127066443;-1.92901611328125;7.28999998159452;730;-0.0259613037109375;100 mA
369.771127066418;-1.92901611328125;7.29999998156927;731;-0.0259613037109375;100 mA
369.781127066392;-1.9293212890625;7.30999998154402;732;-0.025958251953125;100 mA
369.791127066367;-1.9293212890625;7.31999998151878;733;-0.0259552001953125;100 mA
369.801127066342;-1.92962646484375;7.32999998149353;734;-0.0259613037109375;100 mA
369.811127066317;-1.92962646484375;7.33999998146828;735;-0.0259613037109375;100 mA
369.821127066291;-1.929931640625;7.34999998144303;736;-0.0259613037109375;100 mA
369.831127066266;-1.929931640625;7.35999998141779;737;-0.0259552001953125;100 mA
369.841127066241;-1.93023681640625;7.36999998139254;738;-0.0259613037109375;100 mA
369.851127066216;-1.93023681640625;7.37999998136729;739;-0.025958251953125;100 mA
369.86112706619;-1.9305419921875;7.38999998134204;740;-0.025958251953125;100 mA
369.871127066165;-1.9305419921875;7.3999999813168;741;-0.025958251953125;100 mA
369.88112706614;-1.9305419921875;7.40999998129155;742;-0.0259613037109375;100 mA
369.891127066115;-1.93084716796875;7.4199999812663;743;-0.0259613037109375;100 mA
369.901127066089;-1.93084716796875;7.42999998124105;744;-0.0259613037109375;100 mA
369.911127066064;-1.93115234375;7.43999998121581;745;-0.025958251953125;100 mA
369.921127066039;-1.93115234375;7.44999998119056;746;-0.025958251953125;100 mA
369.931127066014;-1.93115234375;7.45999998116531;747;-0.025958251953125;100 mA
369.941127065988;-1.93145751953125;7.46999998114006;748;-0.02596435546875;100 mA
369.951127065963;-1.93145751953125;7.47999998111482;749;-0.02596435546875;100 mA
369.961127065938;-1.9317626953125;7.48999998108957;750;-0.025958251953125;100 mA
369.971127065913;-1.9317626953125;7.49999998106432;751;-0.02596435546875;100 mA
369.981127065887;-1.9317626953125;7.50999998103907;752;-0.0259613037109375;100 mA
369.991127065862;-1.93206787109375;7.51999998101383;753;-0.025958251953125;100 mA
370.001127065837;-1.93206787109375;7.52999998098858;754;-0.0259613037109375;100 mA
370.011127065812;-1.93206787109375;7.53999998096333;755;-0.025958251953125;100 mA
370.021127065786;-1.932373046875;7.54999998093808;756;-0.0259613037109375;100 mA
370.031127065761;-1.932373046875;7.55999998091283;757;-0.025958251953125;100 mA
370.041127065736;-1.93267822265625;7.56999998088759;758;-0.025958251953125;100 mA
370.051127065711;-1.93267822265625;7.57999998086234;759;-0.025958251953125;100 mA
370.061127065685;-1.93267822265625;7.58999998083709;760;-0.0259613037109375;100 mA
370.07112706566;-1.9329833984375;7.59999998081184;761;-0.02596435546875;100 mA
370.081127065635;-1.9329833984375;7.6099999807866;762;-0.025958251953125;100 mA
370.09112706561;-1.93328857421875;7.61999998076135;763;-0.025958251953125;100 mA
370.101127065584;-1.93328857421875;7.6299999807361;764;-0.025958251953125;100 mA
370.111127065559;-1.93328857421875;7.63999998071085;765;-0.025958251953125;100 mA
370.121127065534;-1.93359375;7.64999998068561;766;-0.0259521484375;100 mA
370.131127065509;-1.93359375;7.65999998066036;767;-0.025958251953125;100 mA
370.141127065483;-1.93359375;7.66999998063511;768;-0.0259613037109375;100 mA
370.151127065458;-1.93359375;7.67999998060986;769;-0.0259613037109375;100 mA
370.161127065433;-1.93389892578125;7.68999998058462;770;-0.025958251953125;100 mA
370.171127065408;-1.93389892578125;7.69999998055937;771;-0.025958251953125;100 mA
370.181127065382;-1.93389892578125;7.70999998053412;772;-0.025958251953125;100 mA
370.191127065357;-1.9342041015625;7.71999998050887;773;-0.0259613037109375;100 mA
370.201127065332;-1.9342041015625;7.72999998048363;774;-0.02596435546875;100 mA
370.211127065307;-1.9342041015625;7.73999998045838;775;-0.0259552001953125;100 mA
370.221127065282;-1.93450927734375;7.74999998043313;776;-0.0259613037109375;100 mA
370.231127065256;-1.93450927734375;7.75999998040788;777;-0.025958251953125;100 mA
370.241127065231;-1.93450927734375;7.76999998038264;778;-0.0259552001953125;100 mA
370.251127065206;-1.93450927734375;7.77999998035739;779;-0.025958251953125;100 mA
370.261127065181;-1.934814453125;7.78999998033214;780;-0.0259521484375;100 mA
370.271127065155;-1.934814453125;7.79999998030689;781;-0.025958251953125;100 mA
370.28112706513;-1.934814453125;7.80999998028165;782;-0.025958251953125;100 mA
370.291127065105;-1.934814453125;7.8199999802564;783;-0.0259552001953125;100 mA
370.30112706508;-1.93511962890625;7.82999998023115;784;-0.025958251953125;100 mA
370.311127065054;-1.93511962890625;7.8399999802059;785;-0.0259613037109375;100 mA
370.321127065029;-1.93511962890625;7.84999998018066;786;-0.025958251953125;100 mA
370.331127065004;-1.93511962890625;7.85999998015541;787;-0.0259521484375;100 mA
370.341127064979;-1.9354248046875;7.86999998013016;788;-0.0259552001953125;100 mA
370.351127064953;-1.9354248046875;7.87999998010491;789;-0.0259674072265625;100 mA
370.361127064928;-1.9354248046875;7.88999998007966;790;-0.0259552001953125;100 mA
370.371127064903;-1.9354248046875;7.89999998005442;791;-0.025958251953125;100 mA
370.381127064878;-1.93572998046875;7.90999998002917;792;-0.0259613037109375;100 mA
370.391127064852;-1.93572998046875;7.91999998000392;793;-0.025958251953125;100 mA
370.401127064827;-1.93572998046875;7.92999997997867;794;-0.025958251953125;100 mA
370.411127064802;-1.93572998046875;7.93999997995343;795;-0.0259521484375;100 mA
370.421127064777;-1.93572998046875;7.94999997992818;796;-0.0259552001953125;100 mA
370.431127064751;-1.93603515625;7.95999997990293;797;-0.0259552001953125;100 mA
370.441127064726;-1.93603515625;7.96999997987768;798;-0.0259521484375;100 mA
370.451127064701;-1.93603515625;7.97999997985244;799;-0.0259552001953125;100 mA
370.461127064676;-1.93603515625;7.98999997982719;800;-0.0259552001953125;100 mA
370.47112706465;-1.93603515625;7.99999997980194;801;-0.0259552001953125;100 mA
370.481127064625;-1.93634033203125;8.00999997977669;802;-0.0259613037109375;100 mA
370.4911270646;-1.93634033203125;8.01999997975145;803;-0.025958251953125;100 mA
370.501127064575;-1.93634033203125;8.0299999797262;804;-0.025958251953125;100 mA
370.511127064549;-1.93634033203125;8.03999997970095;805;-0.02596435546875;100 mA
370.521127064524;-1.93634033203125;8.0499999796757;806;-0.0259613037109375;100 mA
370.531127064499;-1.9366455078125;8.05999997965046;807;-0.0259552001953125;100 mA
370.541127064474;-1.9366455078125;8.06999997962521;808;-0.025958251953125;100 mA
370.551127064448;-1.9366455078125;8.07999997959996;809;-0.0259613037109375;100 mA
370.561127064423;-1.9366455078125;8.08999997957471;810;-0.0259552001953125;100 mA
370.571127064398;-1.9366455078125;8.09999997954947;811;-0.025958251953125;100 mA
370.581127064373;-1.9366455078125;8.10999997952422;812;-0.02596435546875;100 mA
370.591127064347;-1.93695068359375;8.11999997949897;813;-0.0259613037109375;100 mA
370.601127064322;-1.93695068359375;8.12999997947372;814;-0.0259552001953125;100 mA
370.611127064297;-1.93695068359375;8.13999997944848;815;-0.025958251953125;100 mA
370.621127064272;-1.93695068359375;8.14999997942323;816;-0.025958251953125;100 mA
370.631127064246;-1.93695068359375;8.15999997939798;817;-0.025958251953125;100 mA
370.641127064221;-1.93695068359375;8.16999997937273;818;-0.0259613037109375;100 mA
370.651127064196;-1.937255859375;8.17999997934749;819;-0.0259613037109375;100 mA
370.661127064171;-1.937255859375;8.18999997932224;820;-0.0259613037109375;100 mA
370.671127064145;-1.937255859375;8.19999997929699;821;-0.0259613037109375;100 mA
370.68112706412;-1.937255859375;8.20999997927174;822;-0.02596435546875;100 mA
370.691127064095;-1.937255859375;8.2199999792465;823;-0.0259552001953125;100 mA
370.70112706407;-1.937255859375;8.22999997922125;824;-0.0259613037109375;100 mA
370.711127064044;-1.93756103515625;8.239999979196;825;-0.025958251953125;100 mA
370.721127064019;-1.93756103515625;8.24999997917075;826;-0.025958251953125;100 mA
370.731127063994;-1.93756103515625;8.2599999791455;827;-0.0259552001953125;100 mA
370.741127063969;-1.93756103515625;8.26999997912026;828;-0.0259613037109375;100 mA
370.751127063943;-1.93756103515625;8.27999997909501;829;-0.0259613037109375;100 mA
370.761127063918;-1.93756103515625;8.28999997906976;830;-0.0259613037109375;100 mA
370.771127063893;-1.9378662109375;8.29999997904451;831;-0.0259613037109375;100 mA
370.781127063868;-1.9378662109375;8.30999997901927;832;-0.025958251953125;100 mA
370.791127063842;-1.9378662109375;8.31999997899402;833;-0.025958251953125;100 mA
370.801127063817;-1.9378662109375;8.32999997896877;834;-0.0259613037109375;100 mA
370.811127063792;-1.9378662109375;8.33999997894352;835;-0.0259613037109375;100 mA
370.821127063767;-1.9378662109375;8.34999997891828;836;-0.02596435546875;100 mA
370.831127063741;-1.9378662109375;8.35999997889303;837;-0.025958251953125;100 mA
370.841127063716;-1.93817138671875;8.36999997886778;838;-0.0259613037109375;100 mA
370.851127063691;-1.93817138671875;8.37999997884253;839;-0.0259613037109375;100 mA
370.861127063666;-1.93817138671875;8.38999997881729;840;-0.0259613037109375;100 mA
370.87112706364;-1.93817138671875;8.39999997879204;841;-0.02596435546875;100 mA
370.881127063615;-1.93817138671875;8.40999997876679;842;-0.0259613037109375;100 mA
370.89112706359;-1.93817138671875;8.41999997874154;843;-0.025958251953125;100 mA
370.901127063565;-1.93817138671875;8.4299999787163;844;-0.025958251953125;100 mA
370.911127063539;-1.9384765625;8.43999997869105;845;-0.0259613037109375;100 mA
370.921127063514;-1.9384765625;8.4499999786658;846;-0.02596435546875;100 mA
370.931127063489;-1.9384765625;8.45999997864055;847;-0.02596435546875;100 mA
370.941127063464;-1.9384765625;8.46999997861531;848;-0.02596435546875;100 mA
370.951127063438;-1.9384765625;8.47999997859006;849;-0.025958251953125;100 mA
370.961127063413;-1.9384765625;8.48999997856481;850;-0.025958251953125;100 mA
370.971127063388;-1.9384765625;8.49999997853956;851;-0.0259613037109375;100 mA
370.981127063363;-1.9384765625;8.50999997851432;852;-0.0259613037109375;100 mA
370.991127063337;-1.93878173828125;8.51999997848907;853;-0.0259552001953125;100 mA
371.001127063312;-1.93878173828125;8.52999997846382;854;-0.02596435546875;100 mA
371.011127063287;-1.93878173828125;8.53999997843857;855;-0.0259521484375;100 mA
371.021127063262;-1.93878173828125;8.54999997841333;856;-0.02596435546875;100 mA
371.031127063236;-1.93878173828125;8.55999997838808;857;-0.025958251953125;100 mA
371.041127063211;-1.93878173828125;8.56999997836283;858;-0.0259613037109375;100 mA
371.051127063186;-1.93878173828125;8.57999997833758;859;-0.0259613037109375;100 mA
371.061127063161;-1.93878173828125;8.58999997831233;860;-0.0259613037109375;100 mA
371.071127063135;-1.9390869140625;8.59999997828709;861;-0.0259613037109375;100 mA
371.08112706311;-1.9390869140625;8.60999997826184;862;-0.0259552001953125;100 mA
371.091127063085;-1.9390869140625;8.61999997823659;863;-0.0259613037109375;100 mA
371.10112706306;-1.9390869140625;8.62999997821134;864;-0.025958251953125;100 mA
371.111127063034;-1.9390869140625;8.6399999781861;865;-0.0259613037109375;100 mA
371.121127063009;-1.9390869140625;8.64999997816085;866;-0.02596435546875;100 mA
371.131127062984;-1.9390869140625;8.6599999781356;867;-0.0259521484375;100 mA
371.141127062959;-1.9390869140625;8.66999997811035;868;-0.0259613037109375;100 mA
371.151127062933;-1.9390869140625;8.67999997808511;869;-0.0259552001953125;100 mA
371.161127062908;-1.9390869140625;8.68999997805986;870;-0.025958251953125;100 mA
371.171127062883;-1.93939208984375;8.69999997803461;871;-0.0259552001953125;100 mA
371.181127062858;-1.93939208984375;8.70999997800936;872;-0.025958251953125;100 mA
371.191127062832;-1.93939208984375;8.71999997798412;873;-0.025958251953125;100 mA
371.201127062807;-1.93939208984375;8.72999997795887;874;-0.0259521484375;100 mA
371.211127062782;-1.93939208984375;8.73999997793362;875;-0.0259552001953125;100 mA
371.221127062757;-1.93939208984375;8.74999997790837;876;-0.0259552001953125;100 mA
371.231127062732;-1.93939208984375;8.75999997788313;877;-0.025958251953125;100 mA
371.241127062706;-1.93939208984375;8.76999997785788;878;-0.025958251953125;100 mA
371.251127062681;-1.93939208984375;8.77999997783263;879;-0.025958251953125;100 mA
371.261127062656;-1.939697265625;8.78999997780738;880;-0.025958251953125;100 mA
371.271127062631;-1.939697265625;8.79999997778214;881;-0.0259552001953125;100 mA
371.281127062605;-1.939697265625;8.80999997775689;882;-0.025958251953125;100 mA
371.29112706258;-1.939697265625;8.81999997773164;883;-0.0259613037109375;100 mA
371.301127062555;-1.939697265625;8.82999997770639;884;-0.0259613037109375;100 mA
371.31112706253;-1.939697265625;8.83999997768115;885;-0.025958251953125;100 mA
371.321127062504;-1.939697265625;8.8499999776559;886;-0.025958251953125;100 mA
371.331127062479;-1.939697265625;8.85999997763065;887;-0.0259613037109375;100 mA
371.341127062454;-1.939697265625;8.8699999776054;888;-0.025958251953125;100 mA
371.351127062429;-1.939697265625;8.87999997758016;889;-0.025958251953125;100 mA
371.361127062403;-1.94000244140625;8.88999997755491;890;-0.02596435546875;100 mA
371.371127062378;-1.94000244140625;8.89999997752966;891;-0.0259552001953125;100 mA
371.381127062353;-1.94000244140625;8.90999997750441;892;-0.02596435546875;100 mA
371.391127062328;-1.94000244140625;8.91999997747916;893;-0.025958251953125;100 mA
371.401127062302;-1.94000244140625;8.92999997745392;894;-0.0259613037109375;100 mA
371.411127062277;-1.94000244140625;8.93999997742867;895;-0.0259613037109375;100 mA
371.421127062252;-1.94000244140625;8.94999997740342;896;-0.025958251953125;100 mA
371.431127062227;-1.94000244140625;8.95999997737817;897;-0.02596435546875;100 mA
371.441127062201;-1.94000244140625;8.96999997735293;898;-0.025958251953125;100 mA
371.451127062176;-1.94000244140625;8.97999997732768;899;-0.0259552001953125;100 mA
371.461127062151;-1.94000244140625;8.98999997730243;900;-0.0259552001953125;100 mA
371.471127062126;-1.9403076171875;8.99999997727718;901;-0.025958251953125;100 mA
371.4811270621;-1.9403076171875;9.00999997725194;902;-0.0259552001953125;100 mA
371.491127062075;-1.9403076171875;9.01999997722669;903;-0.0259613037109375;100 mA
371.50112706205;-1.9403076171875;9.02999997720144;904;-0.0259613037109375;100 mA
371.511127062025;-1.9403076171875;9.03999997717619;905;-0.025958251953125;100 mA
371.521127061999;-1.9403076171875;9.04999997715095;906;-0.025958251953125;100 mA
371.531127061974;-1.9403076171875;9.0599999771257;907;-0.025958251953125;100 mA
371.541127061949;-1.9403076171875;9.06999997710045;908;-0.025958251953125;100 mA
371.551127061924;-1.9403076171875;9.0799999770752;909;-0.0259552001953125;100 mA
371.561127061898;-1.9403076171875;9.08999997704996;910;-0.025958251953125;100 mA
371.571127061873;-1.9403076171875;9.09999997702471;911;-0.0259613037109375;100 mA
371.581127061848;-1.9403076171875;9.10999997699946;912;-0.025958251953125;100 mA
371.591127061823;-1.94061279296875;9.11999997697421;913;-0.025958251953125;100 mA
371.601127061797;-1.94061279296875;9.12999997694897;914;-0.025958251953125;100 mA
371.611127061772;-1.94061279296875;9.13999997692372;915;-0.0259613037109375;100 mA
371.621127061747;-1.94061279296875;9.14999997689847;916;-0.0259613037109375;100 mA
371.631127061722;-1.94061279296875;9.15999997687322;917;-0.025958251953125;100 mA
371.641127061696;-1.94061279296875;9.16999997684798;918;-0.0259613037109375;100 mA
371.651127061671;-1.94061279296875;9.17999997682273;919;-0.0259613037109375;100 mA
371.661127061646;-1.94061279296875;9.18999997679748;920;-0.0259552001953125;100 mA
371.671127061621;-1.94061279296875;9.19999997677223;921;-0.025958251953125;100 mA
371.681127061595;-1.94061279296875;9.20999997674699;922;-0.0259613037109375;100 mA
371.69112706157;-1.94061279296875;9.21999997672174;923;-0.025958251953125;100 mA
371.701127061545;-1.94061279296875;9.22999997669649;924;-0.025958251953125;100 mA
371.71112706152;-1.94061279296875;9.23999997667124;925;-0.0259552001953125;100 mA
371.721127061494;-1.94061279296875;9.249999976646;926;-0.0259552001953125;100 mA
371.731127061469;-1.94061279296875;9.25999997662075;927;-0.025958251953125;100 mA
371.741127061444;-1.94091796875;9.2699999765955;928;-0.0259613037109375;100 mA
371.751127061419;-1.94091796875;9.27999997657025;929;-0.025958251953125;100 mA
371.761127061393;-1.94091796875;9.289999976545;930;-0.0259552001953125;100 mA
371.771127061368;-1.94091796875;9.29999997651976;931;-0.0259613037109375;100 mA
371.781127061343;-1.94091796875;9.30999997649451;932;-0.025958251953125;100 mA
371.791127061318;-1.94091796875;9.31999997646926;933;-0.025958251953125;100 mA
371.801127061292;-1.94091796875;9.32999997644401;934;-0.025958251953125;100 mA
371.811127061267;-1.94091796875;9.33999997641877;935;-0.025958251953125;100 mA
371.821127061242;-1.94091796875;9.34999997639352;936;-0.0259613037109375;100 mA
371.831127061217;-1.94091796875;9.35999997636827;937;-0.0259552001953125;100 mA
371.841127061191;-1.94091796875;9.36999997634302;938;-0.0259552001953125;100 mA
371.851127061166;-1.94091796875;9.37999997631778;939;-0.025958251953125;100 mA
371.861127061141;-1.94122314453125;9.38999997629253;940;-0.0259613037109375;100 mA
371.871127061116;-1.94122314453125;9.39999997626728;941;-0.025958251953125;100 mA
371.88112706109;-1.94122314453125;9.40999997624203;942;-0.025958251953125;100 mA
371.891127061065;-1.94122314453125;9.41999997621679;943;-0.0259613037109375;100 mA
371.90112706104;-1.94122314453125;9.42999997619154;944;-0.0259613037109375;100 mA
371.911127061015;-1.94122314453125;9.43999997616629;945;-0.0259552001953125;100 mA
371.921127060989;-1.94122314453125;9.44999997614104;946;-0.02596435546875;100 mA
371.931127060964;-1.94122314453125;9.4599999761158;947;-0.0259552001953125;100 mA
371.941127060939;-1.94122314453125;9.46999997609055;948;-0.025958251953125;100 mA
371.951127060914;-1.94122314453125;9.4799999760653;949;-0.025958251953125;100 mA
371.961127060888;-1.94122314453125;9.48999997604005;950;-0.0259674072265625;100 mA
371.971127060863;-1.94122314453125;9.49999997601481;951;-0.0259674072265625;100 mA
371.981127060838;-1.94122314453125;9.50999997598956;952;-0.02596435546875;100 mA
371.991127060813;-1.94122314453125;9.51999997596431;953;-0.025958251953125;100 mA
372.001127060787;-1.94122314453125;9.52999997593906;954;-0.025958251953125;100 mA
372.011127060762;-1.9415283203125;9.53999997591382;955;-0.025958251953125;100 mA
372.021127060737;-1.9415283203125;9.54999997588857;956;-0.0259552001953125;100 mA
372.031127060712;-1.9415283203125;9.55999997586332;957;-0.0259552001953125;100 mA
372.041127060686;-1.9415283203125;9.56999997583807;958;-0.0259613037109375;100 mA
372.051127060661;-1.9415283203125;9.57999997581283;959;-0.025958251953125;100 mA
372.061127060636;-1.9415283203125;9.58999997578758;960;-0.025958251953125;100 mA
372.071127060611;-1.9415283203125;9.59999997576233;961;-0.025958251953125;100 mA
372.081127060585;-1.9415283203125;9.60999997573708;962;-0.0259613037109375;100 mA
372.09112706056;-1.9415283203125;9.61999997571183;963;-0.0259613037109375;100 mA
372.101127060535;-1.9415283203125;9.62999997568659;964;-0.0259613037109375;100 mA
372.11112706051;-1.9415283203125;9.63999997566134;965;-0.0259552001953125;100 mA
372.121127060484;-1.9415283203125;9.64999997563609;966;-0.025958251953125;100 mA
372.131127060459;-1.9415283203125;9.65999997561084;967;-0.025958251953125;100 mA
372.141127060434;-1.9415283203125;9.6699999755856;968;-0.025958251953125;100 mA
372.151127060409;-1.9415283203125;9.67999997556035;969;-0.0259613037109375;100 mA
372.161127060383;-1.9415283203125;9.6899999755351;970;-0.025958251953125;100 mA
372.171127060358;-1.94183349609375;9.69999997550985;971;-0.0259613037109375;100 mA
372.181127060333;-1.94183349609375;9.70999997548461;972;-0.0259613037109375;100 mA
372.191127060308;-1.94183349609375;9.71999997545936;973;-0.025958251953125;100 mA
372.201127060282;-1.94183349609375;9.72999997543411;974;-0.025958251953125;100 mA
372.211127060257;-1.94183349609375;9.73999997540886;975;-0.02596435546875;100 mA
372.221127060232;-1.94183349609375;9.74999997538362;976;-0.02596435546875;100 mA
372.231127060207;-1.94183349609375;9.75999997535837;977;-0.0259552001953125;100 mA
372.241127060181;-1.94183349609375;9.76999997533312;978;-0.0259613037109375;100 mA
372.251127060156;-1.94183349609375;9.77999997530787;979;-0.025958251953125;100 mA
372.261127060131;-1.94183349609375;9.78999997528263;980;-0.02596435546875;100 mA
372.271127060106;-1.94183349609375;9.79999997525738;981;-0.025958251953125;100 mA
372.281127060081;-1.94183349609375;9.80999997523213;982;-0.025958251953125;100 mA
372.291127060055;-1.94183349609375;9.81999997520688;983;-0.0259613037109375;100 mA
372.30112706003;-1.94183349609375;9.82999997518164;984;-0.02596435546875;100 mA
372.311127060005;-1.94183349609375;9.83999997515639;985;-0.025958251953125;100 mA
372.32112705998;-1.94183349609375;9.84999997513114;986;-0.025958251953125;100 mA
372.331127059954;-1.942138671875;9.85999997510589;987;-0.0259552001953125;100 mA
372.341127059929;-1.942138671875;9.86999997508065;988;-0.0259521484375;100 mA
372.351127059904;-1.942138671875;9.8799999750554;989;-0.0259613037109375;100 mA
372.361127059879;-1.942138671875;9.88999997503015;990;-0.0259613037109375;100 mA
372.371127059853;-1.942138671875;9.8999999750049;991;-0.0259552001953125;100 mA
372.381127059828;-1.942138671875;9.90999997497966;992;-0.025958251953125;100 mA
372.391127059803;-1.942138671875;9.91999997495441;993;-0.0259613037109375;100 mA
372.401127059778;-1.942138671875;9.92999997492916;994;-0.0259613037109375;100 mA
372.411127059752;-1.942138671875;9.93999997490391;995;-0.0259613037109375;100 mA
372.421127059727;-1.942138671875;9.94999997487866;996;-0.0259613037109375;100 mA
372.431127059702;-1.942138671875;9.95999997485342;997;-0.0259552001953125;100 mA
372.441127059677;-1.942138671875;9.96999997482817;998;-0.0259613037109375;100 mA
372.451127059651;-1.942138671875;9.97999997480292;999;-0.0259552001953125;100 mA
372.461127059626;-1.942138671875;9.98999997477767;1000;-0.025958251953125;100 mA
