Time (s);WE(1).Potential (V);Corrected time (s);Index;WE(1).Current (A);Current range
432.471187908115;-0.218170166015625;0;1;-0.0279815673828125;100 mA
432.48118790809;-0.2275390625;0.00999999997475243;2;-0.027978515625;100 mA
432.491187908065;-0.23443603515625;0.0199999999495049;3;-0.0279815673828125;100 mA
432.501187908039;-0.239990234375;0.0299999999242573;4;-0.0279754638671875;100 mA
432.511187908014;-0.24468994140625;0.0399999998990097;5;-0.027978515625;100 mA
432.521187907989;-0.248779296875;0.0499999998737621;6;-0.027978515625;100 mA
432.531187907964;-0.25244140625;0.0599999998485146;7;-0.0279815673828125;100 mA
432.541187907938;-0.2557373046875;0.069999999823267;8;-0.0279815673828125;100 mA
432.551187907913;-0.258758544921875;0.0799999997980194;9;-0.027978515625;100 mA
432.561187907888;-0.261566162109375;0.0899999997727718;10;-0.0279815673828125;100 mA
432.571187907863;-0.26416015625;0.0999999997475243;11;-0.0279815673828125;100 mA
432.581187907837;-0.2666015625;0.109999999722277;12;-0.027978515625;100 mA
432.591187907812;-0.268890380859375;0.119999999697029;13;-0.0279815673828125;100 mA
432.601187907787;-0.271087646484375;0.129999999671782;14;-0.0279815673828125;100 mA
432.611187907762;-0.27313232421875;0.139999999646534;15;-0.0279815673828125;100 mA
432.621187907736;-0.275115966796875;0.149999999621286;16;-0.0279815673828125;100 mA
432.631187907711;-0.27703857421875;0.159999999596039;17;-0.027978515625;100 mA
432.641187907686;-0.278839111328125;0.169999999570791;18;-0.027978515625;100 mA
432.651187907661;-0.28057861328125;0.179999999545544;19;-0.0279815673828125;100 mA
432.661187907636;-0.282257080078125;0.189999999520296;20;-0.0279815673828125;100 mA
432.67118790761;-0.28387451171875;0.199999999495049;21;-0.027984619140625;100 mA
432.681187907585;-0.28546142578125;0.209999999469801;22;-0.0279815673828125;100 mA
432.69118790756;-0.2869873046875;0.219999999444553;23;-0.027984619140625;100 mA
432.701187907535;-0.288482666015625;0.229999999419306;24;-0.027984619140625;100 mA
432.711187907509;-0.2899169921875;0.239999999394058;25;-0.027978515625;100 mA
432.721187907484;-0.29132080078125;0.249999999368811;26;-0.0279815673828125;100 mA
432.731187907459;-0.292724609375;0.259999999343563;27;-0.0279815673828125;100 mA
432.741187907434;-0.294036865234375;0.269999999318316;28;-0.027978515625;100 mA
432.751187907408;-0.29534912109375;0.279999999293068;29;-0.027978515625;100 mA
432.761187907383;-0.296630859375;0.28999999926782;30;-0.0279815673828125;100 mA
432.771187907358;-0.297882080078125;0.299999999242573;31;-0.0279815673828125;100 mA
432.781187907333;-0.299102783203125;0.309999999217325;32;-0.0279815673828125;100 mA
432.791187907307;-0.30029296875;0.319999999192078;33;-0.0279754638671875;100 mA
432.801187907282;-0.301483154296875;0.32999999916683;34;-0.027978515625;100 mA
432.811187907257;-0.302642822265625;0.339999999141583;35;-0.027984619140625;100 mA
432.821187907232;-0.30377197265625;0.349999999116335;36;-0.0279754638671875;100 mA
432.831187907206;-0.304931640625;0.359999999091087;37;-0.0279815673828125;100 mA
432.841187907181;-0.305999755859375;0.36999999906584;38;-0.0279815673828125;100 mA
432.851187907156;-0.307098388671875;0.379999999040592;39;-0.027978515625;100 mA
432.861187907131;-0.30816650390625;0.389999999015345;40;-0.027984619140625;100 mA
432.871187907105;-0.309234619140625;0.399999998990097;41;-0.027978515625;100 mA
432.88118790708;-0.310272216796875;0.40999999896485;42;-0.0279876708984375;100 mA
432.891187907055;-0.311279296875;0.419999998939602;43;-0.0279815673828125;100 mA
432.90118790703;-0.31231689453125;0.429999998914354;44;-0.027978515625;100 mA
432.911187907004;-0.313323974609375;0.439999998889107;45;-0.027978515625;100 mA
432.921187906979;-0.314300537109375;0.449999998863859;46;-0.027978515625;100 mA
432.931187906954;-0.315277099609375;0.459999998838612;47;-0.0279815673828125;100 mA
432.941187906929;-0.31622314453125;0.469999998813364;48;-0.027978515625;100 mA
432.951187906903;-0.31719970703125;0.479999998788116;49;-0.0279815673828125;100 mA
432.961187906878;-0.318145751953125;0.489999998762869;50;-0.0279815673828125;100 mA
432.971187906853;-0.319061279296875;0.499999998737621;51;-0.027984619140625;100 mA
432.981187906828;-0.32000732421875;0.509999998712374;52;-0.0279815673828125;100 mA
432.991187906802;-0.320892333984375;0.519999998687126;53;-0.027978515625;100 mA
433.001187906777;-0.321807861328125;0.529999998661879;54;-0.0279754638671875;100 mA
433.011187906752;-0.322723388671875;0.539999998636631;55;-0.027978515625;100 mA
433.021187906727;-0.3236083984375;0.549999998611383;56;-0.027978515625;100 mA
433.031187906701;-0.324493408203125;0.559999998586136;57;-0.027978515625;100 mA
433.041187906676;-0.325347900390625;0.569999998560888;58;-0.0279815673828125;100 mA
433.051187906651;-0.32623291015625;0.579999998535641;59;-0.027978515625;100 mA
433.061187906626;-0.32708740234375;0.589999998510393;60;-0.027984619140625;100 mA
433.0711879066;-0.32794189453125;0.599999998485146;61;-0.027978515625;100 mA
433.081187906575;-0.32879638671875;0.609999998459898;62;-0.027978515625;100 mA
433.09118790655;-0.329620361328125;0.61999999843465;63;-0.027978515625;100 mA
433.101187906525;-0.330474853515625;0.629999998409403;64;-0.0279815673828125;100 mA
433.111187906499;-0.331298828125;0.639999998384155;65;-0.027978515625;100 mA
433.121187906474;-0.332122802734375;0.649999998358908;66;-0.0279815673828125;100 mA
433.131187906449;-0.33294677734375;0.65999999833366;67;-0.0279815673828125;100 mA
433.141187906424;-0.333740234375;0.669999998308413;68;-0.027978515625;100 mA
433.151187906398;-0.334564208984375;0.679999998283165;69;-0.027984619140625;100 mA
433.161187906373;-0.335357666015625;0.689999998257917;70;-0.027978515625;100 mA
433.171187906348;-0.336151123046875;0.69999999823267;71;-0.027984619140625;100 mA
433.181187906323;-0.33697509765625;0.709999998207422;72;-0.0279876708984375;100 mA
433.191187906297;-0.337738037109375;0.719999998182175;73;-0.0279815673828125;100 mA
433.201187906272;-0.33856201171875;0.729999998156927;74;-0.027978515625;100 mA
433.211187906247;-0.339324951171875;0.73999999813168;75;-0.027978515625;100 mA
433.221187906222;-0.340118408203125;0.749999998106432;76;-0.0279754638671875;100 mA
433.231187906196;-0.340911865234375;0.759999998081184;77;-0.027978515625;100 mA
433.241187906171;-0.3416748046875;0.769999998055937;78;-0.027978515625;100 mA
433.251187906146;-0.342437744140625;0.779999998030689;79;-0.0279815673828125;100 mA
433.261187906121;-0.34320068359375;0.789999998005442;80;-0.027978515625;100 mA
433.271187906095;-0.34393310546875;0.799999997980194;81;-0.027978515625;100 mA
433.28118790607;-0.3447265625;0.809999997954947;82;-0.0279815673828125;100 mA
433.291187906045;-0.345458984375;0.819999997929699;83;-0.027978515625;100 mA
433.30118790602;-0.346221923828125;0.829999997904451;84;-0.0279754638671875;100 mA
433.311187905994;-0.34698486328125;0.839999997879204;85;-0.027984619140625;100 mA
433.321187905969;-0.34771728515625;0.849999997853956;86;-0.027978515625;100 mA
433.331187905944;-0.3485107421875;0.859999997828709;87;-0.0279815673828125;100 mA
433.341187905919;-0.349212646484375;0.869999997803461;88;-0.027978515625;100 mA
433.351187905893;-0.3499755859375;0.879999997778214;89;-0.0279815673828125;100 mA
433.361187905868;-0.350738525390625;0.889999997752966;90;-0.027978515625;100 mA
433.371187905843;-0.351470947265625;0.899999997727718;91;-0.0279815673828125;100 mA
433.381187905818;-0.35223388671875;0.909999997702471;92;-0.0279876708984375;100 mA
433.391187905792;-0.352935791015625;0.919999997677223;93;-0.0279754638671875;100 mA
433.401187905767;-0.35369873046875;0.929999997651976;94;-0.027984619140625;100 mA
433.411187905742;-0.35443115234375;0.939999997626728;95;-0.027972412109375;100 mA
433.421187905717;-0.35516357421875;0.949999997601481;96;-0.027978515625;100 mA
433.431187905691;-0.35589599609375;0.959999997576233;97;-0.0279876708984375;100 mA
433.441187905666;-0.35662841796875;0.969999997550985;98;-0.0279754638671875;100 mA
433.451187905641;-0.35736083984375;0.979999997525738;99;-0.027978515625;100 mA
433.461187905616;-0.35809326171875;0.98999999750049;100;-0.0279754638671875;100 mA
433.47118790559;-0.358795166015625;0.999999997475243;101;-0.0279754638671875;100 mA
433.481187905565;-0.359527587890625;1.00999999745;102;-0.0279754638671875;100 mA
433.49118790554;-0.360260009765625;1.01999999742475;103;-0.0279754638671875;100 mA
433.501187905515;-0.360992431640625;1.0299999973995;104;-0.027984619140625;100 mA
433.511187905489;-0.3616943359375;1.03999999737425;105;-0.027978515625;100 mA
433.521187905464;-0.3624267578125;1.049999997349;106;-0.0279754638671875;100 mA
433.531187905439;-0.3631591796875;1.05999999732376;107;-0.0279815673828125;100 mA
433.541187905414;-0.363861083984375;1.06999999729851;108;-0.027978515625;100 mA
433.551187905388;-0.3646240234375;1.07999999727326;109;-0.0279815673828125;100 mA
433.561187905363;-0.365325927734375;1.08999999724801;110;-0.0279754638671875;100 mA
433.571187905338;-0.36602783203125;1.09999999722277;111;-0.027984619140625;100 mA
433.581187905313;-0.366790771484375;1.10999999719752;112;-0.027984619140625;100 mA
433.591187905287;-0.36749267578125;1.11999999717227;113;-0.027984619140625;100 mA
433.601187905262;-0.36822509765625;1.12999999714702;114;-0.027978515625;100 mA
433.611187905237;-0.36895751953125;1.13999999712178;115;-0.027978515625;100 mA
433.621187905212;-0.369659423828125;1.14999999709653;116;-0.027978515625;100 mA
433.631187905186;-0.370391845703125;1.15999999707128;117;-0.027978515625;100 mA
433.641187905161;-0.371124267578125;1.16999999704603;118;-0.0279754638671875;100 mA
433.651187905136;-0.371856689453125;1.17999999702079;119;-0.0279815673828125;100 mA
433.661187905111;-0.372589111328125;1.18999999699554;120;-0.0279815673828125;100 mA
433.671187905086;-0.373291015625;1.19999999697029;121;-0.0279815673828125;100 mA
433.68118790506;-0.374053955078125;1.20999999694504;122;-0.027984619140625;100 mA
433.691187905035;-0.374755859375;1.2199999969198;123;-0.027978515625;100 mA
433.70118790501;-0.37548828125;1.22999999689455;124;-0.0279815673828125;100 mA
433.711187904985;-0.376220703125;1.2399999968693;125;-0.027978515625;100 mA
433.721187904959;-0.376922607421875;1.24999999684405;126;-0.0279754638671875;100 mA
433.731187904934;-0.377685546875;1.25999999681881;127;-0.0279815673828125;100 mA
433.741187904909;-0.378387451171875;1.26999999679356;128;-0.027978515625;100 mA
433.751187904884;-0.379150390625;1.27999999676831;129;-0.027984619140625;100 mA
433.761187904858;-0.3798828125;1.28999999674306;130;-0.0279815673828125;100 mA
433.771187904833;-0.380615234375;1.29999999671782;131;-0.0279815673828125;100 mA
433.781187904808;-0.38134765625;1.30999999669257;132;-0.027978515625;100 mA
433.791187904783;-0.382080078125;1.31999999666732;133;-0.0279815673828125;100 mA
433.801187904757;-0.382843017578125;1.32999999664207;134;-0.027978515625;100 mA
433.811187904732;-0.383575439453125;1.33999999661683;135;-0.027984619140625;100 mA
433.821187904707;-0.384307861328125;1.34999999659158;136;-0.027978515625;100 mA
433.831187904682;-0.38507080078125;1.35999999656633;137;-0.0279754638671875;100 mA
433.841187904656;-0.38580322265625;1.36999999654108;138;-0.027978515625;100 mA
433.851187904631;-0.386566162109375;1.37999999651583;139;-0.0279815673828125;100 mA
433.861187904606;-0.3873291015625;1.38999999649059;140;-0.0279815673828125;100 mA
433.871187904581;-0.3880615234375;1.39999999646534;141;-0.027978515625;100 mA
433.881187904555;-0.38885498046875;1.40999999644009;142;-0.027984619140625;100 mA
433.89118790453;-0.38958740234375;1.41999999641484;143;-0.027984619140625;100 mA
433.901187904505;-0.390350341796875;1.4299999963896;144;-0.0279815673828125;100 mA
433.91118790448;-0.39111328125;1.43999999636435;145;-0.027984619140625;100 mA
433.921187904454;-0.391876220703125;1.4499999963391;146;-0.027978515625;100 mA
433.931187904429;-0.392669677734375;1.45999999631385;147;-0.0279876708984375;100 mA
433.941187904404;-0.393402099609375;1.46999999628861;148;-0.027978515625;100 mA
433.951187904379;-0.394195556640625;1.47999999626336;149;-0.0279815673828125;100 mA
433.961187904353;-0.394989013671875;1.48999999623811;150;-0.027978515625;100 mA
433.971187904328;-0.395751953125;1.49999999621286;151;-0.0279754638671875;100 mA
433.981187904303;-0.39654541015625;1.50999999618762;152;-0.027984619140625;100 mA
433.991187904278;-0.3973388671875;1.51999999616237;153;-0.0279815673828125;100 mA
434.001187904252;-0.39813232421875;1.52999999613712;154;-0.027978515625;100 mA
434.011187904227;-0.39892578125;1.53999999611187;155;-0.0279754638671875;100 mA
434.021187904202;-0.39971923828125;1.54999999608663;156;-0.0279815673828125;100 mA
434.031187904177;-0.400543212890625;1.55999999606138;157;-0.0279754638671875;100 mA
434.041187904151;-0.401336669921875;1.56999999603613;158;-0.0279754638671875;100 mA
434.051187904126;-0.40216064453125;1.57999999601088;159;-0.0279815673828125;100 mA
434.061187904101;-0.402984619140625;1.58999999598564;160;-0.0279815673828125;100 mA
434.071187904076;-0.403778076171875;1.59999999596039;161;-0.0279815673828125;100 mA
434.08118790405;-0.404632568359375;1.60999999593514;162;-0.0279754638671875;100 mA
434.091187904025;-0.405426025390625;1.61999999590989;163;-0.027978515625;100 mA
434.101187904;-0.40625;1.62999999588465;164;-0.0279815673828125;100 mA
434.111187903975;-0.407073974609375;1.6399999958594;165;-0.0279754638671875;100 mA
434.121187903949;-0.407928466796875;1.64999999583415;166;-0.0279815673828125;100 mA
434.131187903924;-0.408782958984375;1.6599999958089;167;-0.0279815673828125;100 mA
434.141187903899;-0.40960693359375;1.66999999578366;168;-0.0279754638671875;100 mA
434.151187903874;-0.410491943359375;1.67999999575841;169;-0.0279754638671875;100 mA
434.161187903848;-0.411346435546875;1.68999999573316;170;-0.0279815673828125;100 mA
434.171187903823;-0.412200927734375;1.69999999570791;171;-0.0279754638671875;100 mA
434.181187903798;-0.4130859375;1.70999999568267;172;-0.027978515625;100 mA
434.191187903773;-0.413970947265625;1.71999999565742;173;-0.0279815673828125;100 mA
434.201187903747;-0.41485595703125;1.72999999563217;174;-0.0279815673828125;100 mA
434.211187903722;-0.415740966796875;1.73999999560692;175;-0.0279815673828125;100 mA
434.221187903697;-0.4166259765625;1.74999999558167;176;-0.0279815673828125;100 mA
434.231187903672;-0.41754150390625;1.75999999555643;177;-0.0279754638671875;100 mA
434.241187903646;-0.41845703125;1.76999999553118;178;-0.0279815673828125;100 mA
434.251187903621;-0.41937255859375;1.77999999550593;179;-0.0279754638671875;100 mA
434.261187903596;-0.420318603515625;1.78999999548068;180;-0.0279815673828125;100 mA
434.271187903571;-0.421234130859375;1.79999999545544;181;-0.0279815673828125;100 mA
434.281187903545;-0.42218017578125;1.80999999543019;182;-0.0279754638671875;100 mA
434.29118790352;-0.423095703125;1.81999999540494;183;-0.027978515625;100 mA
434.301187903495;-0.424072265625;1.82999999537969;184;-0.0279815673828125;100 mA
434.31118790347;-0.425018310546875;1.83999999535445;185;-0.027978515625;100 mA
434.321187903444;-0.425994873046875;1.8499999953292;186;-0.0279815673828125;100 mA
434.331187903419;-0.427001953125;1.85999999530395;187;-0.0279815673828125;100 mA
434.341187903394;-0.427978515625;1.8699999952787;188;-0.0279815673828125;100 mA
434.351187903369;-0.428985595703125;1.87999999525346;189;-0.0279815673828125;100 mA
434.361187903343;-0.42999267578125;1.88999999522821;190;-0.027978515625;100 mA
434.371187903318;-0.430999755859375;1.89999999520296;191;-0.027984619140625;100 mA
434.381187903293;-0.432037353515625;1.90999999517771;192;-0.02799072265625;100 mA
434.391187903268;-0.43304443359375;1.91999999515247;193;-0.027984619140625;100 mA
434.401187903242;-0.434112548828125;1.92999999512722;194;-0.0279754638671875;100 mA
434.411187903217;-0.4351806640625;1.93999999510197;195;-0.027978515625;100 mA
434.421187903192;-0.436248779296875;1.94999999507672;196;-0.027978515625;100 mA
434.431187903167;-0.437347412109375;1.95999999505148;197;-0.027978515625;100 mA
434.441187903141;-0.43841552734375;1.96999999502623;198;-0.027978515625;100 mA
434.451187903116;-0.439544677734375;1.97999999500098;199;-0.027978515625;100 mA
434.461187903091;-0.440673828125;1.98999999497573;200;-0.027978515625;100 mA
434.471187903066;-0.441802978515625;1.99999999495049;201;-0.0279754638671875;100 mA
434.48118790304;-0.442962646484375;2.00999999492524;202;-0.0279754638671875;100 mA
434.491187903015;-0.444091796875;2.01999999489999;203;-0.027978515625;100 mA
434.50118790299;-0.445281982421875;2.02999999487474;204;-0.027978515625;100 mA
434.511187902965;-0.44647216796875;2.0399999948495;205;-0.0279754638671875;100 mA
434.521187902939;-0.447662353515625;2.04999999482425;206;-0.0279815673828125;100 mA
434.531187902914;-0.44891357421875;2.059999994799;207;-0.0279754638671875;100 mA
434.541187902889;-0.45013427734375;2.06999999477375;208;-0.0279815673828125;100 mA
434.551187902864;-0.451416015625;2.0799999947485;209;-0.027972412109375;100 mA
434.561187902838;-0.452667236328125;2.08999999472326;210;-0.027978515625;100 mA
434.571187902813;-0.453948974609375;2.09999999469801;211;-0.027984619140625;100 mA
434.581187902788;-0.455291748046875;2.10999999467276;212;-0.0279754638671875;100 mA
434.591187902763;-0.45660400390625;2.11999999464751;213;-0.0279815673828125;100 mA
434.601187902737;-0.457977294921875;2.12999999462227;214;-0.027978515625;100 mA
434.611187902712;-0.4593505859375;2.13999999459702;215;-0.027978515625;100 mA
434.621187902687;-0.460723876953125;2.14999999457177;216;-0.027978515625;100 mA
434.631187902662;-0.462158203125;2.15999999454652;217;-0.027978515625;100 mA
434.641187902636;-0.463592529296875;2.16999999452128;218;-0.027978515625;100 mA
434.651187902611;-0.465087890625;2.17999999449603;219;-0.0279815673828125;100 mA
434.661187902586;-0.466552734375;2.18999999447078;220;-0.027984619140625;100 mA
434.671187902561;-0.46807861328125;2.19999999444553;221;-0.027978515625;100 mA
434.681187902535;-0.469635009765625;2.20999999442029;222;-0.0279754638671875;100 mA
434.69118790251;-0.47119140625;2.21999999439504;223;-0.027978515625;100 mA
434.701187902485;-0.472808837890625;2.22999999436979;224;-0.027978515625;100 mA
434.71118790246;-0.474456787109375;2.23999999434454;225;-0.027978515625;100 mA
434.721187902435;-0.47613525390625;2.2499999943193;226;-0.027978515625;100 mA
434.731187902409;-0.47784423828125;2.25999999429405;227;-0.0279754638671875;100 mA
434.741187902384;-0.479583740234375;2.2699999942688;228;-0.0279815673828125;100 mA
434.751187902359;-0.48138427734375;2.27999999424355;229;-0.0279815673828125;100 mA
434.761187902334;-0.48321533203125;2.28999999421831;230;-0.027978515625;100 mA
434.771187902308;-0.485076904296875;2.29999999419306;231;-0.0279815673828125;100 mA
434.781187902283;-0.48699951171875;2.30999999416781;232;-0.027978515625;100 mA
434.791187902258;-0.48895263671875;2.31999999414256;233;-0.027972412109375;100 mA
434.801187902233;-0.490966796875;2.32999999411732;234;-0.027978515625;100 mA
434.811187902207;-0.4930419921875;2.33999999409207;235;-0.0279815673828125;100 mA
434.821187902182;-0.495147705078125;2.34999999406682;236;-0.027978515625;100 mA
434.831187902157;-0.497344970703125;2.35999999404157;237;-0.0279815673828125;100 mA
434.841187902132;-0.49957275390625;2.36999999401633;238;-0.0279754638671875;100 mA
434.851187902106;-0.501708984375;2.37999999399108;239;-0.0279815673828125;100 mA
434.861187902081;-0.504150390625;2.38999999396583;240;-0.027978515625;100 mA
434.871187902056;-0.506591796875;2.39999999394058;241;-0.027978515625;100 mA
434.881187902031;-0.509033203125;2.40999999391533;242;-0.027972412109375;100 mA
434.891187902005;-0.51177978515625;2.41999999389009;243;-0.027978515625;100 mA
434.90118790198;-0.5145263671875;2.42999999386484;244;-0.027978515625;100 mA
434.911187901955;-0.51727294921875;2.43999999383959;245;-0.0279754638671875;100 mA
434.92118790193;-0.52001953125;2.44999999381434;246;-0.027972412109375;100 mA
434.931187901904;-0.5230712890625;2.4599999937891;247;-0.0279754638671875;100 mA
434.941187901879;-0.526123046875;2.46999999376385;248;-0.0279815673828125;100 mA
434.951187901854;-0.5291748046875;2.4799999937386;249;-0.0279754638671875;100 mA
434.961187901829;-0.53253173828125;2.48999999371335;250;-0.027978515625;100 mA
434.971187901803;-0.535888671875;2.49999999368811;251;-0.027978515625;100 mA
434.981187901778;-0.53955078125;2.50999999366286;252;-0.027978515625;100 mA
434.991187901753;-0.543212890625;2.51999999363761;253;-0.027978515625;100 mA
435.001187901728;-0.54718017578125;2.52999999361236;254;-0.027978515625;100 mA
435.011187901702;-0.5511474609375;2.53999999358712;255;-0.027978515625;100 mA
435.021187901677;-0.555419921875;2.54999999356187;256;-0.0279754638671875;100 mA
435.031187901652;-0.55999755859375;2.55999999353662;257;-0.0279754638671875;100 mA
435.041187901627;-0.5645751953125;2.56999999351137;258;-0.027972412109375;100 mA
435.051187901601;-0.56915283203125;2.57999999348613;259;-0.0279754638671875;100 mA
435.061187901576;-0.5743408203125;2.58999999346088;260;-0.027972412109375;100 mA
435.071187901551;-0.57952880859375;2.59999999343563;261;-0.0279754638671875;100 mA
435.081187901526;-0.58502197265625;2.60999999341038;262;-0.027972412109375;100 mA
435.0911879015;-0.5908203125;2.61999999338514;263;-0.0279754638671875;100 mA
435.101187901475;-0.596923828125;2.62999999335989;264;-0.0279754638671875;100 mA
435.11118790145;-0.60302734375;2.63999999333464;265;-0.027972412109375;100 mA
435.121187901425;-0.60943603515625;2.64999999330939;266;-0.027978515625;100 mA
435.131187901399;-0.61614990234375;2.65999999328415;267;-0.027978515625;100 mA
435.141187901374;-0.6231689453125;2.6699999932589;268;-0.027978515625;100 mA
435.151187901349;-0.6304931640625;2.67999999323365;269;-0.0279754638671875;100 mA
435.161187901324;-0.63812255859375;2.6899999932084;270;-0.027972412109375;100 mA
435.171187901298;-0.645751953125;2.69999999318316;271;-0.0279754638671875;100 mA
435.181187901273;-0.6536865234375;2.70999999315791;272;-0.027978515625;100 mA
435.191187901248;-0.66162109375;2.71999999313266;273;-0.0279754638671875;100 mA
435.201187901223;-0.670166015625;2.72999999310741;274;-0.0279754638671875;100 mA
435.211187901197;-0.6787109375;2.73999999308217;275;-0.0279754638671875;100 mA
435.221187901172;-0.687255859375;2.74999999305692;276;-0.0279754638671875;100 mA
435.231187901147;-0.69610595703125;2.75999999303167;277;-0.027972412109375;100 mA
435.241187901122;-0.7049560546875;2.76999999300642;278;-0.0279754638671875;100 mA
435.251187901096;-0.714111328125;2.77999999298117;279;-0.027972412109375;100 mA
435.261187901071;-0.7232666015625;2.78999999295593;280;-0.0279754638671875;100 mA
435.271187901046;-0.73272705078125;2.79999999293068;281;-0.027972412109375;100 mA
435.281187901021;-0.7421875;2.80999999290543;282;-0.0279754638671875;100 mA
435.291187900995;-0.75164794921875;2.81999999288018;283;-0.0279754638671875;100 mA
435.30118790097;-0.76141357421875;2.82999999285494;284;-0.0279693603515625;100 mA
435.311187900945;-0.7708740234375;2.83999999282969;285;-0.027972412109375;100 mA
435.32118790092;-0.7806396484375;2.84999999280444;286;-0.0279693603515625;100 mA
435.331187900894;-0.7904052734375;2.85999999277919;287;-0.027978515625;100 mA
435.341187900869;-0.80047607421875;2.86999999275395;288;-0.0279693603515625;100 mA
435.351187900844;-0.810546875;2.8799999927287;289;-0.027972412109375;100 mA
435.361187900819;-0.82061767578125;2.88999999270345;290;-0.027972412109375;100 mA
435.371187900793;-0.8306884765625;2.8999999926782;291;-0.027972412109375;100 mA
435.381187900768;-0.84075927734375;2.90999999265296;292;-0.0279754638671875;100 mA
435.391187900743;-0.85113525390625;2.91999999262771;293;-0.0279693603515625;100 mA
435.401187900718;-0.86151123046875;2.92999999260246;294;-0.027972412109375;100 mA
435.411187900692;-0.87188720703125;2.93999999257721;295;-0.027972412109375;100 mA
435.421187900667;-0.88226318359375;2.94999999255197;296;-0.0279693603515625;100 mA
435.431187900642;-0.89263916015625;2.95999999252672;297;-0.027972412109375;100 mA
435.441187900617;-0.90301513671875;2.96999999250147;298;-0.0279754638671875;100 mA
435.451187900591;-0.91339111328125;2.97999999247622;299;-0.027978515625;100 mA
435.461187900566;-0.924072265625;2.98999999245098;300;-0.027978515625;100 mA
435.471187900541;-0.9344482421875;2.99999999242573;301;-0.0279693603515625;100 mA
435.481187900516;-0.94482421875;3.00999999240048;302;-0.0279754638671875;100 mA
435.49118790049;-0.95550537109375;3.01999999237523;303;-0.0279693603515625;100 mA
435.501187900465;-0.96588134765625;3.02999999234999;304;-0.0279754638671875;100 mA
435.51118790044;-0.9765625;3.03999999232474;305;-0.027972412109375;100 mA
435.521187900415;-0.9869384765625;3.04999999229949;306;-0.027972412109375;100 mA
435.531187900389;-0.99761962890625;3.05999999227424;307;-0.0279754638671875;100 mA
435.541187900364;-1.00799560546875;3.069999992249;308;-0.027972412109375;100 mA
435.551187900339;-1.01837158203125;3.07999999222375;309;-0.027972412109375;100 mA
435.561187900314;-1.029052734375;3.0899999921985;310;-0.027972412109375;100 mA
435.571187900288;-1.0394287109375;3.09999999217325;311;-0.0279754638671875;100 mA
435.581187900263;-1.0498046875;3.109999992148;312;-0.027972412109375;100 mA
435.591187900238;-1.0601806640625;3.11999999212276;313;-0.027972412109375;100 mA
435.601187900213;-1.07025146484375;3.12999999209751;314;-0.027972412109375;100 mA
435.611187900187;-1.08062744140625;3.13999999207226;315;-0.0279693603515625;100 mA
435.621187900162;-1.0906982421875;3.14999999204701;316;-0.0279693603515625;100 mA
435.631187900137;-1.1004638671875;3.15999999202177;317;-0.0279632568359375;100 mA
435.641187900112;-1.11053466796875;3.16999999199652;318;-0.02796630859375;100 mA
435.651187900086;-1.12060546875;3.17999999197127;319;-0.0279693603515625;100 mA
435.661187900061;-1.13037109375;3.18999999194602;320;-0.0279693603515625;100 mA
435.671187900036;-1.14013671875;3.19999999192078;321;-0.0279693603515625;100 mA
435.681187900011;-1.14990234375;3.20999999189553;322;-0.02796630859375;100 mA
435.691187899985;-1.15936279296875;3.21999999187028;323;-0.02796630859375;100 mA
435.70118789996;-1.1688232421875;3.22999999184503;324;-0.02796630859375;100 mA
435.711187899935;-1.17828369140625;3.23999999181979;325;-0.02796630859375;100 mA
435.72118789991;-1.18743896484375;3.24999999179454;326;-0.0279693603515625;100 mA
435.731187899885;-1.19659423828125;3.25999999176929;327;-0.0279693603515625;100 mA
435.741187899859;-1.2054443359375;3.26999999174404;328;-0.02796630859375;100 mA
435.751187899834;-1.214599609375;3.2799999917188;329;-0.0279754638671875;100 mA
435.761187899809;-1.22314453125;3.28999999169355;330;-0.0279693603515625;100 mA
435.771187899784;-1.23199462890625;3.2999999916683;331;-0.0279693603515625;100 mA
435.781187899758;-1.24053955078125;3.30999999164305;332;-0.0279693603515625;100 mA
435.791187899733;-1.248779296875;3.31999999161781;333;-0.0279693603515625;100 mA
435.801187899708;-1.25732421875;3.32999999159256;334;-0.0279632568359375;100 mA
435.811187899683;-1.2652587890625;3.33999999156731;335;-0.02796630859375;100 mA
435.821187899657;-1.27349853515625;3.34999999154206;336;-0.0279693603515625;100 mA
435.831187899632;-1.28143310546875;3.35999999151682;337;-0.0279693603515625;100 mA
435.841187899607;-1.28936767578125;3.36999999149157;338;-0.0279693603515625;100 mA
435.851187899582;-1.29730224609375;3.37999999146632;339;-0.0279693603515625;100 mA
435.861187899556;-1.304931640625;3.38999999144107;340;-0.02796630859375;100 mA
435.871187899531;-1.31256103515625;3.39999999141583;341;-0.02796630859375;100 mA
435.881187899506;-1.31988525390625;3.40999999139058;342;-0.0279693603515625;100 mA
435.891187899481;-1.3275146484375;3.41999999136533;343;-0.027972412109375;100 mA
435.901187899455;-1.3348388671875;3.42999999134008;344;-0.0279693603515625;100 mA
435.91118789943;-1.34185791015625;3.43999999131483;345;-0.02796630859375;100 mA
435.921187899405;-1.348876953125;3.44999999128959;346;-0.0279693603515625;100 mA
435.93118789938;-1.35589599609375;3.45999999126434;347;-0.02796630859375;100 mA
435.941187899354;-1.3629150390625;3.46999999123909;348;-0.02796630859375;100 mA
435.951187899329;-1.36962890625;3.47999999121384;349;-0.0279693603515625;100 mA
435.961187899304;-1.3763427734375;3.4899999911886;350;-0.02796630859375;100 mA
435.971187899279;-1.383056640625;3.49999999116335;351;-0.0279693603515625;100 mA
435.981187899253;-1.3897705078125;3.5099999911381;352;-0.0279693603515625;100 mA
435.991187899228;-1.39617919921875;3.51999999111285;353;-0.027960205078125;100 mA
436.001187899203;-1.402587890625;3.52999999108761;354;-0.0279693603515625;100 mA
436.011187899178;-1.40869140625;3.53999999106236;355;-0.0279693603515625;100 mA
436.021187899152;-1.41510009765625;3.54999999103711;356;-0.02796630859375;100 mA
436.031187899127;-1.42120361328125;3.55999999101186;357;-0.0279693603515625;100 mA
436.041187899102;-1.42730712890625;3.56999999098662;358;-0.0279632568359375;100 mA
436.051187899077;-1.43341064453125;3.57999999096137;359;-0.0279632568359375;100 mA
436.061187899051;-1.43951416015625;3.58999999093612;360;-0.0279693603515625;100 mA
436.071187899026;-1.44561767578125;3.59999999091087;361;-0.02796630859375;100 mA
436.081187899001;-1.451416015625;3.60999999088563;362;-0.0279693603515625;100 mA
436.091187898976;-1.45721435546875;3.61999999086038;363;-0.02796630859375;100 mA
436.10118789895;-1.4630126953125;3.62999999083513;364;-0.02796630859375;100 mA
436.111187898925;-1.46881103515625;3.63999999080988;365;-0.0279632568359375;100 mA
436.1211878989;-1.474609375;3.64999999078464;366;-0.02796630859375;100 mA
436.131187898875;-1.4801025390625;3.65999999075939;367;-0.02796630859375;100 mA
436.141187898849;-1.48590087890625;3.66999999073414;368;-0.027972412109375;100 mA
436.151187898824;-1.49139404296875;3.67999999070889;369;-0.02796630859375;100 mA
436.161187898799;-1.49688720703125;3.68999999068365;370;-0.02796630859375;100 mA
436.171187898774;-1.50238037109375;3.6999999906584;371;-0.0279693603515625;100 mA
436.181187898748;-1.50787353515625;3.70999999063315;372;-0.0279632568359375;100 mA
436.191187898723;-1.5130615234375;3.7199999906079;373;-0.027960205078125;100 mA
436.201187898698;-1.5185546875;3.72999999058266;374;-0.0279632568359375;100 mA
436.211187898673;-1.5240478515625;3.73999999055741;375;-0.0279632568359375;100 mA
436.221187898647;-1.52923583984375;3.74999999053216;376;-0.02796630859375;100 mA
436.231187898622;-1.534423828125;3.75999999050691;377;-0.027960205078125;100 mA
436.241187898597;-1.53961181640625;3.76999999048167;378;-0.027960205078125;100 mA
436.251187898572;-1.5447998046875;3.77999999045642;379;-0.0279632568359375;100 mA
436.261187898546;-1.54998779296875;3.78999999043117;380;-0.027960205078125;100 mA
436.271187898521;-1.55517578125;3.79999999040592;381;-0.027960205078125;100 mA
436.281187898496;-1.56036376953125;3.80999999038067;382;-0.027960205078125;100 mA
436.291187898471;-1.5655517578125;3.81999999035543;383;-0.0279632568359375;100 mA
436.301187898445;-1.5704345703125;3.82999999033018;384;-0.0279632568359375;100 mA
436.31118789842;-1.57562255859375;3.83999999030493;385;-0.02796630859375;100 mA
436.321187898395;-1.580810546875;3.84999999027968;386;-0.0279632568359375;100 mA
436.33118789837;-1.585693359375;3.85999999025444;387;-0.02796630859375;100 mA
436.341187898344;-1.59088134765625;3.86999999022919;388;-0.027960205078125;100 mA
436.351187898319;-1.59576416015625;3.87999999020394;389;-0.02796630859375;100 mA
436.361187898294;-1.60064697265625;3.88999999017869;390;-0.02796630859375;100 mA
436.371187898269;-1.6058349609375;3.89999999015345;391;-0.0279632568359375;100 mA
436.381187898243;-1.6107177734375;3.9099999901282;392;-0.0279632568359375;100 mA
436.391187898218;-1.6156005859375;3.91999999010295;393;-0.0279541015625;100 mA
436.401187898193;-1.6204833984375;3.9299999900777;394;-0.0279632568359375;100 mA
436.411187898168;-1.6253662109375;3.93999999005246;395;-0.02796630859375;100 mA
436.421187898142;-1.6302490234375;3.94999999002721;396;-0.0279571533203125;100 mA
436.431187898117;-1.6351318359375;3.95999999000196;397;-0.0279693603515625;100 mA
436.441187898092;-1.63970947265625;3.96999998997671;398;-0.0279632568359375;100 mA
436.451187898067;-1.64459228515625;3.97999998995147;399;-0.0279632568359375;100 mA
436.461187898041;-1.649169921875;3.98999998992622;400;-0.027960205078125;100 mA
436.471187898016;-1.65374755859375;3.99999998990097;401;-0.0279693603515625;100 mA
436.481187897991;-1.6583251953125;4.00999998987572;402;-0.0279571533203125;100 mA
436.491187897966;-1.66290283203125;4.01999998985048;403;-0.027960205078125;100 mA
436.50118789794;-1.66748046875;4.02999998982523;404;-0.0279571533203125;100 mA
436.511187897915;-1.67205810546875;4.03999998979998;405;-0.027960205078125;100 mA
436.52118789789;-1.67633056640625;4.04999998977473;406;-0.0279571533203125;100 mA
436.531187897865;-1.68060302734375;4.05999998974949;407;-0.027960205078125;100 mA
436.541187897839;-1.68487548828125;4.06999998972424;408;-0.027960205078125;100 mA
436.551187897814;-1.68914794921875;4.07999998969899;409;-0.0279571533203125;100 mA
436.561187897789;-1.69342041015625;4.08999998967374;410;-0.027960205078125;100 mA
436.571187897764;-1.6973876953125;4.0999999896485;411;-0.0279632568359375;100 mA
436.581187897738;-1.70135498046875;4.10999998962325;412;-0.0279632568359375;100 mA
436.591187897713;-1.705322265625;4.119999989598;413;-0.0279632568359375;100 mA
436.601187897688;-1.70928955078125;4.12999998957275;414;-0.027960205078125;100 mA
436.611187897663;-1.7132568359375;4.1399999895475;415;-0.027960205078125;100 mA
436.621187897637;-1.7169189453125;4.14999998952226;416;-0.0279632568359375;100 mA
436.631187897612;-1.7205810546875;4.15999998949701;417;-0.02796630859375;100 mA
436.641187897587;-1.7242431640625;4.16999998947176;418;-0.0279541015625;100 mA
436.651187897562;-1.7279052734375;4.17999998944651;419;-0.0279571533203125;100 mA
436.661187897536;-1.73126220703125;4.18999998942127;420;-0.0279632568359375;100 mA
436.671187897511;-1.73492431640625;4.19999998939602;421;-0.0279571533203125;100 mA
436.681187897486;-1.73828125;4.20999998937077;422;-0.0279632568359375;100 mA
436.691187897461;-1.74163818359375;4.21999998934552;423;-0.027960205078125;100 mA
436.701187897435;-1.7449951171875;4.22999998932028;424;-0.0279632568359375;100 mA
436.71118789741;-1.74835205078125;4.23999998929503;425;-0.0279632568359375;100 mA
436.721187897385;-1.75140380859375;4.24999998926978;426;-0.0279632568359375;100 mA
436.73118789736;-1.75445556640625;4.25999998924453;427;-0.027960205078125;100 mA
436.741187897334;-1.75750732421875;4.26999998921929;428;-0.027960205078125;100 mA
436.751187897309;-1.76025390625;4.27999998919404;429;-0.027960205078125;100 mA
436.761187897284;-1.76300048828125;4.28999998916879;430;-0.0279571533203125;100 mA
436.771187897259;-1.7657470703125;4.29999998914354;431;-0.0279571533203125;100 mA
436.781187897234;-1.768798828125;4.3099999891183;432;-0.0279632568359375;100 mA
436.791187897208;-1.77154541015625;4.31999998909305;433;-0.027960205078125;100 mA
436.801187897183;-1.77398681640625;4.3299999890678;434;-0.0279632568359375;100 mA
436.811187897158;-1.77703857421875;4.33999998904255;435;-0.027960205078125;100 mA
436.821187897133;-1.77978515625;4.34999998901731;436;-0.027960205078125;100 mA
436.831187897107;-1.7822265625;4.35999998899206;437;-0.0279541015625;100 mA
436.841187897082;-1.78466796875;4.36999998896681;438;-0.027960205078125;100 mA
436.851187897057;-1.78741455078125;4.37999998894156;439;-0.0279571533203125;100 mA
436.861187897032;-1.78985595703125;4.38999998891632;440;-0.0279571533203125;100 mA
436.871187897006;-1.79229736328125;4.39999998889107;441;-0.0279571533203125;100 mA
436.881187896981;-1.79473876953125;4.40999998886582;442;-0.0279571533203125;100 mA
436.891187896956;-1.796875;4.41999998884057;443;-0.0279571533203125;100 mA
436.901187896931;-1.79931640625;4.42999998881533;444;-0.0279632568359375;100 mA
436.911187896905;-1.80145263671875;4.43999998879008;445;-0.0279632568359375;100 mA
436.92118789688;-1.8035888671875;4.44999998876483;446;-0.0279632568359375;100 mA
436.931187896855;-1.80572509765625;4.45999998873958;447;-0.0279571533203125;100 mA
436.94118789683;-1.807861328125;4.46999998871433;448;-0.0279541015625;100 mA
436.951187896804;-1.80999755859375;4.47999998868909;449;-0.027960205078125;100 mA
436.961187896779;-1.8121337890625;4.48999998866384;450;-0.0279632568359375;100 mA
436.971187896754;-1.81396484375;4.49999998863859;451;-0.027960205078125;100 mA
436.981187896729;-1.81610107421875;4.50999998861334;452;-0.0279541015625;100 mA
436.991187896703;-1.81793212890625;4.5199999885881;453;-0.0279571533203125;100 mA
437.001187896678;-1.820068359375;4.52999998856285;454;-0.0279571533203125;100 mA
437.011187896653;-1.8218994140625;4.5399999885376;455;-0.0279632568359375;100 mA
437.021187896628;-1.82373046875;4.54999998851235;456;-0.0279571533203125;100 mA
437.031187896602;-1.82586669921875;4.55999998848711;457;-0.027960205078125;100 mA
437.041187896577;-1.82769775390625;4.56999998846186;458;-0.027960205078125;100 mA
437.051187896552;-1.82952880859375;4.57999998843661;459;-0.0279571533203125;100 mA
437.061187896527;-1.83135986328125;4.58999998841136;460;-0.027960205078125;100 mA
437.071187896501;-1.8328857421875;4.59999998838612;461;-0.0279571533203125;100 mA
437.081187896476;-1.834716796875;4.60999998836087;462;-0.0279541015625;100 mA
437.091187896451;-1.83624267578125;4.61999998833562;463;-0.027960205078125;100 mA
437.101187896426;-1.83807373046875;4.62999998831037;464;-0.027960205078125;100 mA
437.1111878964;-1.839599609375;4.63999998828513;465;-0.027960205078125;100 mA
437.121187896375;-1.8414306640625;4.64999998825988;466;-0.0279571533203125;100 mA
437.13118789635;-1.84295654296875;4.65999998823463;467;-0.0279541015625;100 mA
437.141187896325;-1.844482421875;4.66999998820938;468;-0.027960205078125;100 mA
437.151187896299;-1.84600830078125;4.67999998818414;469;-0.0279571533203125;100 mA
437.161187896274;-1.8475341796875;4.68999998815889;470;-0.0279571533203125;100 mA
437.171187896249;-1.8487548828125;4.69999998813364;471;-0.027960205078125;100 mA
437.181187896224;-1.85028076171875;4.70999998810839;472;-0.0279571533203125;100 mA
437.191187896198;-1.85150146484375;4.71999998808315;473;-0.0279571533203125;100 mA
437.201187896173;-1.85302734375;4.7299999880579;474;-0.0279632568359375;100 mA
437.211187896148;-1.854248046875;4.73999998803265;475;-0.027960205078125;100 mA
437.221187896123;-1.85577392578125;4.7499999880074;476;-0.027960205078125;100 mA
437.231187896097;-1.85699462890625;4.75999998798216;477;-0.027960205078125;100 mA
437.241187896072;-1.85821533203125;4.76999998795691;478;-0.0279510498046875;100 mA
437.251187896047;-1.85943603515625;4.77999998793166;479;-0.0279541015625;100 mA
437.261187896022;-1.8609619140625;4.78999998790641;480;-0.0279632568359375;100 mA
437.271187895996;-1.8621826171875;4.79999998788116;481;-0.0279571533203125;100 mA
437.281187895971;-1.8634033203125;4.80999998785592;482;-0.0279571533203125;100 mA
437.291187895946;-1.8646240234375;4.81999998783067;483;-0.0279571533203125;100 mA
437.301187895921;-1.8658447265625;4.82999998780542;484;-0.0279571533203125;100 mA
437.311187895895;-1.86676025390625;4.83999998778017;485;-0.027960205078125;100 mA
437.32118789587;-1.86798095703125;4.84999998775493;486;-0.0279510498046875;100 mA
437.331187895845;-1.86920166015625;4.85999998772968;487;-0.0279571533203125;100 mA
437.34118789582;-1.87042236328125;4.86999998770443;488;-0.0279632568359375;100 mA
437.351187895794;-1.87164306640625;4.87999998767918;489;-0.0279541015625;100 mA
437.361187895769;-1.87255859375;4.88999998765394;490;-0.0279571533203125;100 mA
437.371187895744;-1.87347412109375;4.89999998762869;491;-0.027960205078125;100 mA
437.381187895719;-1.87469482421875;4.90999998760344;492;-0.0279541015625;100 mA
437.391187895693;-1.8756103515625;4.91999998757819;493;-0.0279571533203125;100 mA
437.401187895668;-1.8768310546875;4.92999998755295;494;-0.0279571533203125;100 mA
437.411187895643;-1.87774658203125;4.9399999875277;495;-0.027960205078125;100 mA
437.421187895618;-1.878662109375;4.94999998750245;496;-0.0279632568359375;100 mA
437.431187895592;-1.87957763671875;4.9599999874772;497;-0.0279632568359375;100 mA
437.441187895567;-1.8804931640625;4.96999998745196;498;-0.027960205078125;100 mA
437.451187895542;-1.88140869140625;4.97999998742671;499;-0.0279632568359375;100 mA
437.461187895517;-1.88232421875;4.98999998740146;500;-0.0279571533203125;100 mA
437.471187895491;-1.88323974609375;4.99999998737621;501;-0.0279632568359375;100 mA
437.481187895466;-1.8841552734375;5.00999998735097;502;-0.0279571533203125;100 mA
437.491187895441;-1.884765625;5.01999998732572;503;-0.027960205078125;100 mA
437.501187895416;-1.88568115234375;5.02999998730047;504;-0.0279571533203125;100 mA
437.51118789539;-1.8865966796875;5.03999998727522;505;-0.0279571533203125;100 mA
437.521187895365;-1.88720703125;5.04999998724998;506;-0.0279571533203125;100 mA
437.53118789534;-1.88812255859375;5.05999998722473;507;-0.0279510498046875;100 mA
437.541187895315;-1.88873291015625;5.06999998719948;508;-0.0279541015625;100 mA
437.551187895289;-1.8896484375;5.07999998717423;509;-0.0279632568359375;100 mA
437.561187895264;-1.8902587890625;5.08999998714899;510;-0.0279571533203125;100 mA
437.571187895239;-1.89117431640625;5.09999998712374;511;-0.027960205078125;100 mA
437.581187895214;-1.89178466796875;5.10999998709849;512;-0.0279541015625;100 mA
437.591187895188;-1.89239501953125;5.11999998707324;513;-0.0279632568359375;100 mA
437.601187895163;-1.89300537109375;5.129999987048;514;-0.0279571533203125;100 mA
437.611187895138;-1.8939208984375;5.13999998702275;515;-0.027960205078125;100 mA
437.621187895113;-1.89453125;5.1499999869975;516;-0.0279571533203125;100 mA
437.631187895087;-1.8951416015625;5.15999998697225;517;-0.0279541015625;100 mA
437.641187895062;-1.895751953125;5.169999986947;518;-0.0279571533203125;100 mA
437.651187895037;-1.8963623046875;5.17999998692176;519;-0.027960205078125;100 mA
437.661187895012;-1.89697265625;5.18999998689651;520;-0.027960205078125;100 mA
437.671187894986;-1.8975830078125;5.19999998687126;521;-0.0279571533203125;100 mA
437.681187894961;-1.898193359375;5.20999998684601;522;-0.0279571533203125;100 mA
437.691187894936;-1.8988037109375;5.21999998682077;523;-0.027960205078125;100 mA
437.701187894911;-1.8994140625;5.22999998679552;524;-0.0279571533203125;100 mA
437.711187894885;-1.9000244140625;5.23999998677027;525;-0.027960205078125;100 mA
437.72118789486;-1.900634765625;5.24999998674502;526;-0.0279571533203125;100 mA
437.731187894835;-1.9012451171875;5.25999998671978;527;-0.0279571533203125;100 mA
437.74118789481;-1.90185546875;5.26999998669453;528;-0.0279541015625;100 mA
437.751187894784;-1.9024658203125;5.27999998666928;529;-0.0279541015625;100 mA
437.761187894759;-1.903076171875;5.28999998664403;530;-0.027960205078125;100 mA
437.771187894734;-1.90338134765625;5.29999998661879;531;-0.0279571533203125;100 mA
437.781187894709;-1.90399169921875;5.30999998659354;532;-0.027960205078125;100 mA
437.791187894684;-1.90460205078125;5.31999998656829;533;-0.027960205078125;100 mA
437.801187894658;-1.9049072265625;5.32999998654304;534;-0.027960205078125;100 mA
437.811187894633;-1.905517578125;5.3399999865178;535;-0.0279541015625;100 mA
437.821187894608;-1.9061279296875;5.34999998649255;536;-0.0279541015625;100 mA
437.831187894583;-1.90643310546875;5.3599999864673;537;-0.027960205078125;100 mA
437.841187894557;-1.90704345703125;5.36999998644205;538;-0.0279571533203125;100 mA
437.851187894532;-1.9073486328125;5.37999998641681;539;-0.0279632568359375;100 mA
437.861187894507;-1.907958984375;5.38999998639156;540;-0.027960205078125;100 mA
437.871187894482;-1.90826416015625;5.39999998636631;541;-0.0279571533203125;100 mA
437.881187894456;-1.90887451171875;5.40999998634106;542;-0.0279541015625;100 mA
437.891187894431;-1.9091796875;5.41999998631582;543;-0.0279541015625;100 mA
437.901187894406;-1.9097900390625;5.42999998629057;544;-0.027960205078125;100 mA
437.911187894381;-1.91009521484375;5.43999998626532;545;-0.0279632568359375;100 mA
437.921187894355;-1.91070556640625;5.44999998624007;546;-0.027960205078125;100 mA
437.93118789433;-1.9110107421875;5.45999998621483;547;-0.0279571533203125;100 mA
437.941187894305;-1.91162109375;5.46999998618958;548;-0.027960205078125;100 mA
437.95118789428;-1.91192626953125;5.47999998616433;549;-0.0279632568359375;100 mA
437.961187894254;-1.9122314453125;5.48999998613908;550;-0.0279541015625;100 mA
437.971187894229;-1.91253662109375;5.49999998611383;551;-0.0279571533203125;100 mA
437.981187894204;-1.91314697265625;5.50999998608859;552;-0.0279632568359375;100 mA
437.991187894179;-1.9134521484375;5.51999998606334;553;-0.027960205078125;100 mA
438.001187894153;-1.91375732421875;5.52999998603809;554;-0.027960205078125;100 mA
438.011187894128;-1.91436767578125;5.53999998601284;555;-0.0279541015625;100 mA
438.021187894103;-1.9146728515625;5.5499999859876;556;-0.0279571533203125;100 mA
438.031187894078;-1.91497802734375;5.55999998596235;557;-0.0279571533203125;100 mA
438.041187894052;-1.915283203125;5.5699999859371;558;-0.027960205078125;100 mA
438.051187894027;-1.91558837890625;5.57999998591185;559;-0.027960205078125;100 mA
438.061187894002;-1.9158935546875;5.58999998588661;560;-0.027960205078125;100 mA
438.071187893977;-1.91619873046875;5.59999998586136;561;-0.0279541015625;100 mA
438.081187893951;-1.91650390625;5.60999998583611;562;-0.0279632568359375;100 mA
438.091187893926;-1.91680908203125;5.61999998581086;563;-0.027960205078125;100 mA
438.101187893901;-1.9171142578125;5.62999998578562;564;-0.0279571533203125;100 mA
438.111187893876;-1.917724609375;5.63999998576037;565;-0.0279571533203125;100 mA
438.12118789385;-1.917724609375;5.64999998573512;566;-0.0279541015625;100 mA
438.131187893825;-1.9183349609375;5.65999998570987;567;-0.0279510498046875;100 mA
438.1411878938;-1.9183349609375;5.66999998568463;568;-0.0279571533203125;100 mA
438.151187893775;-1.91864013671875;5.67999998565938;569;-0.0279541015625;100 mA
438.161187893749;-1.9189453125;5.68999998563413;570;-0.027960205078125;100 mA
438.171187893724;-1.91925048828125;5.69999998560888;571;-0.0279571533203125;100 mA
438.181187893699;-1.9195556640625;5.70999998558364;572;-0.0279571533203125;100 mA
438.191187893674;-1.91986083984375;5.71999998555839;573;-0.027960205078125;100 mA
438.201187893648;-1.920166015625;5.72999998553314;574;-0.027960205078125;100 mA
438.211187893623;-1.92047119140625;5.73999998550789;575;-0.027960205078125;100 mA
438.221187893598;-1.92047119140625;5.74999998548265;576;-0.0279541015625;100 mA
438.231187893573;-1.9207763671875;5.7599999854574;577;-0.0279541015625;100 mA
438.241187893547;-1.92108154296875;5.76999998543215;578;-0.0279541015625;100 mA
438.251187893522;-1.92138671875;5.7799999854069;579;-0.027960205078125;100 mA
438.261187893497;-1.92169189453125;5.78999998538166;580;-0.0279541015625;100 mA
438.271187893472;-1.92169189453125;5.79999998535641;581;-0.0279632568359375;100 mA
438.281187893446;-1.9219970703125;5.80999998533116;582;-0.027960205078125;100 mA
438.291187893421;-1.92230224609375;5.81999998530591;583;-0.0279541015625;100 mA
438.301187893396;-1.922607421875;5.82999998528066;584;-0.0279571533203125;100 mA
438.311187893371;-1.922607421875;5.83999998525542;585;-0.0279571533203125;100 mA
438.321187893345;-1.92291259765625;5.84999998523017;586;-0.0279571533203125;100 mA
438.33118789332;-1.9232177734375;5.85999998520492;587;-0.0279541015625;100 mA
438.341187893295;-1.92352294921875;5.86999998517967;588;-0.027960205078125;100 mA
438.35118789327;-1.92352294921875;5.87999998515443;589;-0.027960205078125;100 mA
438.361187893244;-1.923828125;5.88999998512918;590;-0.0279541015625;100 mA
438.371187893219;-1.92413330078125;5.89999998510393;591;-0.0279571533203125;100 mA
438.381187893194;-1.92413330078125;5.90999998507868;592;-0.027960205078125;100 mA
438.391187893169;-1.9244384765625;5.91999998505344;593;-0.0279541015625;100 mA
438.401187893143;-1.92474365234375;5.92999998502819;594;-0.0279541015625;100 mA
438.411187893118;-1.92474365234375;5.93999998500294;595;-0.027960205078125;100 mA
438.421187893093;-1.925048828125;5.94999998497769;596;-0.0279571533203125;100 mA
438.431187893068;-1.92535400390625;5.95999998495245;597;-0.0279571533203125;100 mA
438.441187893042;-1.92535400390625;5.9699999849272;598;-0.027960205078125;100 mA
438.451187893017;-1.9256591796875;5.97999998490195;599;-0.0279571533203125;100 mA
438.461187892992;-1.9256591796875;5.9899999848767;600;-0.027960205078125;100 mA
438.471187892967;-1.92596435546875;5.99999998485146;601;-0.0279571533203125;100 mA
438.481187892941;-1.92626953125;6.00999998482621;602;-0.0279571533203125;100 mA
438.491187892916;-1.92626953125;6.01999998480096;603;-0.0279571533203125;100 mA
438.501187892891;-1.92657470703125;6.02999998477571;604;-0.0279571533203125;100 mA
438.511187892866;-1.92657470703125;6.03999998475047;605;-0.0279541015625;100 mA
438.52118789284;-1.9268798828125;6.04999998472522;606;-0.0279571533203125;100 mA
438.531187892815;-1.9268798828125;6.05999998469997;607;-0.027960205078125;100 mA
438.54118789279;-1.92718505859375;6.06999998467472;608;-0.0279571533203125;100 mA
438.551187892765;-1.927490234375;6.07999998464948;609;-0.0279541015625;100 mA
438.561187892739;-1.927490234375;6.08999998462423;610;-0.0279541015625;100 mA
438.571187892714;-1.92779541015625;6.09999998459898;611;-0.0279541015625;100 mA
438.581187892689;-1.92779541015625;6.10999998457373;612;-0.0279571533203125;100 mA
438.591187892664;-1.9281005859375;6.11999998454849;613;-0.027960205078125;100 mA
438.601187892638;-1.9281005859375;6.12999998452324;614;-0.0279571533203125;100 mA
438.611187892613;-1.92840576171875;6.13999998449799;615;-0.027960205078125;100 mA
438.621187892588;-1.92840576171875;6.14999998447274;616;-0.0279571533203125;100 mA
438.631187892563;-1.9287109375;6.1599999844475;617;-0.0279571533203125;100 mA
438.641187892537;-1.9287109375;6.16999998442225;618;-0.027960205078125;100 mA
438.651187892512;-1.92901611328125;6.179999984397;619;-0.0279632568359375;100 mA
438.661187892487;-1.92901611328125;6.18999998437175;620;-0.0279632568359375;100 mA
438.671187892462;-1.9293212890625;6.1999999843465;621;-0.0279571533203125;100 mA
438.681187892436;-1.9293212890625;6.20999998432126;622;-0.027960205078125;100 mA
438.691187892411;-1.92962646484375;6.21999998429601;623;-0.0279571533203125;100 mA
438.701187892386;-1.92962646484375;6.22999998427076;624;-0.027960205078125;100 mA
438.711187892361;-1.92962646484375;6.23999998424551;625;-0.027947998046875;100 mA
438.721187892335;-1.929931640625;6.24999998422027;626;-0.0279541015625;100 mA
438.73118789231;-1.929931640625;6.25999998419502;627;-0.0279571533203125;100 mA
438.741187892285;-1.93023681640625;6.26999998416977;628;-0.0279510498046875;100 mA
438.75118789226;-1.93023681640625;6.27999998414452;629;-0.0279571533203125;100 mA
438.761187892234;-1.9305419921875;6.28999998411928;630;-0.0279571533203125;100 mA
438.771187892209;-1.9305419921875;6.29999998409403;631;-0.0279571533203125;100 mA
438.781187892184;-1.93084716796875;6.30999998406878;632;-0.0279571533203125;100 mA
438.791187892159;-1.93084716796875;6.31999998404353;633;-0.0279571533203125;100 mA
438.801187892133;-1.93084716796875;6.32999998401829;634;-0.0279571533203125;100 mA
438.811187892108;-1.93115234375;6.33999998399304;635;-0.0279571533203125;100 mA
438.821187892083;-1.93115234375;6.34999998396779;636;-0.027960205078125;100 mA
438.831187892058;-1.93145751953125;6.35999998394254;637;-0.027960205078125;100 mA
438.841187892033;-1.93145751953125;6.3699999839173;638;-0.027960205078125;100 mA
438.851187892007;-1.93145751953125;6.37999998389205;639;-0.02796630859375;100 mA
438.861187891982;-1.9317626953125;6.3899999838668;640;-0.0279571533203125;100 mA
438.871187891957;-1.9317626953125;6.39999998384155;641;-0.0279571533203125;100 mA
438.881187891932;-1.93206787109375;6.40999998381631;642;-0.0279541015625;100 mA
438.891187891906;-1.93206787109375;6.41999998379106;643;-0.0279571533203125;100 mA
438.901187891881;-1.93206787109375;6.42999998376581;644;-0.0279571533203125;100 mA
438.911187891856;-1.932373046875;6.43999998374056;645;-0.0279541015625;100 mA
438.921187891831;-1.932373046875;6.44999998371532;646;-0.0279510498046875;100 mA
438.931187891805;-1.932373046875;6.45999998369007;647;-0.0279541015625;100 mA
438.94118789178;-1.93267822265625;6.46999998366482;648;-0.0279541015625;100 mA
438.951187891755;-1.93267822265625;6.47999998363957;649;-0.0279571533203125;100 mA
438.96118789173;-1.9329833984375;6.48999998361433;650;-0.0279571533203125;100 mA
438.971187891704;-1.9329833984375;6.49999998358908;651;-0.0279571533203125;100 mA
438.981187891679;-1.9329833984375;6.50999998356383;652;-0.0279541015625;100 mA
438.991187891654;-1.93328857421875;6.51999998353858;653;-0.0279571533203125;100 mA
439.001187891629;-1.93328857421875;6.52999998351333;654;-0.027960205078125;100 mA
439.011187891603;-1.93328857421875;6.53999998348809;655;-0.027960205078125;100 mA
439.021187891578;-1.93359375;6.54999998346284;656;-0.027960205078125;100 mA
439.031187891553;-1.93359375;6.55999998343759;657;-0.027960205078125;100 mA
439.041187891528;-1.93389892578125;6.56999998341234;658;-0.0279571533203125;100 mA
439.051187891502;-1.93389892578125;6.5799999833871;659;-0.0279541015625;100 mA
439.061187891477;-1.93389892578125;6.58999998336185;660;-0.0279510498046875;100 mA
439.071187891452;-1.93389892578125;6.5999999833366;661;-0.0279510498046875;100 mA
439.081187891427;-1.9342041015625;6.60999998331135;662;-0.0279541015625;100 mA
439.091187891401;-1.9342041015625;6.61999998328611;663;-0.027960205078125;100 mA
439.101187891376;-1.9342041015625;6.62999998326086;664;-0.0279571533203125;100 mA
439.111187891351;-1.93450927734375;6.63999998323561;665;-0.0279571533203125;100 mA
439.121187891326;-1.93450927734375;6.64999998321036;666;-0.0279571533203125;100 mA
439.1311878913;-1.93450927734375;6.65999998318512;667;-0.027960205078125;100 mA
439.141187891275;-1.93450927734375;6.66999998315987;668;-0.027960205078125;100 mA
439.15118789125;-1.934814453125;6.67999998313462;669;-0.0279571533203125;100 mA
439.161187891225;-1.934814453125;6.68999998310937;670;-0.0279571533203125;100 mA
439.171187891199;-1.934814453125;6.69999998308413;671;-0.0279571533203125;100 mA
439.181187891174;-1.93511962890625;6.70999998305888;672;-0.027960205078125;100 mA
439.191187891149;-1.93511962890625;6.71999998303363;673;-0.0279541015625;100 mA
439.201187891124;-1.93511962890625;6.72999998300838;674;-0.0279510498046875;100 mA
439.211187891098;-1.93511962890625;6.73999998298314;675;-0.0279510498046875;100 mA
439.221187891073;-1.9354248046875;6.74999998295789;676;-0.0279510498046875;100 mA
439.231187891048;-1.9354248046875;6.75999998293264;677;-0.027960205078125;100 mA
439.241187891023;-1.9354248046875;6.76999998290739;678;-0.0279571533203125;100 mA
439.251187890997;-1.93572998046875;6.77999998288215;679;-0.0279541015625;100 mA
439.261187890972;-1.93572998046875;6.7899999828569;680;-0.027960205078125;100 mA
439.271187890947;-1.93572998046875;6.79999998283165;681;-0.0279541015625;100 mA
439.281187890922;-1.93572998046875;6.8099999828064;682;-0.0279571533203125;100 mA
439.291187890896;-1.93603515625;6.81999998278116;683;-0.0279571533203125;100 mA
439.301187890871;-1.93603515625;6.82999998275591;684;-0.0279632568359375;100 mA
439.311187890846;-1.93603515625;6.83999998273066;685;-0.0279571533203125;100 mA
439.321187890821;-1.93603515625;6.84999998270541;686;-0.02796630859375;100 mA
439.331187890795;-1.93603515625;6.85999998268016;687;-0.0279541015625;100 mA
439.34118789077;-1.93634033203125;6.86999998265492;688;-0.027960205078125;100 mA
439.351187890745;-1.93634033203125;6.87999998262967;689;-0.0279541015625;100 mA
439.36118789072;-1.93634033203125;6.88999998260442;690;-0.0279571533203125;100 mA
439.371187890694;-1.93634033203125;6.89999998257917;691;-0.027960205078125;100 mA
439.381187890669;-1.9366455078125;6.90999998255393;692;-0.0279510498046875;100 mA
439.391187890644;-1.9366455078125;6.91999998252868;693;-0.0279541015625;100 mA
439.401187890619;-1.9366455078125;6.92999998250343;694;-0.0279571533203125;100 mA
439.411187890593;-1.9366455078125;6.93999998247818;695;-0.0279541015625;100 mA
439.421187890568;-1.9366455078125;6.94999998245294;696;-0.0279541015625;100 mA
439.431187890543;-1.93695068359375;6.95999998242769;697;-0.027960205078125;100 mA
439.441187890518;-1.93695068359375;6.96999998240244;698;-0.0279541015625;100 mA
439.451187890492;-1.93695068359375;6.97999998237719;699;-0.027960205078125;100 mA
439.461187890467;-1.93695068359375;6.98999998235195;700;-0.0279541015625;100 mA
439.471187890442;-1.93695068359375;6.9999999823267;701;-0.0279571533203125;100 mA
439.481187890417;-1.937255859375;7.00999998230145;702;-0.0279541015625;100 mA
439.491187890391;-1.937255859375;7.0199999822762;703;-0.027960205078125;100 mA
439.501187890366;-1.937255859375;7.02999998225096;704;-0.027960205078125;100 mA
439.511187890341;-1.937255859375;7.03999998222571;705;-0.0279571533203125;100 mA
439.521187890316;-1.937255859375;7.04999998220046;706;-0.0279693603515625;100 mA
439.53118789029;-1.93756103515625;7.05999998217521;707;-0.0279571533203125;100 mA
439.541187890265;-1.93756103515625;7.06999998214997;708;-0.0279571533203125;100 mA
439.55118789024;-1.93756103515625;7.07999998212472;709;-0.027960205078125;100 mA
439.561187890215;-1.93756103515625;7.08999998209947;710;-0.027960205078125;100 mA
439.571187890189;-1.93756103515625;7.09999998207422;711;-0.0279541015625;100 mA
439.581187890164;-1.93756103515625;7.10999998204898;712;-0.0279571533203125;100 mA
439.591187890139;-1.9378662109375;7.11999998202373;713;-0.0279632568359375;100 mA
439.601187890114;-1.9378662109375;7.12999998199848;714;-0.027960205078125;100 mA
439.611187890088;-1.9378662109375;7.13999998197323;715;-0.0279571533203125;100 mA
439.621187890063;-1.9378662109375;7.14999998194799;716;-0.0279541015625;100 mA
439.631187890038;-1.9378662109375;7.15999998192274;717;-0.027960205078125;100 mA
439.641187890013;-1.9378662109375;7.16999998189749;718;-0.0279571533203125;100 mA
439.651187889987;-1.93817138671875;7.17999998187224;719;-0.0279541015625;100 mA
439.661187889962;-1.93817138671875;7.189999981847;720;-0.0279571533203125;100 mA
439.671187889937;-1.93817138671875;7.19999998182175;721;-0.027960205078125;100 mA
439.681187889912;-1.93817138671875;7.2099999817965;722;-0.0279510498046875;100 mA
439.691187889886;-1.93817138671875;7.21999998177125;723;-0.027960205078125;100 mA
439.701187889861;-1.9384765625;7.229999981746;724;-0.0279541015625;100 mA
439.711187889836;-1.9384765625;7.23999998172076;725;-0.0279571533203125;100 mA
439.721187889811;-1.9384765625;7.24999998169551;726;-0.0279541015625;100 mA
439.731187889785;-1.9384765625;7.25999998167026;727;-0.0279571533203125;100 mA
439.74118788976;-1.9384765625;7.26999998164501;728;-0.0279571533203125;100 mA
439.751187889735;-1.9384765625;7.27999998161977;729;-0.0279541015625;100 mA
439.76118788971;-1.93878173828125;7.28999998159452;730;-0.02796630859375;100 mA
439.771187889684;-1.93878173828125;7.29999998156927;731;-0.027960205078125;100 mA
439.781187889659;-1.93878173828125;7.30999998154402;732;-0.027960205078125;100 mA
439.791187889634;-1.93878173828125;7.31999998151878;733;-0.027960205078125;100 mA
439.801187889609;-1.93878173828125;7.32999998149353;734;-0.027960205078125;100 mA
439.811187889583;-1.93878173828125;7.33999998146828;735;-0.027960205078125;100 mA
439.821187889558;-1.93878173828125;7.34999998144303;736;-0.0279571533203125;100 mA
439.831187889533;-1.9390869140625;7.35999998141779;737;-0.0279571533203125;100 mA
439.841187889508;-1.9390869140625;7.36999998139254;738;-0.027960205078125;100 mA
439.851187889483;-1.9390869140625;7.37999998136729;739;-0.0279571533203125;100 mA
439.861187889457;-1.9390869140625;7.38999998134204;740;-0.027960205078125;100 mA
439.871187889432;-1.9390869140625;7.3999999813168;741;-0.0279571533203125;100 mA
439.881187889407;-1.9390869140625;7.40999998129155;742;-0.0279571533203125;100 mA
439.891187889382;-1.9390869140625;7.4199999812663;743;-0.0279541015625;100 mA
439.901187889356;-1.9390869140625;7.42999998124105;744;-0.0279571533203125;100 mA
439.911187889331;-1.93939208984375;7.43999998121581;745;-0.0279571533203125;100 mA
439.921187889306;-1.93939208984375;7.44999998119056;746;-0.0279571533203125;100 mA
439.931187889281;-1.93939208984375;7.45999998116531;747;-0.027960205078125;100 mA
439.941187889255;-1.93939208984375;7.46999998114006;748;-0.0279571533203125;100 mA
439.95118788923;-1.93939208984375;7.47999998111482;749;-0.0279541015625;100 mA
439.961187889205;-1.93939208984375;7.48999998108957;750;-0.0279571533203125;100 mA
439.97118788918;-1.93939208984375;7.49999998106432;751;-0.0279571533203125;100 mA
439.981187889154;-1.939697265625;7.50999998103907;752;-0.027960205078125;100 mA
439.991187889129;-1.939697265625;7.51999998101383;753;-0.027960205078125;100 mA
440.001187889104;-1.939697265625;7.52999998098858;754;-0.0279571533203125;100 mA
440.011187889079;-1.939697265625;7.53999998096333;755;-0.0279541015625;100 mA
440.021187889053;-1.939697265625;7.54999998093808;756;-0.0279571533203125;100 mA
440.031187889028;-1.939697265625;7.55999998091283;757;-0.0279541015625;100 mA
440.041187889003;-1.939697265625;7.56999998088759;758;-0.0279541015625;100 mA
440.051187888978;-1.939697265625;7.57999998086234;759;-0.027947998046875;100 mA
440.061187888952;-1.94000244140625;7.58999998083709;760;-0.027960205078125;100 mA
440.071187888927;-1.94000244140625;7.59999998081184;761;-0.027960205078125;100 mA
440.081187888902;-1.94000244140625;7.6099999807866;762;-0.0279541015625;100 mA
440.091187888877;-1.94000244140625;7.61999998076135;763;-0.0279632568359375;100 mA
440.101187888851;-1.94000244140625;7.6299999807361;764;-0.0279571533203125;100 mA
440.111187888826;-1.94000244140625;7.63999998071085;765;-0.027960205078125;100 mA
440.121187888801;-1.94000244140625;7.64999998068561;766;-0.0279541015625;100 mA
440.131187888776;-1.94000244140625;7.65999998066036;767;-0.0279571533203125;100 mA
440.14118788875;-1.9403076171875;7.66999998063511;768;-0.027960205078125;100 mA
440.151187888725;-1.9403076171875;7.67999998060986;769;-0.0279541015625;100 mA
440.1611878887;-1.9403076171875;7.68999998058462;770;-0.0279541015625;100 mA
440.171187888675;-1.9403076171875;7.69999998055937;771;-0.0279571533203125;100 mA
440.181187888649;-1.9403076171875;7.70999998053412;772;-0.0279571533203125;100 mA
440.191187888624;-1.9403076171875;7.71999998050887;773;-0.0279541015625;100 mA
440.201187888599;-1.9403076171875;7.72999998048363;774;-0.0279571533203125;100 mA
440.211187888574;-1.9403076171875;7.73999998045838;775;-0.0279632568359375;100 mA
440.221187888548;-1.9403076171875;7.74999998043313;776;-0.0279541015625;100 mA
440.231187888523;-1.9403076171875;7.75999998040788;777;-0.0279541015625;100 mA
440.241187888498;-1.9403076171875;7.76999998038264;778;-0.027960205078125;100 mA
440.251187888473;-1.94061279296875;7.77999998035739;779;-0.0279541015625;100 mA
440.261187888447;-1.94061279296875;7.78999998033214;780;-0.0279571533203125;100 mA
440.271187888422;-1.94061279296875;7.79999998030689;781;-0.0279571533203125;100 mA
440.281187888397;-1.94061279296875;7.80999998028165;782;-0.0279571533203125;100 mA
440.291187888372;-1.94061279296875;7.8199999802564;783;-0.0279571533203125;100 mA
440.301187888346;-1.94061279296875;7.82999998023115;784;-0.0279571533203125;100 mA
440.311187888321;-1.94061279296875;7.8399999802059;785;-0.0279571533203125;100 mA
440.321187888296;-1.94061279296875;7.84999998018066;786;-0.0279541015625;100 mA
440.331187888271;-1.94091796875;7.85999998015541;787;-0.027960205078125;100 mA
440.341187888245;-1.94091796875;7.86999998013016;788;-0.0279571533203125;100 mA
440.35118788822;-1.94091796875;7.87999998010491;789;-0.0279541015625;100 mA
440.361187888195;-1.94091796875;7.88999998007966;790;-0.027960205078125;100 mA
440.37118788817;-1.94091796875;7.89999998005442;791;-0.0279571533203125;100 mA
440.381187888144;-1.94091796875;7.90999998002917;792;-0.0279541015625;100 mA
440.391187888119;-1.94091796875;7.91999998000392;793;-0.0279571533203125;100 mA
440.401187888094;-1.94091796875;7.92999997997867;794;-0.0279541015625;100 mA
440.411187888069;-1.94091796875;7.93999997995343;795;-0.0279571533203125;100 mA
440.421187888043;-1.94091796875;7.94999997992818;796;-0.0279510498046875;100 mA
440.431187888018;-1.94122314453125;7.95999997990293;797;-0.027960205078125;100 mA
440.441187887993;-1.94122314453125;7.96999997987768;798;-0.0279571533203125;100 mA
440.451187887968;-1.94122314453125;7.97999997985244;799;-0.0279541015625;100 mA
440.461187887942;-1.94122314453125;7.98999997982719;800;-0.0279571533203125;100 mA
440.471187887917;-1.94122314453125;7.99999997980194;801;-0.027960205078125;100 mA
440.481187887892;-1.94122314453125;8.00999997977669;802;-0.027960205078125;100 mA
440.491187887867;-1.94122314453125;8.01999997975145;803;-0.027960205078125;100 mA
440.501187887841;-1.94122314453125;8.0299999797262;804;-0.027960205078125;100 mA
440.511187887816;-1.94122314453125;8.03999997970095;805;-0.0279510498046875;100 mA
440.521187887791;-1.9415283203125;8.0499999796757;806;-0.0279541015625;100 mA
440.531187887766;-1.9415283203125;8.05999997965046;807;-0.0279571533203125;100 mA
440.54118788774;-1.9415283203125;8.06999997962521;808;-0.0279571533203125;100 mA
440.551187887715;-1.9415283203125;8.07999997959996;809;-0.0279571533203125;100 mA
440.56118788769;-1.9415283203125;8.08999997957471;810;-0.0279632568359375;100 mA
440.571187887665;-1.9415283203125;8.09999997954947;811;-0.0279632568359375;100 mA
440.581187887639;-1.9415283203125;8.10999997952422;812;-0.0279632568359375;100 mA
440.591187887614;-1.9415283203125;8.11999997949897;813;-0.0279541015625;100 mA
440.601187887589;-1.9415283203125;8.12999997947372;814;-0.0279571533203125;100 mA
440.611187887564;-1.9415283203125;8.13999997944848;815;-0.027960205078125;100 mA
440.621187887538;-1.9415283203125;8.14999997942323;816;-0.0279571533203125;100 mA
440.631187887513;-1.9415283203125;8.15999997939798;817;-0.0279541015625;100 mA
440.641187887488;-1.9415283203125;8.16999997937273;818;-0.0279541015625;100 mA
440.651187887463;-1.9415283203125;8.17999997934749;819;-0.0279571533203125;100 mA
440.661187887437;-1.94183349609375;8.18999997932224;820;-0.027960205078125;100 mA
440.671187887412;-1.94183349609375;8.19999997929699;821;-0.0279541015625;100 mA
440.681187887387;-1.94183349609375;8.20999997927174;822;-0.027960205078125;100 mA
440.691187887362;-1.94183349609375;8.2199999792465;823;-0.0279541015625;100 mA
440.701187887336;-1.94183349609375;8.22999997922125;824;-0.027960205078125;100 mA
440.711187887311;-1.94183349609375;8.239999979196;825;-0.0279541015625;100 mA
440.721187887286;-1.94183349609375;8.24999997917075;826;-0.0279571533203125;100 mA
440.731187887261;-1.94183349609375;8.2599999791455;827;-0.0279541015625;100 mA
440.741187887235;-1.94183349609375;8.26999997912026;828;-0.0279571533203125;100 mA
440.75118788721;-1.94183349609375;8.27999997909501;829;-0.0279541015625;100 mA
440.761187887185;-1.94183349609375;8.28999997906976;830;-0.0279571533203125;100 mA
440.77118788716;-1.94183349609375;8.29999997904451;831;-0.0279632568359375;100 mA
440.781187887134;-1.94183349609375;8.30999997901927;832;-0.027960205078125;100 mA
440.791187887109;-1.94183349609375;8.31999997899402;833;-0.027960205078125;100 mA
440.801187887084;-1.94183349609375;8.32999997896877;834;-0.0279571533203125;100 mA
440.811187887059;-1.94183349609375;8.33999997894352;835;-0.0279510498046875;100 mA
440.821187887033;-1.942138671875;8.34999997891828;836;-0.0279541015625;100 mA
440.831187887008;-1.942138671875;8.35999997889303;837;-0.027960205078125;100 mA
440.841187886983;-1.942138671875;8.36999997886778;838;-0.0279571533203125;100 mA
440.851187886958;-1.942138671875;8.37999997884253;839;-0.0279632568359375;100 mA
440.861187886932;-1.942138671875;8.38999997881729;840;-0.0279571533203125;100 mA
440.871187886907;-1.942138671875;8.39999997879204;841;-0.027960205078125;100 mA
440.881187886882;-1.942138671875;8.40999997876679;842;-0.0279571533203125;100 mA
440.891187886857;-1.942138671875;8.41999997874154;843;-0.0279541015625;100 mA
440.901187886832;-1.942138671875;8.4299999787163;844;-0.0279571533203125;100 mA
440.911187886806;-1.942138671875;8.43999997869105;845;-0.0279541015625;100 mA
440.921187886781;-1.942138671875;8.4499999786658;846;-0.027960205078125;100 mA
440.931187886756;-1.942138671875;8.45999997864055;847;-0.0279541015625;100 mA
440.941187886731;-1.942138671875;8.46999997861531;848;-0.027960205078125;100 mA
440.951187886705;-1.942138671875;8.47999997859006;849;-0.027960205078125;100 mA
440.96118788668;-1.942138671875;8.48999997856481;850;-0.0279541015625;100 mA
440.971187886655;-1.942138671875;8.49999997853956;851;-0.027960205078125;100 mA
440.98118788663;-1.942138671875;8.50999997851432;852;-0.027947998046875;100 mA
440.991187886604;-1.94244384765625;8.51999997848907;853;-0.0279571533203125;100 mA
441.001187886579;-1.942138671875;8.52999997846382;854;-0.027960205078125;100 mA
441.011187886554;-1.94244384765625;8.53999997843857;855;-0.0279571533203125;100 mA
441.021187886529;-1.94244384765625;8.54999997841333;856;-0.0279632568359375;100 mA
441.031187886503;-1.94244384765625;8.55999997838808;857;-0.0279571533203125;100 mA
441.041187886478;-1.94244384765625;8.56999997836283;858;-0.0279541015625;100 mA
441.051187886453;-1.94244384765625;8.57999997833758;859;-0.0279541015625;100 mA
441.061187886428;-1.94244384765625;8.58999997831233;860;-0.0279571533203125;100 mA
441.071187886402;-1.94244384765625;8.59999997828709;861;-0.0279541015625;100 mA
441.081187886377;-1.94244384765625;8.60999997826184;862;-0.027960205078125;100 mA
441.091187886352;-1.94244384765625;8.61999997823659;863;-0.0279541015625;100 mA
441.101187886327;-1.94244384765625;8.62999997821134;864;-0.027960205078125;100 mA
441.111187886301;-1.94244384765625;8.6399999781861;865;-0.0279571533203125;100 mA
441.121187886276;-1.94244384765625;8.64999997816085;866;-0.0279571533203125;100 mA
441.131187886251;-1.94244384765625;8.6599999781356;867;-0.0279541015625;100 mA
441.141187886226;-1.94244384765625;8.66999997811035;868;-0.0279571533203125;100 mA
441.1511878862;-1.94244384765625;8.67999997808511;869;-0.0279541015625;100 mA
441.161187886175;-1.94244384765625;8.68999997805986;870;-0.0279571533203125;100 mA
441.17118788615;-1.94244384765625;8.69999997803461;871;-0.0279571533203125;100 mA
441.181187886125;-1.94244384765625;8.70999997800936;872;-0.0279632568359375;100 mA
441.191187886099;-1.94244384765625;8.71999997798412;873;-0.0279541015625;100 mA
441.201187886074;-1.94244384765625;8.72999997795887;874;-0.0279571533203125;100 mA
441.211187886049;-1.9427490234375;8.73999997793362;875;-0.0279571533203125;100 mA
441.221187886024;-1.9427490234375;8.74999997790837;876;-0.0279541015625;100 mA
441.231187885998;-1.9427490234375;8.75999997788313;877;-0.0279632568359375;100 mA
441.241187885973;-1.9427490234375;8.76999997785788;878;-0.0279541015625;100 mA
441.251187885948;-1.9427490234375;8.77999997783263;879;-0.0279541015625;100 mA
441.261187885923;-1.9427490234375;8.78999997780738;880;-0.0279510498046875;100 mA
441.271187885897;-1.9427490234375;8.79999997778214;881;-0.0279541015625;100 mA
441.281187885872;-1.9427490234375;8.80999997775689;882;-0.0279541015625;100 mA
441.291187885847;-1.9427490234375;8.81999997773164;883;-0.027960205078125;100 mA
441.301187885822;-1.9427490234375;8.82999997770639;884;-0.027960205078125;100 mA
441.311187885796;-1.9427490234375;8.83999997768115;885;-0.0279632568359375;100 mA
441.321187885771;-1.9427490234375;8.8499999776559;886;-0.0279571533203125;100 mA
441.331187885746;-1.9427490234375;8.85999997763065;887;-0.0279541015625;100 mA
441.341187885721;-1.9427490234375;8.8699999776054;888;-0.0279571533203125;100 mA
441.351187885695;-1.9427490234375;8.87999997758016;889;-0.0279571533203125;100 mA
441.36118788567;-1.9427490234375;8.88999997755491;890;-0.0279571533203125;100 mA
441.371187885645;-1.9427490234375;8.89999997752966;891;-0.0279632568359375;100 mA
441.38118788562;-1.9427490234375;8.90999997750441;892;-0.0279571533203125;100 mA
441.391187885594;-1.9427490234375;8.91999997747916;893;-0.0279571533203125;100 mA
441.401187885569;-1.9427490234375;8.92999997745392;894;-0.027960205078125;100 mA
441.411187885544;-1.9427490234375;8.93999997742867;895;-0.0279571533203125;100 mA
441.421187885519;-1.9427490234375;8.94999997740342;896;-0.0279632568359375;100 mA
441.431187885493;-1.94305419921875;8.95999997737817;897;-0.0279510498046875;100 mA
441.441187885468;-1.9427490234375;8.96999997735293;898;-0.0279571533203125;100 mA
441.451187885443;-1.9427490234375;8.97999997732768;899;-0.027960205078125;100 mA
441.461187885418;-1.94305419921875;8.98999997730243;900;-0.0279571533203125;100 mA
441.471187885392;-1.9427490234375;8.99999997727718;901;-0.0279541015625;100 mA
441.481187885367;-1.94305419921875;9.00999997725194;902;-0.027960205078125;100 mA
441.491187885342;-1.94305419921875;9.01999997722669;903;-0.0279541015625;100 mA
441.501187885317;-1.94305419921875;9.02999997720144;904;-0.0279571533203125;100 mA
441.511187885291;-1.94305419921875;9.03999997717619;905;-0.0279571533203125;100 mA
441.521187885266;-1.94305419921875;9.04999997715095;906;-0.0279571533203125;100 mA
441.531187885241;-1.94305419921875;9.0599999771257;907;-0.027960205078125;100 mA
441.541187885216;-1.94305419921875;9.06999997710045;908;-0.0279541015625;100 mA
441.55118788519;-1.94305419921875;9.0799999770752;909;-0.0279571533203125;100 mA
441.561187885165;-1.94305419921875;9.08999997704996;910;-0.0279571533203125;100 mA
441.57118788514;-1.94305419921875;9.09999997702471;911;-0.0279571533203125;100 mA
441.581187885115;-1.94305419921875;9.10999997699946;912;-0.0279541015625;100 mA
441.591187885089;-1.94305419921875;9.11999997697421;913;-0.0279510498046875;100 mA
441.601187885064;-1.94305419921875;9.12999997694897;914;-0.0279571533203125;100 mA
441.611187885039;-1.94305419921875;9.13999997692372;915;-0.0279571533203125;100 mA
441.621187885014;-1.94305419921875;9.14999997689847;916;-0.0279571533203125;100 mA
441.631187884988;-1.94305419921875;9.15999997687322;917;-0.0279571533203125;100 mA
441.641187884963;-1.94305419921875;9.16999997684798;918;-0.0279571533203125;100 mA
441.651187884938;-1.94305419921875;9.17999997682273;919;-0.0279571533203125;100 mA
441.661187884913;-1.94305419921875;9.18999997679748;920;-0.0279510498046875;100 mA
441.671187884887;-1.94305419921875;9.19999997677223;921;-0.0279571533203125;100 mA
441.681187884862;-1.94305419921875;9.20999997674699;922;-0.027960205078125;100 mA
441.691187884837;-1.94305419921875;9.21999997672174;923;-0.0279510498046875;100 mA
441.701187884812;-1.94305419921875;9.22999997669649;924;-0.027960205078125;100 mA
441.711187884786;-1.94305419921875;9.23999997667124;925;-0.027947998046875;100 mA
441.721187884761;-1.94305419921875;9.249999976646;926;-0.0279510498046875;100 mA
441.731187884736;-1.94305419921875;9.25999997662075;927;-0.0279541015625;100 mA
441.741187884711;-1.94305419921875;9.2699999765955;928;-0.0279571533203125;100 mA
441.751187884685;-1.94305419921875;9.27999997657025;929;-0.0279571533203125;100 mA
441.76118788466;-1.94305419921875;9.289999976545;930;-0.027960205078125;100 mA
441.771187884635;-1.94305419921875;9.29999997651976;931;-0.0279541015625;100 mA
441.78118788461;-1.94305419921875;9.30999997649451;932;-0.027960205078125;100 mA
441.791187884584;-1.94305419921875;9.31999997646926;933;-0.0279571533203125;100 mA
441.801187884559;-1.94305419921875;9.32999997644401;934;-0.0279571533203125;100 mA
441.811187884534;-1.94305419921875;9.33999997641877;935;-0.0279571533203125;100 mA
441.821187884509;-1.94305419921875;9.34999997639352;936;-0.0279571533203125;100 mA
441.831187884483;-1.94305419921875;9.35999997636827;937;-0.0279510498046875;100 mA
441.841187884458;-1.943359375;9.36999997634302;938;-0.0279541015625;100 mA
441.851187884433;-1.94305419921875;9.37999997631778;939;-0.0279571533203125;100 mA
441.861187884408;-1.94305419921875;9.38999997629253;940;-0.027960205078125;100 mA
441.871187884382;-1.94305419921875;9.39999997626728;941;-0.027960205078125;100 mA
441.881187884357;-1.94305419921875;9.40999997624203;942;-0.0279571533203125;100 mA
441.891187884332;-1.943359375;9.41999997621679;943;-0.0279541015625;100 mA
441.901187884307;-1.943359375;9.42999997619154;944;-0.027960205078125;100 mA
441.911187884282;-1.943359375;9.43999997616629;945;-0.027960205078125;100 mA
441.921187884256;-1.943359375;9.44999997614104;946;-0.0279510498046875;100 mA
441.931187884231;-1.943359375;9.4599999761158;947;-0.0279541015625;100 mA
441.941187884206;-1.943359375;9.46999997609055;948;-0.027960205078125;100 mA
441.951187884181;-1.943359375;9.4799999760653;949;-0.0279571533203125;100 mA
441.961187884155;-1.943359375;9.48999997604005;950;-0.027960205078125;100 mA
441.97118788413;-1.943359375;9.49999997601481;951;-0.0279571533203125;100 mA
441.981187884105;-1.943359375;9.50999997598956;952;-0.027960205078125;100 mA
441.99118788408;-1.943359375;9.51999997596431;953;-0.0279571533203125;100 mA
442.001187884054;-1.943359375;9.52999997593906;954;-0.027960205078125;100 mA
442.011187884029;-1.943359375;9.53999997591382;955;-0.0279571533203125;100 mA
442.021187884004;-1.943359375;9.54999997588857;956;-0.0279571533203125;100 mA
442.031187883979;-1.943359375;9.55999997586332;957;-0.027960205078125;100 mA
442.041187883953;-1.943359375;9.56999997583807;958;-0.0279632568359375;100 mA
442.051187883928;-1.943359375;9.57999997581283;959;-0.0279571533203125;100 mA
442.061187883903;-1.943359375;9.58999997578758;960;-0.0279510498046875;100 mA
442.071187883878;-1.943359375;9.59999997576233;961;-0.0279571533203125;100 mA
442.081187883852;-1.943359375;9.60999997573708;962;-0.0279571533203125;100 mA
442.091187883827;-1.943359375;9.61999997571183;963;-0.0279571533203125;100 mA
442.101187883802;-1.943359375;9.62999997568659;964;-0.0279571533203125;100 mA
442.111187883777;-1.943359375;9.63999997566134;965;-0.0279571533203125;100 mA
442.121187883751;-1.943359375;9.64999997563609;966;-0.0279571533203125;100 mA
442.131187883726;-1.943359375;9.65999997561084;967;-0.0279541015625;100 mA
442.141187883701;-1.943359375;9.6699999755856;968;-0.0279571533203125;100 mA
442.151187883676;-1.943359375;9.67999997556035;969;-0.0279571533203125;100 mA
442.16118788365;-1.943359375;9.6899999755351;970;-0.0279571533203125;100 mA
442.171187883625;-1.943359375;9.69999997550985;971;-0.0279510498046875;100 mA
442.1811878836;-1.943359375;9.70999997548461;972;-0.0279571533203125;100 mA
442.191187883575;-1.943359375;9.71999997545936;973;-0.0279541015625;100 mA
442.201187883549;-1.943359375;9.72999997543411;974;-0.0279541015625;100 mA
442.211187883524;-1.943359375;9.73999997540886;975;-0.0279571533203125;100 mA
442.221187883499;-1.943359375;9.74999997538362;976;-0.0279571533203125;100 mA
442.231187883474;-1.943359375;9.75999997535837;977;-0.0279541015625;100 mA
442.241187883448;-1.943359375;9.76999997533312;978;-0.0279571533203125;100 mA
442.251187883423;-1.943359375;9.77999997530787;979;-0.0279571533203125;100 mA
442.261187883398;-1.943359375;9.78999997528263;980;-0.0279541015625;100 mA
442.271187883373;-1.943359375;9.79999997525738;981;-0.0279571533203125;100 mA
442.281187883347;-1.943359375;9.80999997523213;982;-0.0279541015625;100 mA
442.291187883322;-1.943359375;9.81999997520688;983;-0.0279571533203125;100 mA
442.301187883297;-1.943359375;9.82999997518164;984;-0.0279571533203125;100 mA
442.311187883272;-1.943359375;9.83999997515639;985;-0.0279571533203125;100 mA
442.321187883246;-1.943359375;9.84999997513114;986;-0.0279541015625;100 mA
442.331187883221;-1.943359375;9.85999997510589;987;-0.0279571533203125;100 mA
442.341187883196;-1.943359375;9.86999997508065;988;-0.0279632568359375;100 mA
442.351187883171;-1.943359375;9.8799999750554;989;-0.0279571533203125;100 mA
442.361187883145;-1.943359375;9.88999997503015;990;-0.027960205078125;100 mA
442.37118788312;-1.943359375;9.8999999750049;991;-0.0279571533203125;100 mA
442.381187883095;-1.943359375;9.90999997497966;992;-0.0279571533203125;100 mA
442.39118788307;-1.943359375;9.91999997495441;993;-0.027960205078125;100 mA
442.401187883044;-1.943359375;9.92999997492916;994;-0.027960205078125;100 mA
442.411187883019;-1.943359375;9.93999997490391;995;-0.0279632568359375;100 mA
442.421187882994;-1.943359375;9.94999997487866;996;-0.027960205078125;100 mA
442.431187882969;-1.943359375;9.95999997485342;997;-0.027960205078125;100 mA
442.441187882943;-1.943359375;9.96999997482817;998;-0.0279541015625;100 mA
442.451187882918;-1.943359375;9.97999997480292;999;-0.0279571533203125;100 mA
442.461187882893;-1.94366455078125;9.98999997477767;1000;-0.0279541015625;100 mA
