Time (s);WE(1).Potential (V);WE(1).Current (A);Corrected time (s);Index;Current range
17.1776319566306;-0.199859619140625;-0.0076904296875;0;1;1 A
17.1876319566054;-0.19989013671875;-0.008258056640625;0.00999999997475243;2;1 A
17.1976319565802;-0.199859619140625;-0.0085601806640625;0.0199999999495049;3;1 A
17.2076319565549;-0.199798583984375;-0.00859375;0.0299999999242573;4;1 A
17.2176319565297;-0.19989013671875;-0.00861206054687499;0.0399999998990097;5;1 A
17.2276319565044;-0.199951171875;-0.0087249755859375;0.0499999998737621;6;1 A
17.2376319564792;-0.199920654296875;-0.00877685546875;0.0599999998485146;7;1 A
17.2476319564539;-0.199859619140625;-0.00876464843749999;0.069999999823267;8;1 A
17.2576319564287;-0.199951171875;-0.0088775634765625;0.0799999997980194;9;1 A
17.2676319564034;-0.199920654296875;-0.008984375;0.0899999997727718;10;1 A
17.2776319563782;-0.199920654296875;-0.0089263916015625;0.0999999997475243;11;1 A
17.2876319563529;-0.199951171875;-0.00888671874999999;0.109999999722277;12;1 A
17.2976319563277;-0.19989013671875;-0.0089111328125;0.119999999697029;13;1 A
17.3076319563024;-0.199859619140625;-0.0089080810546875;0.129999999671782;14;1 A
17.3176319562772;-0.19989013671875;-0.008831787109375;0.139999999646534;15;1 A
17.3276319562519;-0.19989013671875;-0.00887451171875001;0.149999999621286;16;1 A
17.3376319562267;-0.1998291015625;-0.008929443359375;0.159999999596039;17;1 A
17.3476319562014;-0.19989013671875;-0.00890197753906249;0.169999999570791;18;1 A
17.3576319561762;-0.19989013671875;-0.00892333984375;0.179999999545544;19;1 A
17.3676319561509;-0.19989013671875;-0.00897216796875;0.189999999520296;20;1 A
17.3776319561257;-0.199859619140625;-0.00893249511718749;0.199999999495049;21;1 A
17.3876319561004;-0.199951171875;-0.008868408203125;0.209999999469801;22;1 A
17.3976319560752;-0.199859619140625;-0.0088653564453125;0.219999999444553;23;1 A
17.40763195605;-0.199920654296875;-0.008868408203125;0.229999999419306;24;1 A
17.4176319560247;-0.199951171875;-0.00881042480468749;0.239999999394058;25;1 A
17.4276319559995;-0.19989013671875;-0.00885620117187499;0.249999999368811;26;1 A
17.4376319559742;-0.199920654296875;-0.0089447021484375;0.259999999343563;27;1 A
17.447631955949;-0.1998291015625;-0.00890197753906249;0.269999999318316;28;1 A
17.4576319559237;-0.19989013671875;-0.0088653564453125;0.279999999293068;29;1 A
17.4676319558985;-0.199920654296875;-0.0089111328125;0.28999999926782;30;1 A
17.4776319558732;-0.19989013671875;-0.0089263916015625;0.299999999242573;31;1 A
17.487631955848;-0.199920654296875;-0.008868408203125;0.309999999217325;32;1 A
17.4976319558227;-0.19989013671875;-0.00888977050781251;0.319999999192078;33;1 A
17.5076319557975;-0.199951171875;-0.0090057373046875;0.32999999916683;34;1 A
17.5176319557722;-0.19989013671875;-0.0090057373046875;0.339999999141583;35;1 A
17.527631955747;-0.199920654296875;-0.00902404785156249;0.349999999116335;36;1 A
17.5376319557217;-0.199920654296875;-0.00910339355468751;0.359999999091087;37;1 A
17.5476319556965;-0.199859619140625;-0.0090911865234375;0.36999999906584;38;1 A
17.5576319556712;-0.19989013671875;-0.00904235839843751;0.379999999040592;39;1 A
17.567631955646;-0.199859619140625;-0.00906982421874999;0.389999999015345;40;1 A
17.5776319556207;-0.199920654296875;-0.00909423828125;0.399999998990097;41;1 A
17.5876319555955;-0.1998291015625;-0.00902709960937501;0.40999999896485;42;1 A
17.5976319555703;-0.199920654296875;-0.008984375;0.419999998939602;43;1 A
17.607631955545;-0.199859619140625;-0.00907287597656251;0.429999998914354;44;1 A
17.6176319555198;-0.199859619140625;-0.00902709960937501;0.439999998889107;45;1 A
17.6276319554945;-0.19989013671875;-0.008941650390625;0.449999998863859;46;1 A
17.6376319554693;-0.199859619140625;-0.0089874267578125;0.459999998838612;47;1 A
17.647631955444;-0.19989013671875;-0.00897827148437499;0.469999998813364;48;1 A
17.6576319554188;-0.1998291015625;-0.0088653564453125;0.479999998788116;49;1 A
17.6676319553935;-0.199951171875;-0.008868408203125;0.489999998762869;50;1 A
17.6776319553683;-0.199920654296875;-0.00896301269531249;0.499999998737621;51;1 A
17.687631955343;-0.199859619140625;-0.00897216796875;0.509999998712374;52;1 A
17.6976319553178;-0.199920654296875;-0.0089385986328125;0.519999998687126;53;1 A
17.7076319552925;-0.200042724609375;-0.00902099609375;0.529999998661879;54;1 A
17.7176319552673;-0.199859619140625;-0.0090484619140625;0.539999998636631;55;1 A
17.727631955242;-0.1998291015625;-0.00897216796875;0.549999998611383;56;1 A
17.7376319552168;-0.19989013671875;-0.00898132324218751;0.559999998586136;57;1 A
17.7476319551915;-0.199920654296875;-0.00905761718750001;0.569999998560888;58;1 A
17.7576319551663;-0.199859619140625;-0.0090057373046875;0.579999998535641;59;1 A
17.767631955141;-0.199798583984375;-0.00899353027343749;0.589999998510393;60;1 A
17.7776319551158;-0.199981689453125;-0.00910339355468751;0.599999998485146;61;1 A
17.7876319550905;-0.19989013671875;-0.00914611816406249;0.609999998459898;62;1 A
17.7976319550653;-0.19989013671875;-0.0090911865234375;0.61999999843465;63;1 A
17.8076319550401;-0.19989013671875;-0.00913391113281251;0.629999998409403;64;1 A
17.8176319550148;-0.199859619140625;-0.009228515625;0.639999998384155;65;1 A
17.8276319549896;-0.19989013671875;-0.0092041015625;0.649999998358908;66;1 A
17.8376319549643;-0.19989013671875;-0.00925598144531251;0.65999999833366;67;1 A
17.8476319549391;-0.199951171875;-0.00940551757812499;0.669999998308413;68;1 A
17.8576319549138;-0.199951171875;-0.00937805175781251;0.679999998283165;69;1 A
17.8676319548886;-0.19989013671875;-0.009295654296875;0.689999998257917;70;1 A
17.8776319548633;-0.199920654296875;-0.00934753417968751;0.69999999823267;71;1 A
17.8876319548381;-0.19989013671875;-0.0094024658203125;0.709999998207422;72;1 A
17.8976319548128;-0.19989013671875;-0.009295654296875;0.719999998182175;73;1 A
17.9076319547876;-0.199859619140625;-0.00927124023437501;0.729999998156927;74;1 A
17.9176319547623;-0.19989013671875;-0.0092437744140625;0.73999999813168;75;1 A
17.9276319547371;-0.199951171875;-0.00916137695312499;0.749999998106432;76;1 A
17.9376319547118;-0.199859619140625;-0.0090667724609375;0.759999998081184;77;1 A
17.9476319546866;-0.20001220703125;-0.00908508300781249;0.769999998055937;78;1 A
17.9576319546613;-0.1998291015625;-0.0090911865234375;0.779999998030689;79;1 A
17.9676319546361;-0.19989013671875;-0.00900878906249999;0.789999998005442;80;1 A
17.9776319546108;-0.199859619140625;-0.00901184082031251;0.799999997980194;81;1 A
17.9876319545856;-0.19976806640625;-0.00897216796875;0.809999997954947;82;1 A
17.9976319545603;-0.199951171875;-0.00899658203125001;0.819999997929699;83;1 A
18.0076319545351;-0.19989013671875;-0.0089691162109375;0.829999997904451;84;1 A
18.0176319545099;-0.19989013671875;-0.009051513671875;0.839999997879204;85;1 A
18.0276319544846;-0.199920654296875;-0.009063720703125;0.849999997853956;86;1 A
18.0376319544594;-0.19989013671875;-0.00899353027343749;0.859999997828709;87;1 A
18.0476319544341;-0.199951171875;-0.00908203125;0.869999997803461;88;1 A
18.0576319544089;-0.19989013671875;-0.0092010498046875;0.879999997778214;89;1 A
18.0676319543836;-0.199859619140625;-0.009173583984375;0.889999997752966;90;1 A
18.0776319543584;-0.19989013671875;-0.009228515625;0.899999997727718;91;1 A
18.0876319543331;-0.199920654296875;-0.00933837890625;0.909999997702471;92;1 A
18.0976319543079;-0.19989013671875;-0.00928344726562499;0.919999997677223;93;1 A
18.1076319542826;-0.1998291015625;-0.009197998046875;0.929999997651976;94;1 A
18.1176319542574;-0.199951171875;-0.00920715332031249;0.939999997626728;95;1 A
18.1276319542321;-0.19989013671875;-0.00916748046875;0.949999997601481;96;1 A
18.1376319542069;-0.199951171875;-0.0090484619140625;0.959999997576233;97;1 A
18.1476319541816;-0.19989013671875;-0.0090362548828125;0.969999997550985;98;1 A
18.1576319541564;-0.199920654296875;-0.00908508300781249;0.979999997525738;99;1 A
18.1676319541311;-0.200042724609375;-0.0090179443359375;0.98999999750049;100;1 A
18.1776319541059;-0.199859619140625;-0.00898132324218751;0.999999997475243;101;1 A
18.1876319540806;-0.199981689453125;-0.00903930664062499;1.00999999745;102;1 A
18.1976319540554;-0.19989013671875;-0.00904235839843751;1.01999999742475;103;1 A
18.2076319540301;-0.199920654296875;-0.00897216796875;1.0299999973995;104;1 A
18.2176319540049;-0.199920654296875;-0.00902709960937501;1.03999999737425;105;1 A
18.2276319539797;-0.199920654296875;-0.00916137695312499;1.049999997349;106;1 A
18.2376319539544;-0.199981689453125;-0.00916442871093751;1.05999999732376;107;1 A
18.2476319539292;-0.19989013671875;-0.00916442871093751;1.06999999729851;108;1 A
18.2576319539039;-0.199859619140625;-0.00921630859375;1.07999999727326;109;1 A
18.2676319538787;-0.20001220703125;-0.00917663574218749;1.08999999724801;110;1 A
18.2776319538534;-0.199920654296875;-0.0091094970703125;1.09999999722277;111;1 A
18.2876319538282;-0.199951171875;-0.00919494628906251;1.10999999719752;112;1 A
18.2976319538029;-0.199920654296875;-0.00925292968749999;1.11999999717227;113;1 A
18.3076319537777;-0.199859619140625;-0.009173583984375;1.12999999714702;114;1 A
18.3176319537524;-0.19989013671875;-0.00914916992187501;1.13999999712178;115;1 A
18.3276319537272;-0.199920654296875;-0.00924072265625001;1.14999999709653;116;1 A
18.3376319537019;-0.19989013671875;-0.00919494628906251;1.15999999707128;117;1 A
18.3476319536767;-0.19989013671875;-0.00911560058593749;1.16999999704603;118;1 A
18.3576319536514;-0.199981689453125;-0.00916137695312499;1.17999999702079;119;1 A
18.3676319536262;-0.19989013671875;-0.00913391113281251;1.18999999699554;120;1 A
18.3776319536009;-0.19989013671875;-0.009002685546875;1.19999999697029;121;1 A
18.3876319535757;-0.199951171875;-0.0089874267578125;1.20999999694504;122;1 A
18.3976319535504;-0.19989013671875;-0.0090301513671875;1.2199999969198;123;1 A
18.4076319535252;-0.199920654296875;-0.00897216796875;1.22999999689455;124;1 A
18.4176319534999;-0.199920654296875;-0.0089141845703125;1.2399999968693;125;1 A
18.4276319534747;-0.19989013671875;-0.00895080566406251;1.24999999684405;126;1 A
18.4376319534495;-0.199920654296875;-0.0089447021484375;1.25999999681881;127;1 A
18.4476319534242;-0.199951171875;-0.00885925292968751;1.26999999679356;128;1 A
18.457631953399;-0.199981689453125;-0.008868408203125;1.27999999676831;129;1 A
18.4676319533737;-0.199920654296875;-0.008990478515625;1.28999999674306;130;1 A
18.4776319533485;-0.199951171875;-0.0088348388671875;1.29999999671782;131;1 A
18.4876319533232;-0.199951171875;-0.0088836669921875;1.30999999669257;132;1 A
18.497631953298;-0.199920654296875;-0.0090667724609375;1.31999999666732;133;1 A
18.5076319532727;-0.199951171875;-0.009112548828125;1.32999999664207;134;1 A
18.5176319532475;-0.199951171875;-0.0090789794921875;1.33999999661683;135;1 A
18.5276319532222;-0.199981689453125;-0.009185791015625;1.34999999659158;136;1 A
18.537631953197;-0.199981689453125;-0.00923767089843749;1.35999999656633;137;1 A
18.5476319531717;-0.199859619140625;-0.0091278076171875;1.36999999654108;138;1 A
18.5576319531465;-0.199981689453125;-0.00911560058593749;1.37999999651583;139;1 A
18.5676319531212;-0.199981689453125;-0.00917968750000001;1.38999999649059;140;1 A
18.577631953096;-0.199951171875;-0.00913391113281251;1.39999999646534;141;1 A
18.5876319530707;-0.19989013671875;-0.0090789794921875;1.40999999644009;142;1 A
18.5976319530455;-0.199981689453125;-0.0091583251953125;1.41999999641484;143;1 A
18.6076319530202;-0.199951171875;-0.00919494628906251;1.4299999963896;144;1 A
18.617631952995;-0.199920654296875;-0.00910034179687499;1.43999999636435;145;1 A
18.6276319529698;-0.199951171875;-0.009136962890625;1.4499999963391;146;1 A
18.6376319529445;-0.199951171875;-0.00921020507812501;1.45999999631385;147;1 A
18.6476319529193;-0.199920654296875;-0.00914611816406249;1.46999999628861;148;1 A
18.657631952894;-0.199951171875;-0.00908813476562501;1.47999999626336;149;1 A
18.6676319528688;-0.199951171875;-0.00914306640625;1.48999999623811;150;1 A
18.6776319528435;-0.199920654296875;-0.0091217041015625;1.49999999621286;151;1 A
18.6876319528183;-0.199951171875;-0.00902404785156249;1.50999999618762;152;1 A
18.697631952793;-0.199920654296875;-0.0090179443359375;1.51999999616237;153;1 A
18.7076319527678;-0.199951171875;-0.00911865234375001;1.52999999613712;154;1 A
18.7176319527425;-0.19989013671875;-0.00904235839843751;1.53999999611187;155;1 A
18.7276319527173;-0.20001220703125;-0.009033203125;1.54999999608663;156;1 A
18.737631952692;-0.199920654296875;-0.009124755859375;1.55999999606138;157;1 A
18.7476319526668;-0.200042724609375;-0.00913391113281251;1.56999999603613;158;1 A
18.7576319526415;-0.199951171875;-0.0090606689453125;1.57999999601088;159;1 A
18.7676319526163;-0.199920654296875;-0.009173583984375;1.58999999598564;160;1 A
18.777631952591;-0.199981689453125;-0.00927734375;1.59999999596039;161;1 A
18.7876319525658;-0.19989013671875;-0.00923767089843749;1.60999999593514;162;1 A
18.7976319525405;-0.199920654296875;-0.009228515625;1.61999999590989;163;1 A
18.8076319525153;-0.199981689453125;-0.00896301269531249;1.62999999588465;164;1 A
18.81763195249;-0.199951171875;-0.00925598144531251;1.6399999958594;165;1 A
18.8276319524648;-0.199981689453125;-0.0091888427734375;1.64999999583415;166;1 A
18.8376319524396;-0.19989013671875;-0.0092041015625;1.6599999958089;167;1 A
18.8476319524143;-0.199951171875;-0.00926513671875;1.66999999578366;168;1 A
18.8576319523891;-0.199920654296875;-0.009185791015625;1.67999999575841;169;1 A
18.8676319523638;-0.199951171875;-0.00919189453124999;1.68999999573316;170;1 A
18.8776319523386;-0.199951171875;-0.00932922363281249;1.69999999570791;171;1 A
18.8876319523133;-0.199859619140625;-0.0093048095703125;1.70999999568267;172;1 A
18.8976319522881;-0.20001220703125;-0.0092193603515625;1.71999999565742;173;1 A
18.9076319522628;-0.19989013671875;-0.0093109130859375;1.72999999563217;174;1 A
18.9176319522376;-0.199920654296875;-0.009307861328125;1.73999999560692;175;1 A
18.9276319522123;-0.199981689453125;-0.00919189453124999;1.74999999558167;176;1 A
18.9376319521871;-0.199920654296875;-0.0092132568359375;1.75999999555643;177;1 A
18.9476319521618;-0.199951171875;-0.0092742919921875;1.76999999553118;178;1 A
18.9576319521366;-0.19989013671875;-0.00922546386718751;1.77999999550593;179;1 A
18.9676319521113;-0.199981689453125;-0.00917968750000001;1.78999999548068;180;1 A
18.9776319520861;-0.199920654296875;-0.0093109130859375;1.79999999545544;181;1 A
18.9876319520608;-0.199920654296875;-0.0093109130859375;1.80999999543019;182;1 A
18.9976319520356;-0.199951171875;-0.00921020507812501;1.81999999540494;183;1 A
19.0076319520103;-0.199920654296875;-0.00927124023437501;1.82999999537969;184;1 A
19.0176319519851;-0.199951171875;-0.00932922363281249;1.83999999535445;185;1 A
19.0276319519598;-0.19989013671875;-0.00928955078125;1.8499999953292;186;1 A
19.0376319519346;-0.199920654296875;-0.009246826171875;1.85999999530395;187;1 A
19.0476319519094;-0.19989013671875;-0.00936279296875001;1.8699999952787;188;1 A
19.0576319518841;-0.199920654296875;-0.0093536376953125;1.87999999525346;189;1 A
19.0676319518589;-0.199920654296875;-0.0092803955078125;1.88999999522821;190;1 A
19.0776319518336;-0.199859619140625;-0.00926513671875;1.89999999520296;191;1 A
19.0876319518084;-0.199920654296875;-0.00930175781250001;1.90999999517771;192;1 A
19.0976319517831;-0.19989013671875;-0.0091827392578125;1.91999999515247;193;1 A
19.1076319517579;-0.199859619140625;-0.0092010498046875;1.92999999512722;194;1 A
19.1176319517326;-0.19989013671875;-0.00927734375;1.93999999510197;195;1 A
19.1276319517074;-0.19989013671875;-0.00922546386718751;1.94999999507672;196;1 A
19.1376319516821;-0.199920654296875;-0.00916442871093751;1.95999999505148;197;1 A
19.1476319516569;-0.19989013671875;-0.009234619140625;1.96999999502623;198;1 A
19.1576319516316;-0.199859619140625;-0.00925292968749999;1.97999999500098;199;1 A
19.1676319516064;-0.19989013671875;-0.0092010498046875;1.98999999497573;200;1 A
19.1776319515811;-0.199920654296875;-0.0092620849609375;1.99999999495049;201;1 A
19.1876319515559;-0.199951171875;-0.009326171875;2.00999999492524;202;1 A
19.1976319515306;-0.1998291015625;-0.00925598144531251;2.01999999489999;203;1 A
19.2076319515054;-0.199951171875;-0.0092315673828125;2.02999999487474;204;1 A
19.2176319514801;-0.199859619140625;-0.0092742919921875;2.0399999948495;205;1 A
19.2276319514549;-0.199859619140625;-0.009234619140625;2.04999999482425;206;1 A
19.2376319514296;-0.199920654296875;-0.0091552734375;2.059999994799;207;1 A
19.2476319514044;-0.199951171875;-0.009197998046875;2.06999999477375;208;1 A
19.2576319513792;-0.199920654296875;-0.00925292968749999;2.0799999947485;209;1 A
19.2676319513539;-0.1998291015625;-0.0091705322265625;2.08999999472326;210;1 A
19.2776319513287;-0.19989013671875;-0.00917968750000001;2.09999999469801;211;1 A
19.2876319513034;-0.19989013671875;-0.00925598144531251;2.10999999467276;212;1 A
19.2976319512782;-0.199920654296875;-0.0092041015625;2.11999999464751;213;1 A
19.3076319512529;-0.199981689453125;-0.0091064453125;2.12999999462227;214;1 A
19.3176319512277;-0.199951171875;-0.00911865234375001;2.13999999459702;215;1 A
19.3276319512024;-0.199920654296875;-0.00909423828125;2.14999999457177;216;1 A
19.3376319511772;-0.199951171875;-0.009014892578125;2.15999999454652;217;1 A
19.3476319511519;-0.199859619140625;-0.00906982421874999;2.16999999452128;218;1 A
19.3576319511267;-0.19989013671875;-0.00913085937499999;2.17999999449603;219;1 A
19.3676319511014;-0.19989013671875;-0.00907287597656251;2.18999999447078;220;1 A
19.3776319510762;-0.199920654296875;-0.00904235839843751;2.19999999444553;221;1 A
19.3876319510509;-0.19989013671875;-0.0091400146484375;2.20999999442029;222;1 A
19.3976319510257;-0.199859619140625;-0.0091705322265625;2.21999999439504;223;1 A
19.4076319510004;-0.199920654296875;-0.009112548828125;2.22999999436979;224;1 A
19.4176319509752;-0.199859619140625;-0.00914611816406249;2.23999999434454;225;1 A
19.4276319509499;-0.1998291015625;-0.009185791015625;2.2499999943193;226;1 A
19.4376319509247;-0.199859619140625;-0.00913085937499999;2.25999999429405;227;1 A
19.4476319508994;-0.1998291015625;-0.0091094970703125;2.2699999942688;228;1 A
19.4576319508742;-0.199920654296875;-0.00921630859375;2.27999999424355;229;1 A
19.467631950849;-0.19989013671875;-0.00922546386718751;2.28999999421831;230;1 A
19.4776319508237;-0.19989013671875;-0.0091827392578125;2.29999999419306;231;1 A
19.4876319507985;-0.199859619140625;-0.00925598144531251;2.30999999416781;232;1 A
19.4976319507732;-0.199859619140625;-0.00931701660156251;2.31999999414256;233;1 A
19.507631950748;-0.199859619140625;-0.00925598144531251;2.32999999411732;234;1 A
19.5176319507227;-0.199859619140625;-0.0092437744140625;2.33999999409207;235;1 A
19.5276319506975;-0.199859619140625;-0.00933837890625;2.34999999406682;236;1 A
19.5376319506722;-0.19989013671875;-0.0092926025390625;2.35999999404157;237;1 A
19.547631950647;-0.199981689453125;-0.00916137695312499;2.36999999401633;238;1 A
19.5576319506217;-0.199859619140625;-0.00922546386718751;2.37999999399108;239;1 A
19.5676319505965;-0.199920654296875;-0.0092620849609375;2.38999999396583;240;1 A
19.5776319505712;-0.199920654296875;-0.0091583251953125;2.39999999394058;241;1 A
19.587631950546;-0.199798583984375;-0.009136962890625;2.40999999391533;242;1 A
19.5976319505207;-0.199920654296875;-0.00917663574218749;2.41999999389009;243;1 A
19.6076319504955;-0.199920654296875;-0.00914916992187501;2.42999999386484;244;1 A
19.6176319504702;-0.19989013671875;-0.0091217041015625;2.43999999383959;245;1 A
19.627631950445;-0.199859619140625;-0.00922546386718751;2.44999999381434;246;1 A
19.6376319504197;-0.199859619140625;-0.0092498779296875;2.4599999937891;247;1 A
19.6476319503945;-0.199951171875;-0.009185791015625;2.46999999376385;248;1 A
19.6576319503693;-0.199859619140625;-0.0092193603515625;2.4799999937386;249;1 A
19.667631950344;-0.199859619140625;-0.00921630859375;2.48999999371335;250;1 A
19.6776319503188;-0.199920654296875;-0.0090911865234375;2.49999999368811;251;1 A
19.6876319502935;-0.19989013671875;-0.00902709960937501;2.50999999366286;252;1 A
19.6976319502683;-0.199951171875;-0.00907287597656251;2.51999999363761;253;1 A
19.707631950243;-0.19989013671875;-0.0089874267578125;2.52999999361236;254;1 A
19.7176319502178;-0.19989013671875;-0.0089385986328125;2.53999999358712;255;1 A
19.7276319501925;-0.199859619140625;-0.008984375;2.54999999356187;256;1 A
19.7376319501673;-0.19989013671875;-0.0090606689453125;2.55999999353662;257;1 A
19.747631950142;-0.19989013671875;-0.009002685546875;2.56999999351137;258;1 A
19.7576319501168;-0.199859619140625;-0.00904235839843751;2.57999999348613;259;1 A
19.7676319500915;-0.19989013671875;-0.0091094970703125;2.58999999346088;260;1 A
19.7776319500663;-0.19989013671875;-0.0090911865234375;2.59999999343563;261;1 A
19.787631950041;-0.19989013671875;-0.00905761718750001;2.60999999341038;262;1 A
19.7976319500158;-0.19989013671875;-0.0091217041015625;2.61999999338514;263;1 A
19.8076319499905;-0.199859619140625;-0.00913085937499999;2.62999999335989;264;1 A
19.8176319499653;-0.199920654296875;-0.009033203125;2.63999999333464;265;1 A
19.82763194994;-0.199798583984375;-0.0090301513671875;2.64999999330939;266;1 A
19.8376319499148;-0.199798583984375;-0.00906982421874999;2.65999999328415;267;1 A
19.8476319498895;-0.199859619140625;-0.00899658203125001;2.6699999932589;268;1 A
19.8576319498643;-0.1998291015625;-0.00895080566406251;2.67999999323365;269;1 A
19.8676319498391;-0.199920654296875;-0.0090057373046875;2.6899999932084;270;1 A
19.8776319498138;-0.19989013671875;-0.009014892578125;2.69999999318316;271;1 A
19.8876319497886;-0.19989013671875;-0.008941650390625;2.70999999315791;272;1 A
19.8976319497633;-0.199920654296875;-0.00896301269531249;2.71999999313266;273;1 A
19.9076319497381;-0.199859619140625;-0.0089996337890625;2.72999999310741;274;1 A
19.9176319497128;-0.199951171875;-0.0089447021484375;2.73999999308217;275;1 A
19.9276319496876;-0.199859619140625;-0.0089080810546875;2.74999999305692;276;1 A
19.9376319496623;-0.199951171875;-0.00899353027343749;2.75999999303167;277;1 A
19.9476319496371;-0.19989013671875;-0.0089996337890625;2.76999999300642;278;1 A
19.9576319496118;-0.199920654296875;-0.008953857421875;2.77999999298117;279;1 A
19.9676319495866;-0.199951171875;-0.00902404785156249;2.78999999295593;280;1 A
19.9776319495613;-0.199920654296875;-0.0090789794921875;2.79999999293068;281;1 A
19.9876319495361;-0.199798583984375;-0.00902404785156249;2.80999999290543;282;1 A
19.9976319495108;-0.199951171875;-0.0090362548828125;2.81999999288018;283;1 A
20.0076319494856;-0.19989013671875;-0.009112548828125;2.82999999285494;284;1 A
20.0176319494603;-0.199920654296875;-0.0090484619140625;2.83999999282969;285;1 A
20.0276319494351;-0.199859619140625;-0.0089385986328125;2.84999999280444;286;1 A
20.0376319494098;-0.199920654296875;-0.0089569091796875;2.85999999277919;287;1 A
20.0476319493846;-0.19989013671875;-0.00893554687500001;2.86999999275395;288;1 A
20.0576319493593;-0.19989013671875;-0.008831787109375;2.8799999927287;289;1 A
20.0676319493341;-0.199859619140625;-0.00879821777343751;2.88999999270345;290;1 A
20.0776319493089;-0.19989013671875;-0.00885009765625;2.8999999926782;291;1 A
20.0876319492836;-0.199981689453125;-0.00879821777343751;2.90999999265296;292;1 A
20.0976319492584;-0.199920654296875;-0.0087738037109375;2.91999999262771;293;1 A
20.1076319492331;-0.199920654296875;-0.008892822265625;2.92999999260246;294;1 A
20.1176319492079;-0.19989013671875;-0.0089263916015625;2.93999999257721;295;1 A
20.1276319491826;-0.19989013671875;-0.00885925292968751;2.94999999255197;296;1 A
20.1376319491574;-0.199920654296875;-0.0089111328125;2.95999999252672;297;1 A
20.1476319491321;-0.19989013671875;-0.0089691162109375;2.96999999250147;298;1 A
20.1576319491069;-0.199981689453125;-0.0089080810546875;2.97999999247622;299;1 A
20.1676319490816;-0.19989013671875;-0.00890197753906249;2.98999999245098;300;1 A
20.1776319490564;-0.19964599609375;-0.0090301513671875;2.99999999242573;301;1 A
20.1876319490311;-0.199951171875;-0.009136962890625;3.00999999240048;302;1 A
20.1976319490059;-0.2001953125;-0.008941650390625;3.01999999237523;303;1 A
20.2076319489806;-0.19989013671875;-0.00919189453124999;3.02999999234999;304;1 A
20.2176319489554;-0.19989013671875;-0.0092315673828125;3.03999999232474;305;1 A
20.2276319489301;-0.19989013671875;-0.00914306640625;3.04999999229949;306;1 A
20.2376319489049;-0.1998291015625;-0.00914916992187501;3.05999999227424;307;1 A
20.2476319488796;-0.19989013671875;-0.0091827392578125;3.069999992249;308;1 A
20.2576319488544;-0.199859619140625;-0.00910034179687499;3.07999999222375;309;1 A
20.2676319488291;-0.199920654296875;-0.0090057373046875;3.0899999921985;310;1 A
20.2776319488039;-0.199981689453125;-0.009051513671875;3.09999999217325;311;1 A
20.2876319487787;-0.199920654296875;-0.0090667724609375;3.109999992148;312;1 A
20.2976319487534;-0.19989013671875;-0.008984375;3.11999999212276;313;1 A
20.3076319487282;-0.1998291015625;-0.008990478515625;3.12999999209751;314;1 A
20.3176319487029;-0.199951171875;-0.0090362548828125;3.13999999207226;315;1 A
20.3276319486777;-0.199920654296875;-0.00899353027343749;3.14999999204701;316;1 A
20.3376319486524;-0.199859619140625;-0.0087921142578125;3.15999999202177;317;1 A
20.3476319486272;-0.1998291015625;-0.00908203125;3.16999999199652;318;1 A
20.3576319486019;-0.199798583984375;-0.009185791015625;3.17999999197127;319;1 A
20.3676319485767;-0.199920654296875;-0.00910339355468751;3.18999999194602;320;1 A
20.3776319485514;-0.19989013671875;-0.00906982421874999;3.19999999192078;321;1 A
20.3876319485262;-0.1998291015625;-0.00907287597656251;3.20999999189553;322;1 A
20.3976319485009;-0.199859619140625;-0.00899353027343749;3.21999999187028;323;1 A
20.4076319484757;-0.19989013671875;-0.0089752197265625;3.22999999184503;324;1 A
20.4176319484504;-0.199920654296875;-0.0090789794921875;3.23999999181979;325;1 A
20.4276319484252;-0.199859619140625;-0.00911865234375001;3.24999999179454;326;1 A
20.4376319483999;-0.19989013671875;-0.00904541015625;3.25999999176929;327;1 A
20.4476319483747;-0.199920654296875;-0.0090789794921875;3.26999999174404;328;1 A
20.4576319483494;-0.19989013671875;-0.00908508300781249;3.2799999917188;329;1 A
20.4676319483242;-0.199920654296875;-0.00902099609375;3.28999999169355;330;1 A
20.4776319482989;-0.1998291015625;-0.00904235839843751;3.2999999916683;331;1 A
20.4876319482737;-0.19989013671875;-0.0091583251953125;3.30999999164305;332;1 A
20.4976319482485;-0.19989013671875;-0.0091552734375;3.31999999161781;333;1 A
20.5076319482232;-0.199859619140625;-0.00911560058593749;3.32999999159256;334;1 A
20.517631948198;-0.199859619140625;-0.00917663574218749;3.33999999156731;335;1 A
20.5276319481727;-0.1998291015625;-0.00917968750000001;3.34999999154206;336;1 A
20.5376319481475;-0.199920654296875;-0.00906982421874999;3.35999999151682;337;1 A
20.5476319481222;-0.199951171875;-0.009063720703125;3.36999999149157;338;1 A
20.557631948097;-0.199920654296875;-0.0091400146484375;3.37999999146632;339;1 A
20.5676319480717;-0.199951171875;-0.00911865234375001;3.38999999144107;340;1 A
20.5776319480465;-0.1998291015625;-0.00911865234375001;3.39999999141583;341;1 A
20.5876319480212;-0.19989013671875;-0.00921020507812501;3.40999999139058;342;1 A
20.597631947996;-0.199920654296875;-0.0092010498046875;3.41999999136533;343;1 A
20.6076319479707;-0.199920654296875;-0.00908203125;3.42999999134008;344;1 A
20.6176319479455;-0.199859619140625;-0.0090789794921875;3.43999999131483;345;1 A
20.6276319479202;-0.199798583984375;-0.0091094970703125;3.44999999128959;346;1 A
20.637631947895;-0.199859619140625;-0.00905761718750001;3.45999999126434;347;1 A
20.6476319478697;-0.1998291015625;-0.0090362548828125;3.46999999123909;348;1 A
20.6576319478445;-0.19989013671875;-0.009136962890625;3.47999999121384;349;1 A
20.6676319478192;-0.199798583984375;-0.00914306640625;3.4899999911886;350;1 A
20.677631947794;-0.199920654296875;-0.0091064453125;3.49999999116335;351;1 A
20.6876319477688;-0.199798583984375;-0.009173583984375;3.5099999911381;352;1 A
20.6976319477435;-0.199859619140625;-0.0092498779296875;3.51999999111285;353;1 A
20.7076319477183;-0.199859619140625;-0.0091888427734375;3.52999999108761;354;1 A
20.717631947693;-0.19989013671875;-0.0091827392578125;3.53999999106236;355;1 A
20.7276319476678;-0.19989013671875;-0.0092132568359375;3.54999999103711;356;1 A
20.7376319476425;-0.1998291015625;-0.009112548828125;3.55999999101186;357;1 A
20.7476319476173;-0.199920654296875;-0.009014892578125;3.56999999098662;358;1 A
20.757631947592;-0.19989013671875;-0.0090301513671875;3.57999999096137;359;1 A
20.7676319475668;-0.199859619140625;-0.0090179443359375;3.58999999093612;360;1 A
20.7776319475415;-0.19989013671875;-0.0089141845703125;3.59999999091087;361;1 A
20.7876319475163;-0.19989013671875;-0.00889892578125;3.60999999088563;362;1 A
20.797631947491;-0.199920654296875;-0.0089447021484375;3.61999999086038;363;1 A
20.8076319474658;-0.1998291015625;-0.00888977050781251;3.62999999083513;364;1 A
20.8176319474405;-0.199859619140625;-0.00884399414062501;3.63999999080988;365;1 A
20.8276319474153;-0.19989013671875;-0.00889892578125;3.64999999078464;366;1 A
20.83763194739;-0.199859619140625;-0.00888977050781251;3.65999999075939;367;1 A
20.8476319473648;-0.199859619140625;-0.00881347656250001;3.66999999073414;368;1 A
20.8576319473395;-0.199859619140625;-0.00885009765625;3.67999999070889;369;1 A
20.8676319473143;-0.19989013671875;-0.00894775390624999;3.68999999068365;370;1 A
20.877631947289;-0.19989013671875;-0.008929443359375;3.6999999906584;371;1 A
20.8876319472638;-0.1998291015625;-0.008941650390625;3.70999999063315;372;1 A
20.8976319472386;-0.199920654296875;-0.0090362548828125;3.7199999906079;373;1 A
20.9076319472133;-0.19989013671875;-0.00903930664062499;3.72999999058266;374;1 A
20.9176319471881;-0.199859619140625;-0.00899658203125001;3.73999999055741;375;1 A
20.9276319471628;-0.1998291015625;-0.00908203125;3.74999999053216;376;1 A
20.9376319471376;-0.199859619140625;-0.00914916992187501;3.75999999050691;377;1 A
20.9476319471123;-0.199859619140625;-0.0091064453125;3.76999999048167;378;1 A
20.9576319470871;-0.19989013671875;-0.00916137695312499;3.77999999045642;379;1 A
20.9676319470618;-0.199920654296875;-0.00925598144531251;3.78999999043117;380;1 A
20.9776319470366;-0.199920654296875;-0.009234619140625;3.79999999040592;381;1 A
20.9876319470113;-0.199920654296875;-0.00914611816406249;3.80999999038067;382;1 A
20.9976319469861;-0.199859619140625;-0.009173583984375;3.81999999035543;383;1 A
21.0076319469608;-0.1998291015625;-0.00919494628906251;3.82999999033018;384;1 A
21.0176319469356;-0.199920654296875;-0.00908813476562501;3.83999999030493;385;1 A
21.0276319469103;-0.199859619140625;-0.0090484619140625;3.84999999027968;386;1 A
21.0376319468851;-0.19989013671875;-0.00909423828125;3.85999999025444;387;1 A
21.0476319468598;-0.19989013671875;-0.0090362548828125;3.86999999022919;388;1 A
21.0576319468346;-0.19989013671875;-0.00901184082031251;3.87999999020394;389;1 A
21.0676319468093;-0.19989013671875;-0.00913085937499999;3.88999999017869;390;1 A
21.0776319467841;-0.1998291015625;-0.00919494628906251;3.89999999015345;391;1 A
21.0876319467588;-0.19989013671875;-0.00913085937499999;3.9099999901282;392;1 A
21.0976319467336;-0.199859619140625;-0.0091827392578125;3.91999999010295;393;1 A
21.1076319467084;-0.19989013671875;-0.0092498779296875;3.9299999900777;394;1 A
21.1176319466831;-0.199920654296875;-0.00919189453124999;3.93999999005246;395;1 A
21.1276319466579;-0.19989013671875;-0.009197998046875;3.94999999002721;396;1 A
21.1376319466326;-0.19989013671875;-0.00927124023437501;3.95999999000196;397;1 A
21.1476319466074;-0.199859619140625;-0.00928344726562499;3.96999998997671;398;1 A
21.1576319465821;-0.199920654296875;-0.0092041015625;3.97999998995147;399;1 A
21.1676319465569;-0.1998291015625;-0.00925292968749999;3.98999998992622;400;1 A
21.1776319465316;-0.19989013671875;-0.00927124023437501;3.99999998990097;401;1 A
21.1876319465064;-0.199859619140625;-0.00916748046875;4.00999998987572;402;1 A
21.1976319464811;-0.199920654296875;-0.009136962890625;4.01999998985048;403;1 A
21.2076319464559;-0.199920654296875;-0.0092132568359375;4.02999998982523;404;1 A
21.2176319464306;-0.19989013671875;-0.009173583984375;4.03999998979998;405;1 A
21.2276319464054;-0.199951171875;-0.00913085937499999;4.04999998977473;406;1 A
21.2376319463801;-0.1998291015625;-0.0092315673828125;4.05999998974949;407;1 A
21.2476319463549;-0.199920654296875;-0.0092803955078125;4.06999998972424;408;1 A
21.2576319463296;-0.19989013671875;-0.0092132568359375;4.07999998969899;409;1 A
21.2676319463044;-0.19989013671875;-0.0092193603515625;4.08999998967374;410;1 A
21.2776319462791;-0.199920654296875;-0.00927734375;4.0999999896485;411;1 A
21.2876319462539;-0.199859619140625;-0.0092132568359375;4.10999998962325;412;1 A
21.2976319462286;-0.19989013671875;-0.00914916992187501;4.119999989598;413;1 A
21.3076319462034;-0.199798583984375;-0.0092193603515625;4.12999998957275;414;1 A
21.3176319461782;-0.199859619140625;-0.00922546386718751;4.1399999895475;415;1 A
21.3276319461529;-0.199859619140625;-0.00913085937499999;4.14999998952226;416;1 A
21.3376319461277;-0.199798583984375;-0.0091827392578125;4.15999998949701;417;1 A
21.3476319461024;-0.199920654296875;-0.00926513671875;4.16999998947176;418;1 A
21.3576319460772;-0.1998291015625;-0.0092193603515625;4.17999998944651;419;1 A
21.3676319460519;-0.199920654296875;-0.00917968750000001;4.18999998942127;420;1 A
21.3776319460267;-0.199951171875;-0.00927124023437501;4.19999998939602;421;1 A
21.3876319460014;-0.199859619140625;-0.00927734375;4.20999998937077;422;1 A
21.3976319459762;-0.19989013671875;-0.00917968750000001;4.21999998934552;423;1 A
21.4076319459509;-0.199920654296875;-0.0092132568359375;4.22999998932028;424;1 A
21.4176319459257;-0.199920654296875;-0.00916442871093751;4.23999998929503;425;1 A
21.4276319459004;-0.199859619140625;-0.0091278076171875;4.24999998926978;426;1 A
21.4376319458752;-0.19989013671875;-0.009063720703125;4.25999998924453;427;1 A
21.4476319458499;-0.199920654296875;-0.009173583984375;4.26999998921929;428;1 A
21.4576319458247;-0.1998291015625;-0.00916748046875;4.27999998919404;429;1 A
21.4676319457994;-0.199920654296875;-0.00911865234375001;4.28999998916879;430;1 A
21.4776319457742;-0.199798583984375;-0.0092010498046875;4.29999998914354;431;1 A
21.4876319457489;-0.19989013671875;-0.009228515625;4.3099999891183;432;1 A
21.4976319457237;-0.19989013671875;-0.0091217041015625;4.31999998909305;433;1 A
21.5076319456984;-0.199859619140625;-0.00911560058593749;4.3299999890678;434;1 A
21.5176319456732;-0.19989013671875;-0.00914916992187501;4.33999998904255;435;1 A
21.527631945648;-0.199859619140625;-0.00910034179687499;4.34999998901731;436;1 A
21.5376319456227;-0.19989013671875;-0.0090362548828125;4.35999998899206;437;1 A
21.5476319455975;-0.199859619140625;-0.00910339355468751;4.36999998896681;438;1 A
21.5576319455722;-0.20001220703125;-0.00911865234375001;4.37999998894156;439;1 A
21.567631945547;-0.199859619140625;-0.009112548828125;4.38999998891632;440;1 A
21.5776319455217;-0.19989013671875;-0.00897827148437499;4.39999998889107;441;1 A
21.5876319454965;-0.199920654296875;-0.00916442871093751;4.40999998886582;442;1 A
21.5976319454712;-0.199859619140625;-0.00908508300781249;4.41999998884057;443;1 A
21.607631945446;-0.199920654296875;-0.0090789794921875;4.42999998881533;444;1 A
21.6176319454207;-0.199920654296875;-0.00916748046875;4.43999998879008;445;1 A
21.6276319453955;-0.199920654296875;-0.009197998046875;4.44999998876483;446;1 A
21.6376319453702;-0.19989013671875;-0.00914611816406249;4.45999998873958;447;1 A
21.647631945345;-0.19989013671875;-0.00916137695312499;4.46999998871433;448;1 A
21.6576319453197;-0.199920654296875;-0.00921630859375;4.47999998868909;449;1 A
21.6676319452945;-0.199859619140625;-0.0091094970703125;4.48999998866384;450;1 A
21.6776319452692;-0.19989013671875;-0.00908203125;4.49999998863859;451;1 A
21.687631945244;-0.199859619140625;-0.00910339355468751;4.50999998861334;452;1 A
21.6976319452187;-0.199920654296875;-0.009075927734375;4.5199999885881;453;1 A
21.7076319451935;-0.20001220703125;-0.0090301513671875;4.52999998856285;454;1 A
21.7176319451683;-0.1998291015625;-0.00909423828125;4.5399999885376;455;1 A
21.727631945143;-0.199951171875;-0.00916442871093751;4.54999998851235;456;1 A
21.7376319451178;-0.199920654296875;-0.00911865234375001;4.55999998848711;457;1 A
21.7476319450925;-0.199920654296875;-0.009136962890625;4.56999998846186;458;1 A
21.7576319450673;-0.199920654296875;-0.00916137695312499;4.57999998843661;459;1 A
21.767631945042;-0.199920654296875;-0.00906982421874999;4.58999998841136;460;1 A
21.7776319450168;-0.199951171875;-0.0090179443359375;4.59999998838612;461;1 A
21.7876319449915;-0.199859619140625;-0.00904541015625;4.60999998836087;462;1 A
21.7976319449663;-0.199951171875;-0.00902709960937501;4.61999998833562;463;1 A
21.807631944941;-0.199859619140625;-0.00895080566406251;4.62999998831037;464;1 A
21.8176319449158;-0.199951171875;-0.008953857421875;4.63999998828513;465;1 A
21.8276319448905;-0.199920654296875;-0.00899658203125001;4.64999998825988;466;1 A
21.8376319448653;-0.1998291015625;-0.0089141845703125;4.65999998823463;467;1 A
21.84763194484;-0.199951171875;-0.0088653564453125;4.66999998820938;468;1 A
21.8576319448148;-0.199951171875;-0.0089447021484375;4.67999998818414;469;1 A
21.8676319447895;-0.19989013671875;-0.0089691162109375;4.68999998815889;470;1 A
21.8776319447643;-0.19989013671875;-0.0088958740234375;4.69999998813364;471;1 A
21.887631944739;-0.19989013671875;-0.00893554687500001;4.70999998810839;472;1 A
21.8976319447138;-0.199920654296875;-0.00902099609375;4.71999998808315;473;1 A
21.9076319446885;-0.19989013671875;-0.0089691162109375;4.7299999880579;474;1 A
21.9176319446633;-0.199920654296875;-0.00895080566406251;4.73999998803265;475;1 A
21.9276319446381;-0.199920654296875;-0.00904235839843751;4.7499999880074;476;1 A
21.9376319446128;-0.199920654296875;-0.0089874267578125;4.75999998798216;477;1 A
21.9476319445876;-0.199981689453125;-0.0089141845703125;4.76999998795691;478;1 A
21.9576319445623;-0.199859619140625;-0.00896606445312501;4.77999998793166;479;1 A
21.9676319445371;-0.199920654296875;-0.00899353027343749;4.78999998790641;480;1 A
21.9776319445118;-0.19989013671875;-0.0089080810546875;4.79999998788116;481;1 A
21.9876319444866;-0.199951171875;-0.0089111328125;4.80999998785592;482;1 A
21.9976319444613;-0.199859619140625;-0.008990478515625;4.81999998783067;483;1 A
22.0076319444361;-0.199859619140625;-0.008953857421875;4.82999998780542;484;1 A
22.0176319444108;-0.199981689453125;-0.00890197753906249;4.83999998778017;485;1 A
22.0276319443856;-0.199920654296875;-0.0089996337890625;4.84999998775493;486;1 A
22.0376319443603;-0.19989013671875;-0.0090179443359375;4.85999998772968;487;1 A
22.0476319443351;-0.19989013671875;-0.0089141845703125;4.86999998770443;488;1 A
22.0576319443098;-0.199951171875;-0.00891723632812499;4.87999998767918;489;1 A
22.0676319442846;-0.199981689453125;-0.008929443359375;4.88999998765394;490;1 A
22.0776319442593;-0.199920654296875;-0.008837890625;4.89999998762869;491;1 A
22.0876319442341;-0.199951171875;-0.0087921142578125;4.90999998760344;492;1 A
22.0976319442088;-0.19989013671875;-0.00887145996093749;4.91999998757819;493;1 A
22.1076319441836;-0.199859619140625;-0.00892333984375;4.92999998755295;494;1 A
22.1176319441583;-0.19989013671875;-0.0089111328125;4.9399999875277;495;1 A
22.1276319441331;-0.19989013671875;-0.0090179443359375;4.94999998750245;496;1 A
22.1376319441079;-0.199951171875;-0.0089996337890625;4.9599999874772;497;1 A
22.1476319440826;-0.19989013671875;-0.0089874267578125;4.96999998745196;498;1 A
22.1576319440574;-0.199859619140625;-0.00898132324218751;4.97999998742671;499;1 A
22.1676319440321;-0.199951171875;-0.0090362548828125;4.98999998740146;500;1 A
22.1776319440069;-0.20001220703125;-0.00899353027343749;4.99999998737621;501;1 A
22.1876319439816;-0.199920654296875;-0.0089263916015625;5.00999998735097;502;1 A
22.1976319439564;-0.199920654296875;-0.0089874267578125;5.01999998732572;503;1 A
22.2076319439311;-0.199920654296875;-0.0090484619140625;5.02999998730047;504;1 A
22.2176319439059;-0.19989013671875;-0.00896301269531249;5.03999998727522;505;1 A
22.2276319438806;-0.199920654296875;-0.0090301513671875;5.04999998724998;506;1 A
22.2376319438554;-0.199920654296875;-0.00914916992187501;5.05999998722473;507;1 A
22.2476319438301;-0.199859619140625;-0.00914916992187501;5.06999998719948;508;1 A
22.2576319438049;-0.199981689453125;-0.00911865234375001;5.07999998717423;509;1 A
22.2676319437796;-0.1998291015625;-0.0092010498046875;5.08999998714899;510;1 A
22.2776319437544;-0.19989013671875;-0.009234619140625;5.09999998712374;511;1 A
22.2876319437291;-0.19989013671875;-0.00916442871093751;5.10999998709849;512;1 A
22.2976319437039;-0.199920654296875;-0.00917663574218749;5.11999998707324;513;1 A
22.3076319436786;-0.199951171875;-0.00923767089843749;5.129999987048;514;1 A
22.3176319436534;-0.199859619140625;-0.00916442871093751;5.13999998702275;515;1 A
22.3276319436281;-0.199951171875;-0.009112548828125;5.1499999869975;516;1 A
22.3376319436029;-0.199859619140625;-0.00913085937499999;5.15999998697225;517;1 A
22.3476319435777;-0.199951171875;-0.0090972900390625;5.169999986947;518;1 A
22.3576319435524;-0.199920654296875;-0.009014892578125;5.17999998692176;519;1 A
22.3676319435272;-0.199951171875;-0.00905761718750001;5.18999998689651;520;1 A
22.3776319435019;-0.199951171875;-0.009112548828125;5.19999998687126;521;1 A
22.3876319434767;-0.199920654296875;-0.0090484619140625;5.20999998684601;522;1 A
22.3976319434514;-0.199920654296875;-0.0090667724609375;5.21999998682077;523;1 A
22.4076319434262;-0.199951171875;-0.0091400146484375;5.22999998679552;524;1 A
22.4176319434009;-0.199920654296875;-0.00910034179687499;5.23999998677027;525;1 A
22.4276319433757;-0.199981689453125;-0.00895080566406251;5.24999998674502;526;1 A
22.4376319433504;-0.199798583984375;-0.0091522216796875;5.25999998671978;527;1 A
22.4476319433252;-0.199951171875;-0.00921630859375;5.26999998669453;528;1 A
22.4576319432999;-0.199920654296875;-0.00914611816406249;5.27999998666928;529;1 A
22.4676319432747;-0.199951171875;-0.0091278076171875;5.28999998664403;530;1 A
22.4776319432494;-0.19989013671875;-0.00917968750000001;5.29999998661879;531;1 A
22.4876319432242;-0.199859619140625;-0.00911560058593749;5.30999998659354;532;1 A
22.4976319431989;-0.199951171875;-0.009063720703125;5.31999998656829;533;1 A
22.5076319431737;-0.19989013671875;-0.00914306640625;5.32999998654304;534;1 A
22.5176319431484;-0.199981689453125;-0.0092315673828125;5.3399999865178;535;1 A
22.5276319431232;-0.19989013671875;-0.0092193603515625;5.34999998649255;536;1 A
22.5376319430979;-0.19989013671875;-0.0092803955078125;5.3599999864673;537;1 A
22.5476319430727;-0.199920654296875;-0.00935974121093749;5.36999998644205;538;1 A
22.5576319430475;-0.19989013671875;-0.00926818847656249;5.37999998641681;539;1 A
22.5676319430222;-0.20001220703125;-0.0092315673828125;5.38999998639156;540;1 A
22.577631942997;-0.199951171875;-0.009307861328125;5.39999998636631;541;1 A
22.5876319429717;-0.199951171875;-0.00930175781250001;5.40999998634106;542;1 A
22.5976319429465;-0.199951171875;-0.0092132568359375;5.41999998631582;543;1 A
22.6076319429212;-0.199951171875;-0.0092498779296875;5.42999998629057;544;1 A
22.617631942896;-0.199981689453125;-0.00924072265625001;5.43999998626532;545;1 A
22.6276319428707;-0.199920654296875;-0.0091094970703125;5.44999998624007;546;1 A
22.6376319428455;-0.199920654296875;-0.00902404785156249;5.45999998621483;547;1 A
22.6476319428202;-0.199920654296875;-0.008990478515625;5.46999998618958;548;1 A
22.657631942795;-0.199951171875;-0.0089080810546875;5.47999998616433;549;1 A
22.6676319427697;-0.20001220703125;-0.0088165283203125;5.48999998613908;550;1 A
22.6776319427445;-0.19989013671875;-0.00885925292968751;5.49999998611383;551;1 A
22.6876319427192;-0.199951171875;-0.00892333984375;5.50999998608859;552;1 A
22.697631942694;-0.19989013671875;-0.0088348388671875;5.51999998606334;553;1 A
22.7076319426687;-0.199981689453125;-0.008892822265625;5.52999998603809;554;1 A
22.7176319426435;-0.19989013671875;-0.00899658203125001;5.53999998601284;555;1 A
22.7276319426182;-0.199920654296875;-0.00899658203125001;5.5499999859876;556;1 A
22.737631942593;-0.199981689453125;-0.008990478515625;5.55999998596235;557;1 A
22.7476319425678;-0.199920654296875;-0.009063720703125;5.5699999859371;558;1 A
22.7576319425425;-0.199920654296875;-0.0090667724609375;5.57999998591185;559;1 A
22.7676319425173;-0.199951171875;-0.00897216796875;5.58999998588661;560;1 A
22.777631942492;-0.19989013671875;-0.00899353027343749;5.59999998586136;561;1 A
22.7876319424668;-0.199920654296875;-0.0090606689453125;5.60999998583611;562;1 A
22.7976319424415;-0.199859619140625;-0.009014892578125;5.61999998581086;563;1 A
22.8076319424163;-0.199951171875;-0.0089874267578125;5.62999998578562;564;1 A
22.817631942391;-0.19989013671875;-0.0090301513671875;5.63999998576037;565;1 A
22.8276319423658;-0.199920654296875;-0.009002685546875;5.64999998573512;566;1 A
22.8376319423405;-0.199920654296875;-0.0089111328125;5.65999998570987;567;1 A
22.8476319423153;-0.19989013671875;-0.008941650390625;5.66999998568463;568;1 A
22.85763194229;-0.199981689453125;-0.00899353027343749;5.67999998565938;569;1 A
22.8676319422648;-0.1998291015625;-0.008941650390625;5.68999998563413;570;1 A
22.8776319422395;-0.199920654296875;-0.00899658203125001;5.69999998560888;571;1 A
22.8876319422143;-0.19989013671875;-0.00910339355468751;5.70999998558364;572;1 A
22.897631942189;-0.199859619140625;-0.0090667724609375;5.71999998555839;573;1 A
22.9076319421638;-0.20001220703125;-0.00902404785156249;5.72999998553314;574;1 A
22.9176319421385;-0.199859619140625;-0.00907287597656251;5.73999998550789;575;1 A
22.9276319421133;-0.199951171875;-0.00849304199218751;5.74999998548265;576;1 A
22.937631942088;-0.199920654296875;-0.0090362548828125;5.7599999854574;577;1 A
22.9476319420628;-0.19989013671875;-0.009051513671875;5.76999998543215;578;1 A
22.9576319420376;-0.19989013671875;-0.009124755859375;5.7799999854069;579;1 A
22.9676319420123;-0.199859619140625;-0.00913391113281251;5.78999998538166;580;1 A
22.9776319419871;-0.199981689453125;-0.00909423828125;5.79999998535641;581;1 A
22.9876319419618;-0.19989013671875;-0.00911865234375001;5.80999998533116;582;1 A
22.9976319419366;-0.199951171875;-0.00911865234375001;5.81999998530591;583;1 A
23.0076319419113;-0.199981689453125;-0.0090484619140625;5.82999998528066;584;1 A
23.0176319418861;-0.199951171875;-0.00909423828125;5.83999998525542;585;1 A
23.0276319418608;-0.19989013671875;-0.0092041015625;5.84999998523017;586;1 A
23.0376319418356;-0.199859619140625;-0.00913391113281251;5.85999998520492;587;1 A
23.0476319418103;-0.199920654296875;-0.00908203125;5.86999998517967;588;1 A
23.0576319417851;-0.199920654296875;-0.00914916992187501;5.87999998515443;589;1 A
23.0676319417598;-0.199951171875;-0.0091094970703125;5.88999998512918;590;1 A
23.0776319417346;-0.199920654296875;-0.0089996337890625;5.89999998510393;591;1 A
23.0876319417093;-0.199920654296875;-0.00897827148437499;5.90999998507868;592;1 A
23.0976319416841;-0.199951171875;-0.009002685546875;5.91999998505344;593;1 A
23.1076319416588;-0.199951171875;-0.0089385986328125;5.92999998502819;594;1 A
23.1176319416336;-0.199920654296875;-0.00896606445312501;5.93999998500294;595;1 A
23.1276319416083;-0.199951171875;-0.0090484619140625;5.94999998497769;596;1 A
23.1376319415831;-0.199920654296875;-0.0090179443359375;5.95999998495245;597;1 A
23.1476319415578;-0.199981689453125;-0.00896301269531249;5.9699999849272;598;1 A
23.1576319415326;-0.199951171875;-0.009014892578125;5.97999998490195;599;1 A
23.1676319415074;-0.199951171875;-0.00905761718750001;5.9899999848767;600;1 A
23.1776319414821;-0.199951171875;-0.009014892578125;5.99999998485146;601;1 A
23.1876319414569;-0.199951171875;-0.00904235839843751;6.00999998482621;602;1 A
23.1976319414316;-0.19989013671875;-0.0091278076171875;6.01999998480096;603;1 A
23.2076319414064;-0.199951171875;-0.00910034179687499;6.02999998477571;604;1 A
23.2176319413811;-0.199981689453125;-0.0090484619140625;6.03999998475047;605;1 A
23.2276319413559;-0.199859619140625;-0.009112548828125;6.04999998472522;606;1 A
23.2376319413306;-0.199981689453125;-0.00907287597656251;6.05999998469997;607;1 A
23.2476319413054;-0.199981689453125;-0.008953857421875;6.06999998467472;608;1 A
23.2576319412801;-0.199951171875;-0.0089263916015625;6.07999998464948;609;1 A
23.2676319412549;-0.199920654296875;-0.0089447021484375;6.08999998462423;610;1 A
23.2776319412296;-0.199951171875;-0.0088958740234375;6.09999998459898;611;1 A
23.2876319412044;-0.199920654296875;-0.008880615234375;6.10999998457373;612;1 A
23.2976319411791;-0.199920654296875;-0.0089141845703125;6.11999998454849;613;1 A
23.3076319411539;-0.19989013671875;-0.0090362548828125;6.12999998452324;614;1 A
23.3176319411286;-0.199951171875;-0.0089996337890625;6.13999998449799;615;1 A
23.3276319411034;-0.199920654296875;-0.0090789794921875;6.14999998447274;616;1 A
23.3376319410781;-0.199951171875;-0.00916442871093751;6.1599999844475;617;1 A
23.3476319410529;-0.199859619140625;-0.00908203125;6.16999998442225;618;1 A
23.3576319410276;-0.199951171875;-0.00905456542968749;6.179999984397;619;1 A
23.3676319410024;-0.199920654296875;-0.009136962890625;6.18999998437175;620;1 A
23.3776319409772;-0.199951171875;-0.00913391113281251;6.1999999843465;621;1 A
23.3876319409519;-0.199981689453125;-0.00906982421874999;6.20999998432126;622;1 A
23.3976319409267;-0.199951171875;-0.00914611816406249;6.21999998429601;623;1 A
23.4076319409014;-0.19989013671875;-0.0092315673828125;6.22999998427076;624;1 A
23.4176319408762;-0.199920654296875;-0.00914916992187501;6.23999998424551;625;1 A
23.4276319408509;-0.199920654296875;-0.00916137695312499;6.24999998422027;626;1 A
23.4376319408257;-0.19989013671875;-0.0091888427734375;6.25999998419502;627;1 A
23.4476319408004;-0.199920654296875;-0.00911865234375001;6.26999998416977;628;1 A
23.4576319407752;-0.199920654296875;-0.00911560058593749;6.27999998414452;629;1 A
23.4676319407499;-0.199920654296875;-0.00922546386718751;6.28999998411928;630;1 A
23.4776319407247;-0.199951171875;-0.00928344726562499;6.29999998409403;631;1 A
23.4876319406994;-0.19989013671875;-0.0092041015625;6.30999998406878;632;1 A
23.4976319406742;-0.199981689453125;-0.009228515625;6.31999998404353;633;1 A
23.5076319406489;-0.199920654296875;-0.0093231201171875;6.32999998401829;634;1 A
23.5176319406237;-0.199951171875;-0.0092742919921875;6.33999998399304;635;1 A
23.5276319405984;-0.199920654296875;-0.0092498779296875;6.34999998396779;636;1 A
23.5376319405732;-0.19989013671875;-0.0093109130859375;6.35999998394254;637;1 A
23.5476319405479;-0.199920654296875;-0.00928955078125;6.3699999839173;638;1 A
23.5576319405227;-0.19989013671875;-0.00925598144531251;6.37999998389205;639;1 A
23.5676319404974;-0.199920654296875;-0.009368896484375;6.3899999838668;640;1 A
23.5776319404722;-0.199920654296875;-0.009478759765625;6.39999998384155;641;1 A
23.587631940447;-0.199920654296875;-0.0094329833984375;6.40999998381631;642;1 A
23.5976319404217;-0.199920654296875;-0.00942382812500001;6.41999998379106;643;1 A
23.6076319403965;-0.199951171875;-0.00946655273437499;6.42999998376581;644;1 A
23.6176319403712;-0.20001220703125;-0.00937805175781251;6.43999998374056;645;1 A
23.627631940346;-0.199981689453125;-0.00927734375;6.44999998371532;646;1 A
23.6376319403207;-0.199951171875;-0.009259033203125;6.45999998369007;647;1 A
23.6476319402955;-0.199951171875;-0.009197998046875;6.46999998366482;648;1 A
23.6576319402702;-0.199920654296875;-0.00908813476562501;6.47999998363957;649;1 A
23.667631940245;-0.199951171875;-0.00906982421874999;6.48999998361433;650;1 A
23.6776319402197;-0.199920654296875;-0.0090484619140625;6.49999998358908;651;1 A
23.6876319401945;-0.199981689453125;-0.00911865234375001;6.50999998356383;652;1 A
23.6976319401692;-0.199951171875;-0.00908813476562501;6.51999998353858;653;1 A
23.707631940144;-0.19989013671875;-0.00914306640625;6.52999998351333;654;1 A
23.7176319401187;-0.199951171875;-0.0091583251953125;6.53999998348809;655;1 A
23.7276319400935;-0.199920654296875;-0.0090911865234375;6.54999998346284;656;1 A
23.7376319400682;-0.199981689453125;-0.00914306640625;6.55999998343759;657;1 A
23.747631940043;-0.199951171875;-0.00917968750000001;6.56999998341234;658;1 A
23.7576319400177;-0.199920654296875;-0.0091064453125;6.5799999833871;659;1 A
23.7676319399925;-0.199951171875;-0.00908203125;6.58999998336185;660;1 A
23.7776319399673;-0.199920654296875;-0.009185791015625;6.5999999833366;661;1 A
23.787631939942;-0.199951171875;-0.0092010498046875;6.60999998331135;662;1 A
23.7976319399168;-0.199981689453125;-0.009136962890625;6.61999998328611;663;1 A
23.8076319398915;-0.199951171875;-0.00887451171875001;6.62999998326086;664;1 A
23.8176319398663;-0.199951171875;-0.009246826171875;6.63999998323561;665;1 A
23.827631939841;-0.199859619140625;-0.00919189453124999;6.64999998321036;666;1 A
23.8376319398158;-0.199981689453125;-0.00919189453124999;6.65999998318512;667;1 A
23.8476319397905;-0.199920654296875;-0.00926818847656249;6.66999998315987;668;1 A
23.8576319397653;-0.19989013671875;-0.009259033203125;6.67999998313462;669;1 A
23.86763193974;-0.20001220703125;-0.00919189453124999;6.68999998310937;670;1 A
23.8776319397148;-0.199920654296875;-0.009246826171875;6.69999998308413;671;1 A
23.8876319396895;-0.199920654296875;-0.00929870605468749;6.70999998305888;672;1 A
23.8976319396643;-0.199920654296875;-0.00921630859375;6.71999998303363;673;1 A
23.907631939639;-0.20001220703125;-0.0092315673828125;6.72999998300838;674;1 A
23.9176319396138;-0.19989013671875;-0.00929870605468749;6.73999998298314;675;1 A
23.9276319395885;-0.199920654296875;-0.00928344726562499;6.74999998295789;676;1 A
23.9376319395633;-0.199951171875;-0.009246826171875;6.75999998293264;677;1 A
23.947631939538;-0.19989013671875;-0.0093353271484375;6.76999998290739;678;1 A
23.9576319395128;-0.199951171875;-0.00939025878906249;6.77999998288215;679;1 A
23.9676319394875;-0.19989013671875;-0.0093414306640625;6.7899999828569;680;1 A
23.9776319394623;-0.199981689453125;-0.00938720703125;6.79999998283165;681;1 A
23.9876319394371;-0.199920654296875;-0.0094268798828125;6.8099999828064;682;1 A
23.9976319394118;-0.199920654296875;-0.0093048095703125;6.81999998278116;683;1 A
24.0076319393866;-0.199951171875;-0.0092742919921875;6.82999998275591;684;1 A
24.0176319393613;-0.199951171875;-0.0093109130859375;6.83999998273066;685;1 A
24.0276319393361;-0.20001220703125;-0.00927734375;6.84999998270541;686;1 A
24.0376319393108;-0.199920654296875;-0.00919189453124999;6.85999998268016;687;1 A
24.0476319392856;-0.199920654296875;-0.00920715332031249;6.86999998265492;688;1 A
24.0576319392603;-0.199951171875;-0.00921630859375;6.87999998262967;689;1 A
24.0676319392351;-0.19989013671875;-0.009112548828125;6.88999998260442;690;1 A
24.0776319392098;-0.199951171875;-0.00909423828125;6.89999998257917;691;1 A
24.0876319391846;-0.19989013671875;-0.00916748046875;6.90999998255393;692;1 A
24.0976319391593;-0.19989013671875;-0.00911865234375001;6.91999998252868;693;1 A
24.1076319391341;-0.199981689453125;-0.0090606689453125;6.92999998250343;694;1 A
24.1176319391088;-0.199951171875;-0.00913085937499999;6.93999998247818;695;1 A
24.1276319390836;-0.199951171875;-0.0091552734375;6.94999998245294;696;1 A
24.1376319390583;-0.199981689453125;-0.00906982421874999;6.95999998242769;697;1 A
24.1476319390331;-0.199981689453125;-0.00910034179687499;6.96999998240244;698;1 A
24.1576319390078;-0.199920654296875;-0.00921020507812501;6.97999998237719;699;1 A
24.1676319389826;-0.199951171875;-0.009173583984375;6.98999998235195;700;1 A
