Time (s);WE(1).Potential (V);WE(1).Current (A);Corrected time (s);Index;Current range
24.996861936889;0.60107421875;1.06781005859375;0;1;1 A
25.0068619368637;0.5999755859375;0.76629638671875;0.00999999997475243;2;1 A
25.0168619368385;0.599853515625;0.631103515625;0.0199999999495049;3;1 A
25.0268619368132;0.599578857421875;0.54840087890625;0.0299999999242573;4;1 A
25.036861936788;0.599609375;0.49530029296875;0.0399999998990097;5;1 A
25.0468619367628;0.599609375;0.45587158203125;0.0499999998737621;6;1 A
25.0568619367375;0.59967041015625;0.42437744140625;0.0599999998485146;7;1 A
25.0668619367123;0.599578857421875;0.40234375;0.069999999823267;8;1 A
25.076861936687;0.599609375;0.385040283203125;0.0799999997980194;9;1 A
25.0868619366618;0.59954833984375;0.3682861328125;0.0899999997727718;10;1 A
25.0968619366365;0.59954833984375;0.35626220703125;0.0999999997475243;11;1 A
25.1068619366113;0.599456787109375;0.3492431640625;0.109999999722277;12;1 A
25.116861936586;0.599609375;0.340850830078125;0.119999999697029;13;1 A
25.1268619365608;0.599456787109375;0.332733154296875;0.129999999671782;14;1 A
25.1368619365355;0.599700927734375;0.32891845703125;0.139999999646534;15;1 A
25.1468619365103;0.599517822265625;0.325286865234375;0.149999999621286;16;1 A
25.156861936485;0.59967041015625;0.31915283203125;0.159999999596039;17;1 A
25.1668619364598;0.599517822265625;0.31658935546875;0.169999999570791;18;1 A
25.1768619364345;0.599609375;0.316925048828125;0.179999999545544;19;1 A
25.1868619364093;0.59967041015625;0.314422607421875;0.189999999520296;20;1 A
25.196861936384;0.59954833984375;0.312835693359375;0.199999999495049;21;1 A
25.2068619363588;0.59954833984375;0.310546875;0.209999999469801;22;1 A
25.2168619363335;0.599578857421875;0.304473876953125;0.219999999444553;23;1 A
25.2268619363083;0.599639892578125;0.301361083984375;0.229999999419306;24;1 A
25.236861936283;0.599609375;0.29931640625;0.239999999394058;25;1 A
25.2468619362578;0.59954833984375;0.299072265625;0.249999999368811;26;1 A
25.2568619362326;0.599578857421875;0.2957763671875;0.259999999343563;27;1 A
25.2668619362073;0.5994873046875;0.293609619140625;0.269999999318316;28;1 A
25.2768619361821;0.59954833984375;0.2933349609375;0.279999999293068;29;1 A
25.2868619361568;0.59954833984375;0.29205322265625;0.28999999926782;30;1 A
25.2968619361316;0.599578857421875;0.29132080078125;0.299999999242573;31;1 A
25.3068619361063;0.599517822265625;0.2901611328125;0.309999999217325;32;1 A
25.3168619360811;0.599609375;0.2886962890625;0.319999999192078;33;1 A
25.3268619360558;0.59954833984375;0.287841796875;0.32999999916683;34;1 A
25.3368619360306;0.599517822265625;0.285919189453125;0.339999999141583;35;1 A
25.3468619360053;0.599578857421875;0.28546142578125;0.349999999116335;36;1 A
25.3568619359801;0.599609375;0.28765869140625;0.359999999091087;37;1 A
25.3668619359548;0.59942626953125;0.29168701171875;0.36999999906584;38;1 A
25.3768619359296;0.599609375;0.28887939453125;0.379999999040592;39;1 A
25.3868619359043;0.599609375;0.28802490234375;0.389999999015345;40;1 A
25.3968619358791;0.599609375;0.288726806640625;0.399999998990097;41;1 A
25.4068619358538;0.599578857421875;0.2855224609375;0.40999999896485;42;1 A
25.4168619358286;0.59954833984375;0.284271240234375;0.419999998939602;43;1 A
25.4268619358033;0.599578857421875;0.281768798828125;0.429999998914354;44;1 A
25.4368619357781;0.599578857421875;0.2825927734375;0.439999998889107;45;1 A
25.4468619357528;0.599639892578125;0.284454345703125;0.449999998863859;46;1 A
25.4568619357276;0.599639892578125;0.2855224609375;0.459999998838612;47;1 A
25.4668619357024;0.59954833984375;0.28680419921875;0.469999998813364;48;1 A
25.4768619356771;0.59967041015625;0.2843017578125;0.479999998788116;49;1 A
25.4868619356519;0.59954833984375;0.28564453125;0.489999998762869;50;1 A
25.4968619356266;0.599609375;0.28411865234375;0.499999998737621;51;1 A
25.5068619356014;0.599517822265625;0.28399658203125;0.509999998712374;52;1 A
25.5168619355761;0.599517822265625;0.291351318359375;0.519999998687126;53;1 A
25.5268619355509;0.599578857421875;0.28973388671875;0.529999998661879;54;1 A
25.5368619355256;0.599609375;0.289306640625;0.539999998636631;55;1 A
25.5468619355004;0.59954833984375;0.289459228515625;0.549999998611383;56;1 A
25.5568619354751;0.599609375;0.291290283203125;0.559999998586136;57;1 A
25.5668619354499;0.599517822265625;0.298858642578125;0.569999998560888;58;1 A
25.5768619354246;0.599609375;0.29547119140625;0.579999998535641;59;1 A
25.5868619353994;0.59954833984375;0.294342041015625;0.589999998510393;60;1 A
25.5968619353741;0.599578857421875;0.291473388671875;0.599999998485146;61;1 A
25.6068619353489;0.5994873046875;0.293243408203125;0.609999998459898;62;1 A
25.6168619353236;0.599700927734375;0.2939453125;0.61999999843465;63;1 A
25.6268619352984;0.599578857421875;0.29132080078125;0.629999998409403;64;1 A
25.6368619352731;0.59954833984375;0.290252685546875;0.639999998384155;65;1 A
25.6468619352479;0.599609375;0.286468505859375;0.649999998358908;66;1 A
25.6568619352227;0.599578857421875;0.2855224609375;0.65999999833366;67;1 A
25.6668619351974;0.599609375;0.285888671875;0.669999998308413;68;1 A
25.6768619351722;0.599578857421875;0.287689208984375;0.679999998283165;69;1 A
25.6868619351469;0.599578857421875;0.288299560546875;0.689999998257917;70;1 A
25.6968619351217;0.599578857421875;0.2899169921875;0.69999999823267;71;1 A
25.7068619350964;0.599517822265625;0.290008544921875;0.709999998207422;72;1 A
25.7168619350712;0.59967041015625;0.289215087890625;0.719999998182175;73;1 A
25.7268619350459;0.599517822265625;0.2904052734375;0.729999998156927;74;1 A
25.7368619350207;0.599578857421875;0.2921142578125;0.73999999813168;75;1 A
25.7468619349954;0.5994873046875;0.290863037109375;0.749999998106432;76;1 A
25.7568619349702;0.599517822265625;0.291748046875;0.759999998081184;77;1 A
25.7668619349449;0.59954833984375;0.289886474609375;0.769999998055937;78;1 A
25.7768619349197;0.59954833984375;0.29803466796875;0.779999998030689;79;1 A
25.7868619348944;0.59954833984375;0.296051025390625;0.789999998005442;80;1 A
25.7968619348692;0.599578857421875;0.295501708984375;0.799999997980194;81;1 A
25.8068619348439;0.599517822265625;0.295135498046875;0.809999997954947;82;1 A
25.8168619348187;0.599517822265625;0.29095458984375;0.819999997929699;83;1 A
25.8268619347934;0.59954833984375;0.29278564453125;0.829999997904451;84;1 A
25.8368619347682;0.599578857421875;0.288787841796875;0.839999997879204;85;1 A
25.8468619347429;0.59954833984375;0.288970947265625;0.849999997853956;86;1 A
25.8568619347177;0.59967041015625;0.29010009765625;0.859999997828709;87;1 A
25.8668619346925;0.599639892578125;0.28729248046875;0.869999997803461;88;1 A
25.8768619346672;0.59954833984375;0.2877197265625;0.879999997778214;89;1 A
25.886861934642;0.599639892578125;0.281829833984375;0.889999997752966;90;1 A
25.8968619346167;0.599578857421875;0.281097412109375;0.899999997727718;91;1 A
25.9068619345915;0.599609375;0.28350830078125;0.909999997702471;92;1 A
25.9168619345662;0.599578857421875;0.284515380859375;0.919999997677223;93;1 A
25.926861934541;0.599609375;0.28143310546875;0.929999997651976;94;1 A
25.9368619345157;0.599578857421875;0.281646728515625;0.939999997626728;95;1 A
25.9468619344905;0.599456787109375;0.291046142578125;0.949999997601481;96;1 A
25.9568619344652;0.59967041015625;0.287506103515625;0.959999997576233;97;1 A
25.96686193444;0.59942626953125;0.288330078125;0.969999997550985;98;1 A
25.9768619344147;0.599609375;0.289337158203125;0.979999997525738;99;1 A
25.9868619343895;0.5994873046875;0.287933349609375;0.98999999750049;100;1 A
25.9968619343642;0.599609375;0.287750244140625;0.999999997475243;101;1 A
26.006861934339;0.599578857421875;0.28948974609375;1.00999999745;102;1 A
26.0168619343137;0.59954833984375;0.2926025390625;1.01999999742475;103;1 A
26.0268619342885;0.599578857421875;0.292633056640625;1.0299999973995;104;1 A
26.0368619342632;0.599609375;0.293914794921875;1.03999999737425;105;1 A
26.046861934238;0.599517822265625;0.296051025390625;1.049999997349;106;1 A
26.0568619342127;0.599609375;0.293060302734375;1.05999999732376;107;1 A
26.0668619341875;0.599578857421875;0.296844482421875;1.06999999729851;108;1 A
26.0768619341623;0.599609375;0.296722412109375;1.07999999727326;109;1 A
26.086861934137;0.599517822265625;0.29681396484375;1.08999999724801;110;1 A
26.0968619341118;0.599639892578125;0.296295166015625;1.09999999722277;111;1 A
26.1068619340865;0.599639892578125;0.29547119140625;1.10999999719752;112;1 A
26.1168619340613;0.59954833984375;0.30181884765625;1.11999999717227;113;1 A
26.126861934036;0.599609375;0.29486083984375;1.12999999714702;114;1 A
26.1368619340108;0.59954833984375;0.293914794921875;1.13999999712178;115;1 A
26.1468619339855;0.599609375;0.2928466796875;1.14999999709653;116;1 A
26.1568619339603;0.59954833984375;0.29339599609375;1.15999999707128;117;1 A
26.166861933935;0.599609375;0.293487548828125;1.16999999704603;118;1 A
26.1768619339098;0.599609375;0.293182373046875;1.17999999702079;119;1 A
26.1868619338845;0.59954833984375;0.30010986328125;1.18999999699554;120;1 A
26.1968619338593;0.59967041015625;0.300262451171875;1.19999999697029;121;1 A
26.206861933834;0.599517822265625;0.299224853515625;1.20999999694504;122;1 A
26.2168619338088;0.599639892578125;0.296478271484375;1.2199999969198;123;1 A
26.2268619337835;0.599517822265625;0.29754638671875;1.22999999689455;124;1 A
26.2368619337583;0.599639892578125;0.296051025390625;1.2399999968693;125;1 A
26.246861933733;0.599639892578125;0.292327880859375;1.24999999684405;126;1 A
26.2568619337078;0.599639892578125;0.2921142578125;1.25999999681881;127;1 A
26.2668619336825;0.599578857421875;0.28936767578125;1.26999999679356;128;1 A
26.2768619336573;0.599578857421875;0.28839111328125;1.27999999676831;129;1 A
26.2868619336321;0.599456787109375;0.2884521484375;1.28999999674306;130;1 A
26.2968619336068;0.599639892578125;0.284423828125;1.29999999671782;131;1 A
26.3068619335816;0.599578857421875;0.284515380859375;1.30999999669257;132;1 A
26.3168619335563;0.599578857421875;0.283477783203125;1.31999999666732;133;1 A
26.3268619335311;0.599517822265625;0.283294677734375;1.32999999664207;134;1 A
26.3368619335058;0.599700927734375;0.28277587890625;1.33999999661683;135;1 A
26.3468619334806;0.599609375;0.282806396484375;1.34999999659158;136;1 A
26.3568619334553;0.599517822265625;0.289093017578125;1.35999999656633;137;1 A
26.3668619334301;0.599609375;0.283355712890625;1.36999999654108;138;1 A
26.3768619334048;0.59954833984375;0.284271240234375;1.37999999651583;139;1 A
26.3868619333796;0.599609375;0.2874755859375;1.38999999649059;140;1 A
26.3968619333543;0.599609375;0.290283203125;1.39999999646534;141;1 A
26.4068619333291;0.599609375;0.28839111328125;1.40999999644009;142;1 A
26.4168619333038;0.599639892578125;0.28302001953125;1.41999999641484;143;1 A
26.4268619332786;0.599609375;0.281158447265625;1.4299999963896;144;1 A
26.4368619332533;0.599609375;0.277252197265625;1.43999999636435;145;1 A
26.4468619332281;0.599578857421875;0.27740478515625;1.4499999963391;146;1 A
26.4568619332028;0.599639892578125;0.28021240234375;1.45999999631385;147;1 A
26.4668619331776;0.59942626953125;0.279693603515625;1.46999999628861;148;1 A
26.4768619331523;0.59954833984375;0.282318115234375;1.47999999626336;149;1 A
26.4868619331271;0.599639892578125;0.27880859375;1.48999999623811;150;1 A
26.4968619331019;0.599578857421875;0.27752685546875;1.49999999621286;151;1 A
26.5068619330766;0.59954833984375;0.277191162109375;1.50999999618762;152;1 A
26.5168619330514;0.599609375;0.27899169921875;1.51999999616237;153;1 A
26.5268619330261;0.599517822265625;0.2794189453125;1.52999999613712;154;1 A
26.5368619330009;0.599578857421875;0.27838134765625;1.53999999611187;155;1 A
26.5468619329756;0.59954833984375;0.279632568359375;1.54999999608663;156;1 A
26.5568619329504;0.599578857421875;0.2794189453125;1.55999999606138;157;1 A
26.5668619329251;0.5994873046875;0.28338623046875;1.56999999603613;158;1 A
26.5768619328999;0.599761962890625;0.28253173828125;1.57999999601088;159;1 A
26.5868619328746;0.59954833984375;0.28192138671875;1.58999999598564;160;1 A
26.5968619328494;0.599609375;0.2813720703125;1.59999999596039;161;1 A
26.6068619328241;0.599639892578125;0.2841796875;1.60999999593514;162;1 A
26.6168619327989;0.5994873046875;0.289764404296875;1.61999999590989;163;1 A
26.6268619327736;0.599578857421875;0.289306640625;1.62999999588465;164;1 A
26.6368619327484;0.599578857421875;0.2900390625;1.6399999958594;165;1 A
26.6468619327231;0.599609375;0.294219970703125;1.64999999583415;166;1 A
26.6568619326979;0.599609375;0.2919921875;1.6599999958089;167;1 A
26.6668619326726;0.5994873046875;0.30023193359375;1.66999999578366;168;1 A
26.6768619326474;0.599639892578125;0.294769287109375;1.67999999575841;169;1 A
26.6868619326222;0.599578857421875;0.2935791015625;1.68999999573316;170;1 A
26.6968619325969;0.599639892578125;0.2919921875;1.69999999570791;171;1 A
26.7068619325717;0.5994873046875;0.2906494140625;1.70999999568267;172;1 A
26.7168619325464;0.599609375;0.2918701171875;1.71999999565742;173;1 A
26.7268619325212;0.59967041015625;0.291778564453125;1.72999999563217;174;1 A
26.7368619324959;0.599609375;0.292236328125;1.73999999560692;175;1 A
26.7468619324707;0.599578857421875;0.291046142578125;1.74999999558167;176;1 A
26.7568619324454;0.599609375;0.291839599609375;1.75999999555643;177;1 A
26.7668619324202;0.5994873046875;0.294097900390625;1.76999999553118;178;1 A
26.7768619323949;0.599639892578125;0.2913818359375;1.77999999550593;179;1 A
26.7868619323697;0.59954833984375;0.292877197265625;1.78999999548068;180;1 A
26.7968619323444;0.599609375;0.2930908203125;1.79999999545544;181;1 A
26.8068619323192;0.599456787109375;0.296661376953125;1.80999999543019;182;1 A
26.8168619322939;0.599700927734375;0.30169677734375;1.81999999540494;183;1 A
26.8268619322687;0.599609375;0.298980712890625;1.82999999537969;184;1 A
26.8368619322434;0.599609375;0.299591064453125;1.83999999535445;185;1 A
26.8468619322182;0.599609375;0.294830322265625;1.8499999953292;186;1 A
26.8568619321929;0.599578857421875;0.29376220703125;1.85999999530395;187;1 A
26.8668619321677;0.599578857421875;0.290374755859375;1.8699999952787;188;1 A
26.8768619321424;0.599609375;0.288543701171875;1.87999999525346;189;1 A
26.8868619321172;0.599639892578125;0.29095458984375;1.88999999522821;190;1 A
26.896861932092;0.599609375;0.292449951171875;1.89999999520296;191;1 A
26.9068619320667;0.599456787109375;0.303253173828125;1.90999999517771;192;1 A
26.9168619320415;0.599700927734375;0.294525146484375;1.91999999515247;193;1 A
26.9268619320162;0.59954833984375;0.294525146484375;1.92999999512722;194;1 A
26.936861931991;0.599609375;0.295440673828125;1.93999999510197;195;1 A
26.9468619319657;0.59954833984375;0.294342041015625;1.94999999507672;196;1 A
26.9568619319405;0.599609375;0.29498291015625;1.95999999505148;197;1 A
26.9668619319152;0.59967041015625;0.295074462890625;1.96999999502623;198;1 A
26.97686193189;0.599639892578125;0.297821044921875;1.97999999500098;199;1 A
26.9868619318647;0.599639892578125;0.29510498046875;1.98999999497573;200;1 A
26.9968619318395;0.599609375;0.293975830078125;1.99999999495049;201;1 A
27.0068619318142;0.599517822265625;0.295440673828125;2.00999999492524;202;1 A
27.016861931789;0.59967041015625;0.29022216796875;2.01999999489999;203;1 A
27.0268619317637;0.599517822265625;0.292022705078125;2.02999999487474;204;1 A
27.0368619317385;0.599609375;0.291107177734375;2.0399999948495;205;1 A
27.0468619317132;0.5994873046875;0.291473388671875;2.04999999482425;206;1 A
27.056861931688;0.599761962890625;0.292083740234375;2.059999994799;207;1 A
27.0668619316627;0.599639892578125;0.292816162109375;2.06999999477375;208;1 A
27.0768619316375;0.599517822265625;0.297119140625;2.0799999947485;209;1 A
27.0868619316122;0.599639892578125;0.290496826171875;2.08999999472326;210;1 A
27.096861931587;0.599578857421875;0.292022705078125;2.09999999469801;211;1 A
27.1068619315618;0.599639892578125;0.2911376953125;2.10999999467276;212;1 A
27.1168619315365;0.599609375;0.291046142578125;2.11999999464751;213;1 A
27.1268619315113;0.599517822265625;0.290252685546875;2.12999999462227;214;1 A
27.136861931486;0.599609375;0.289703369140625;2.13999999459702;215;1 A
27.1468619314608;0.599578857421875;0.296630859375;2.14999999457177;216;1 A
27.1568619314355;0.59967041015625;0.291168212890625;2.15999999454652;217;1 A
27.1668619314103;0.599517822265625;0.292877197265625;2.16999999452128;218;1 A
27.176861931385;0.599578857421875;0.2952880859375;2.17999999449603;219;1 A
27.1868619313598;0.599578857421875;0.291259765625;2.18999999447078;220;1 A
27.1968619313345;0.599609375;0.287322998046875;2.19999999444553;221;1 A
27.2068619313093;0.599700927734375;0.2841796875;2.20999999442029;222;1 A
27.216861931284;0.59954833984375;0.287384033203125;2.21999999439504;223;1 A
27.2268619312588;0.599609375;0.287994384765625;2.22999999436979;224;1 A
27.2368619312335;0.59967041015625;0.28839111328125;2.23999999434454;225;1 A
27.2468619312083;0.59954833984375;0.292388916015625;2.2499999943193;226;1 A
27.256861931183;0.599578857421875;0.289398193359375;2.25999999429405;227;1 A
27.2668619311578;0.59954833984375;0.28948974609375;2.2699999942688;228;1 A
27.2768619311325;0.599578857421875;0.29095458984375;2.27999999424355;229;1 A
27.2868619311073;0.5994873046875;0.296722412109375;2.28999999421831;230;1 A
27.296861931082;0.5997314453125;0.294677734375;2.29999999419306;231;1 A
27.3068619310568;0.599639892578125;0.291595458984375;2.30999999416781;232;1 A
27.3168619310316;0.59954833984375;0.290374755859375;2.31999999414256;233;1 A
27.3268619310063;0.599639892578125;0.286407470703125;2.32999999411732;234;1 A
27.3368619309811;0.59954833984375;0.286956787109375;2.33999999409207;235;1 A
27.3468619309558;0.599578857421875;0.28924560546875;2.34999999406682;236;1 A
27.3568619309306;0.599609375;0.289398193359375;2.35999999404157;237;1 A
27.3668619309053;0.599517822265625;0.28961181640625;2.36999999401633;238;1 A
27.3768619308801;0.599609375;0.288604736328125;2.37999999399108;239;1 A
27.3868619308548;0.59954833984375;0.289886474609375;2.38999999396583;240;1 A
27.3968619308296;0.59967041015625;0.288116455078125;2.39999999394058;241;1 A
27.4068619308043;0.599609375;0.288970947265625;2.40999999391533;242;1 A
27.4168619307791;0.599609375;0.290496826171875;2.41999999389009;243;1 A
27.4268619307538;0.599456787109375;0.290740966796875;2.42999999386484;244;1 A
27.4368619307286;0.599609375;0.29248046875;2.43999999383959;245;1 A
27.4468619307033;0.599761962890625;0.289398193359375;2.44999999381434;246;1 A
27.4568619306781;0.599578857421875;0.299041748046875;2.4599999937891;247;1 A
27.4668619306528;0.599700927734375;0.296234130859375;2.46999999376385;248;1 A
27.4768619306276;0.599639892578125;0.292694091796875;2.4799999937386;249;1 A
27.4868619306023;0.59954833984375;0.291717529296875;2.48999999371335;250;1 A
27.4968619305771;0.599639892578125;0.28759765625;2.49999999368811;251;1 A
27.5068619305518;0.599578857421875;0.2867431640625;2.50999999366286;252;1 A
27.5168619305266;0.599578857421875;0.287933349609375;2.51999999363761;253;1 A
27.5268619305014;0.599609375;0.28973388671875;2.52999999361236;254;1 A
27.5368619304761;0.59967041015625;0.28936767578125;2.53999999358712;255;1 A
27.5468619304509;0.599639892578125;0.291656494140625;2.54999999356187;256;1 A
27.5568619304256;0.599609375;0.29638671875;2.55999999353662;257;1 A
27.5668619304004;0.599639892578125;0.29254150390625;2.56999999351137;258;1 A
27.5768619303751;0.59954833984375;0.294464111328125;2.57999999348613;259;1 A
27.5868619303499;0.599639892578125;0.29425048828125;2.58999999346088;260;1 A
27.5968619303246;0.599609375;0.293182373046875;2.59999999343563;261;1 A
27.6068619302994;0.59954833984375;0.289215087890625;2.60999999341038;262;1 A
27.6168619302741;0.599639892578125;0.288909912109375;2.61999999338514;263;1 A
27.6268619302489;0.599578857421875;0.290802001953125;2.62999999335989;264;1 A
27.6368619302236;0.59967041015625;0.286468505859375;2.63999999333464;265;1 A
27.6468619301984;0.599609375;0.28643798828125;2.64999999330939;266;1 A
27.6568619301731;0.599578857421875;0.28668212890625;2.65999999328415;267;1 A
27.6668619301479;0.599517822265625;0.28570556640625;2.6699999932589;268;1 A
27.6768619301226;0.599578857421875;0.289825439453125;2.67999999323365;269;1 A
27.6868619300974;0.599639892578125;0.291595458984375;2.6899999932084;270;1 A
27.6968619300721;0.599578857421875;0.294525146484375;2.69999999318316;271;1 A
27.7068619300469;0.599639892578125;0.294342041015625;2.70999999315791;272;1 A
27.7168619300217;0.599639892578125;0.294464111328125;2.71999999313266;273;1 A
27.7268619299964;0.59954833984375;0.29681396484375;2.72999999310741;274;1 A
27.7368619299712;0.59967041015625;0.291290283203125;2.73999999308217;275;1 A
27.7468619299459;0.599456787109375;0.29156494140625;2.74999999305692;276;1 A
27.7568619299207;0.599609375;0.2877197265625;2.75999999303167;277;1 A
27.7668619298954;0.599609375;0.286346435546875;2.76999999300642;278;1 A
27.7768619298702;0.599700927734375;0.287017822265625;2.77999999298117;279;1 A
27.7868619298449;0.59967041015625;0.28778076171875;2.78999999295593;280;1 A
27.7968619298197;0.599517822265625;0.292449951171875;2.79999999293068;281;1 A
27.8068619297944;0.59967041015625;0.287139892578125;2.80999999290543;282;1 A
27.8168619297692;0.599578857421875;0.288818359375;2.81999999288018;283;1 A
27.8268619297439;0.599517822265625;0.28948974609375;2.82999999285494;284;1 A
27.8368619297187;0.599578857421875;0.2913818359375;2.83999999282969;285;1 A
27.8468619296934;0.59954833984375;0.291290283203125;2.84999999280444;286;1 A
27.8568619296682;0.59967041015625;0.291107177734375;2.85999999277919;287;1 A
27.8668619296429;0.59954833984375;0.29241943359375;2.86999999275395;288;1 A
27.8768619296177;0.599639892578125;0.290435791015625;2.8799999927287;289;1 A
27.8868619295924;0.59954833984375;0.290008544921875;2.88999999270345;290;1 A
27.8968619295672;0.599609375;0.29296875;2.8999999926782;291;1 A
27.9068619295419;0.599639892578125;0.28997802734375;2.90999999265296;292;1 A
27.9168619295167;0.599578857421875;0.290679931640625;2.91999999262771;293;1 A
27.9268619294915;0.59967041015625;0.2872314453125;2.92999999260246;294;1 A
27.9368619294662;0.599578857421875;0.285888671875;2.93999999257721;295;1 A
27.946861929441;0.599639892578125;0.285919189453125;2.94999999255197;296;1 A
27.9568619294157;0.599639892578125;0.2872314453125;2.95999999252672;297;1 A
27.9668619293905;0.599517822265625;0.286712646484375;2.96999999250147;298;1 A
27.9768619293652;0.599639892578125;0.284515380859375;2.97999999247622;299;1 A
27.98686192934;0.59954833984375;0.28643798828125;2.98999999245098;300;1 A
27.9968619293147;0.599609375;0.286468505859375;2.99999999242573;301;1 A
28.0068619292895;0.59954833984375;0.289459228515625;3.00999999240048;302;1 A
28.0168619292642;0.599700927734375;0.28704833984375;3.01999999237523;303;1 A
28.026861929239;0.59967041015625;0.289031982421875;3.02999999234999;304;1 A
28.0368619292137;0.599609375;0.29150390625;3.03999999232474;305;1 A
28.0468619291885;0.599700927734375;0.290802001953125;3.04999999229949;306;1 A
28.0568619291632;0.599578857421875;0.292327880859375;3.05999999227424;307;1 A
28.066861929138;0.599639892578125;0.29510498046875;3.069999992249;308;1 A
28.0768619291127;0.599639892578125;0.295135498046875;3.07999999222375;309;1 A
28.0868619290875;0.59954833984375;0.292938232421875;3.0899999921985;310;1 A
28.0968619290622;0.59967041015625;0.290802001953125;3.09999999217325;311;1 A
28.106861929037;0.59954833984375;0.29486083984375;3.109999992148;312;1 A
28.1168619290117;0.59967041015625;0.287628173828125;3.11999999212276;313;1 A
28.1268619289865;0.599609375;0.287506103515625;3.12999999209751;314;1 A
28.1368619289613;0.599517822265625;0.28692626953125;3.13999999207226;315;1 A
28.146861928936;0.599609375;0.285614013671875;3.14999999204701;316;1 A
28.1568619289108;0.599578857421875;0.289337158203125;3.15999999202177;317;1 A
28.1668619288855;0.59967041015625;0.29095458984375;3.16999999199652;318;1 A
28.1768619288603;0.599609375;0.2991943359375;3.17999999197127;319;1 A
28.186861928835;0.599639892578125;0.29364013671875;3.18999999194602;320;1 A
28.1968619288098;0.599700927734375;0.290985107421875;3.19999999192078;321;1 A
28.2068619287845;0.599578857421875;0.289154052734375;3.20999999189553;322;1 A
28.2168619287593;0.59967041015625;0.2894287109375;3.21999999187028;323;1 A
28.226861928734;0.599578857421875;0.292510986328125;3.22999999184503;324;1 A
28.2368619287088;0.599578857421875;0.290771484375;3.23999999181979;325;1 A
28.2468619286835;0.599639892578125;0.289337158203125;3.24999999179454;326;1 A
28.2568619286583;0.599639892578125;0.2923583984375;3.25999999176929;327;1 A
28.266861928633;0.59967041015625;0.29248046875;3.26999999174404;328;1 A
28.2768619286078;0.599578857421875;0.296478271484375;3.2799999917188;329;1 A
28.2868619285825;0.599639892578125;0.29180908203125;3.28999999169355;330;1 A
28.2968619285573;0.599609375;0.2926025390625;3.2999999916683;331;1 A
28.306861928532;0.599609375;0.291473388671875;3.30999999164305;332;1 A
28.3168619285068;0.599700927734375;0.28875732421875;3.31999999161781;333;1 A
28.3268619284815;0.599578857421875;0.28887939453125;3.32999999159256;334;1 A
28.3368619284563;0.599639892578125;0.28692626953125;3.33999999156731;335;1 A
28.3468619284311;0.599456787109375;0.29180908203125;3.34999999154206;336;1 A
28.3568619284058;0.599609375;0.288330078125;3.35999999151682;337;1 A
28.3668619283806;0.599609375;0.286224365234375;3.36999999149157;338;1 A
28.3768619283553;0.599578857421875;0.288177490234375;3.37999999146632;339;1 A
28.3868619283301;0.599578857421875;0.286895751953125;3.38999999144107;340;1 A
28.3968619283048;0.59954833984375;0.28997802734375;3.39999999141583;341;1 A
28.4068619282796;0.59967041015625;0.288604736328125;3.40999999139058;342;1 A
28.4168619282543;0.599578857421875;0.2891845703125;3.41999999136533;343;1 A
28.4268619282291;0.599609375;0.286712646484375;3.42999999134008;344;1 A
28.4368619282038;0.599700927734375;0.287811279296875;3.43999999131483;345;1 A
28.4468619281786;0.5994873046875;0.292266845703125;3.44999999128959;346;1 A
28.4568619281533;0.599639892578125;0.28826904296875;3.45999999126434;347;1 A
28.4668619281281;0.599578857421875;0.28912353515625;3.46999999123909;348;1 A
28.4768619281028;0.599578857421875;0.289306640625;3.47999999121384;349;1 A
28.4868619280776;0.599639892578125;0.2935791015625;3.4899999911886;350;1 A
28.4968619280523;0.599609375;0.2894287109375;3.49999999116335;351;1 A
28.5068619280271;0.599578857421875;0.2882080078125;3.5099999911381;352;1 A
28.5168619280018;0.5994873046875;0.29608154296875;3.51999999111285;353;1 A
28.5268619279766;0.599578857421875;0.290924072265625;3.52999999108761;354;1 A
28.5368619279513;0.599578857421875;0.2891845703125;3.53999999106236;355;1 A
28.5468619279261;0.599578857421875;0.286865234375;3.54999999103711;356;1 A
28.5568619279009;0.599639892578125;0.28619384765625;3.55999999101186;357;1 A
28.5668619278756;0.5994873046875;0.29254150390625;3.56999999098662;358;1 A
28.5768619278504;0.599609375;0.292388916015625;3.57999999096137;359;1 A
28.5868619278251;0.59954833984375;0.292938232421875;3.58999999093612;360;1 A
28.5968619277999;0.599578857421875;0.29022216796875;3.59999999091087;361;1 A
28.6068619277746;0.599578857421875;0.29058837890625;3.60999999088563;362;1 A
28.6168619277494;0.59954833984375;0.295562744140625;3.61999999086038;363;1 A
28.6268619277241;0.599609375;0.296295166015625;3.62999999083513;364;1 A
28.6368619276989;0.599517822265625;0.293182373046875;3.63999999080988;365;1 A
28.6468619276736;0.599700927734375;0.291015625;3.64999999078464;366;1 A
28.6568619276484;0.599517822265625;0.294342041015625;3.65999999075939;367;1 A
28.6668619276231;0.599578857421875;0.288818359375;3.66999999073414;368;1 A
28.6768619275979;0.59967041015625;0.2869873046875;3.67999999070889;369;1 A
28.6868619275726;0.59954833984375;0.2958984375;3.68999999068365;370;1 A
28.6968619275474;0.59967041015625;0.29608154296875;3.6999999906584;371;1 A
28.7068619275221;0.599578857421875;0.2957763671875;3.70999999063315;372;1 A
28.7168619274969;0.599578857421875;0.2916259765625;3.7199999906079;373;1 A
28.7268619274716;0.599639892578125;0.293304443359375;3.72999999058266;374;1 A
28.7368619274464;0.59967041015625;0.29034423828125;3.73999999055741;375;1 A
28.7468619274212;0.599700927734375;0.2906494140625;3.74999999053216;376;1 A
28.7568619273959;0.599517822265625;0.29241943359375;3.75999999050691;377;1 A
28.7668619273707;0.59954833984375;0.290313720703125;3.76999999048167;378;1 A
28.7768619273454;0.59954833984375;0.2918701171875;3.77999999045642;379;1 A
28.7868619273202;0.599517822265625;0.2916259765625;3.78999999043117;380;1 A
28.7968619272949;0.599639892578125;0.288970947265625;3.79999999040592;381;1 A
28.8068619272697;0.599578857421875;0.291900634765625;3.80999999038067;382;1 A
28.8168619272444;0.599639892578125;0.29248046875;3.81999999035543;383;1 A
28.8268619272192;0.5994873046875;0.292510986328125;3.82999999033018;384;1 A
28.8368619271939;0.599609375;0.291900634765625;3.83999999030493;385;1 A
28.8468619271687;0.599578857421875;0.2994384765625;3.84999999027968;386;1 A
28.8568619271434;0.599456787109375;0.30145263671875;3.85999999025444;387;1 A
28.8668619271182;0.599578857421875;0.2962646484375;3.86999999022919;388;1 A
28.8768619270929;0.59954833984375;0.295166015625;3.87999999020394;389;1 A
28.8868619270677;0.59967041015625;0.29229736328125;3.88999999017869;390;1 A
28.8968619270424;0.599578857421875;0.296539306640625;3.89999999015345;391;1 A
28.9068619270172;0.599578857421875;0.29376220703125;3.9099999901282;392;1 A
28.9168619269919;0.59967041015625;0.29449462890625;3.91999999010295;393;1 A
28.9268619269667;0.599609375;0.29571533203125;3.9299999900777;394;1 A
28.9368619269414;0.599609375;0.293701171875;3.93999999005246;395;1 A
28.9468619269162;0.59954833984375;0.297821044921875;3.94999999002721;396;1 A
28.956861926891;0.59954833984375;0.297882080078125;3.95999999000196;397;1 A
28.9668619268657;0.599578857421875;0.2969970703125;3.96999998997671;398;1 A
28.9768619268405;0.599609375;0.299713134765625;3.97999998995147;399;1 A
28.9868619268152;0.599700927734375;0.2982177734375;3.98999998992622;400;1 A
28.99686192679;0.59954833984375;0.297576904296875;3.99999998990097;401;1 A
29.0068619267647;0.59954833984375;0.29522705078125;4.00999998987572;402;1 A
29.0168619267395;0.599609375;0.297576904296875;4.01999998985048;403;1 A
29.0268619267142;0.599517822265625;0.297698974609375;4.02999998982523;404;1 A
29.036861926689;0.59954833984375;0.2957763671875;4.03999998979998;405;1 A
29.0468619266637;0.599578857421875;0.2969970703125;4.04999998977473;406;1 A
29.0568619266385;0.599517822265625;0.296661376953125;4.05999998974949;407;1 A
29.0668619266132;0.59942626953125;0.308349609375;4.06999998972424;408;1 A
29.076861926588;0.599578857421875;0.307342529296875;4.07999998969899;409;1 A
29.0868619265627;0.599609375;0.303955078125;4.08999998967374;410;1 A
29.0968619265375;0.599517822265625;0.301605224609375;4.0999999896485;411;1 A
29.1068619265122;0.599609375;0.297637939453125;4.10999998962325;412;1 A
29.116861926487;0.59954833984375;0.296630859375;4.119999989598;413;1 A
29.1268619264617;0.599639892578125;0.29534912109375;4.12999998957275;414;1 A
29.1368619264365;0.599609375;0.295379638671875;4.1399999895475;415;1 A
29.1468619264112;0.599517822265625;0.293121337890625;4.14999998952226;416;1 A
29.156861926386;0.599609375;0.2939453125;4.15999998949701;417;1 A
29.1668619263608;0.599517822265625;0.29815673828125;4.16999998947176;418;1 A
29.1768619263355;0.59954833984375;0.29547119140625;4.17999998944651;419;1 A
29.1868619263103;0.599609375;0.29620361328125;4.18999998942127;420;1 A
29.196861926285;0.5994873046875;0.294158935546875;4.19999998939602;421;1 A
29.2068619262598;0.599639892578125;0.2943115234375;4.20999998937077;422;1 A
29.2168619262345;0.599578857421875;0.292266845703125;4.21999998934552;423;1 A
29.2268619262093;0.599609375;0.291839599609375;4.22999998932028;424;1 A
29.236861926184;0.59942626953125;0.299774169921875;4.23999998929503;425;1 A
29.2468619261588;0.599578857421875;0.29412841796875;4.24999998926978;426;1 A
29.2568619261335;0.599609375;0.29437255859375;4.25999998924453;427;1 A
29.2668619261083;0.599517822265625;0.29132080078125;4.26999998921929;428;1 A
29.276861926083;0.59954833984375;0.2913818359375;4.27999998919404;429;1 A
29.2868619260578;0.5994873046875;0.292449951171875;4.28999998916879;430;1 A
29.2968619260325;0.59954833984375;0.289215087890625;4.29999998914354;431;1 A
29.3068619260073;0.5994873046875;0.29058837890625;4.3099999891183;432;1 A
29.316861925982;0.599517822265625;0.28765869140625;4.31999998909305;433;1 A
29.3268619259568;0.599578857421875;0.290771484375;4.3299999890678;434;1 A
29.3368619259315;0.599456787109375;0.294647216796875;4.33999998904255;435;1 A
29.3468619259063;0.599609375;0.292144775390625;4.34999998901731;436;1 A
29.356861925881;0.59967041015625;0.291229248046875;4.35999998899206;437;1 A
29.3668619258558;0.599609375;0.2899169921875;4.36999998896681;438;1 A
29.3768619258306;0.59954833984375;0.29302978515625;4.37999998894156;439;1 A
29.3868619258053;0.599578857421875;0.28985595703125;4.38999998891632;440;1 A
29.3968619257801;0.599578857421875;0.2930908203125;4.39999998889107;441;1 A
29.4068619257548;0.59954833984375;0.298004150390625;4.40999998886582;442;1 A
29.4168619257296;0.599578857421875;0.29254150390625;4.41999998884057;443;1 A
29.4268619257043;0.599578857421875;0.292999267578125;4.42999998881533;444;1 A
29.4368619256791;0.599456787109375;0.29315185546875;4.43999998879008;445;1 A
29.4468619256538;0.599517822265625;0.29486083984375;4.44999998876483;446;1 A
29.4568619256286;0.59954833984375;0.293060302734375;4.45999998873958;447;1 A
29.4668619256033;0.599639892578125;0.29241943359375;4.46999998871433;448;1 A
29.4768619255781;0.599578857421875;0.29510498046875;4.47999998868909;449;1 A
29.4868619255528;0.599578857421875;0.28955078125;4.48999998866384;450;1 A
29.4968619255276;0.599578857421875;0.28826904296875;4.49999998863859;451;1 A
29.5068619255023;0.5994873046875;0.29132080078125;4.50999998861334;452;1 A
29.5168619254771;0.599639892578125;0.29254150390625;4.5199999885881;453;1 A
29.5268619254518;0.599517822265625;0.29150390625;4.52999998856285;454;1 A
29.5368619254266;0.59954833984375;0.291046142578125;4.5399999885376;455;1 A
29.5468619254013;0.5994873046875;0.29345703125;4.54999998851235;456;1 A
29.5568619253761;0.599517822265625;0.294403076171875;4.55999998848711;457;1 A
29.5668619253508;0.59954833984375;0.29638671875;4.56999998846186;458;1 A
29.5768619253256;0.599517822265625;0.298004150390625;4.57999998843661;459;1 A
29.5868619253004;0.599517822265625;0.295928955078125;4.58999998841136;460;1 A
29.5968619252751;0.599578857421875;0.29437255859375;4.59999998838612;461;1 A
29.6068619252499;0.599517822265625;0.29150390625;4.60999998836087;462;1 A
29.6168619252246;0.599517822265625;0.29095458984375;4.61999998833562;463;1 A
29.6268619251994;0.59954833984375;0.28887939453125;4.62999998831037;464;1 A
29.6368619251741;0.599578857421875;0.287445068359375;4.63999998828513;465;1 A
29.6468619251489;0.59954833984375;0.28802490234375;4.64999998825988;466;1 A
29.6568619251236;0.59954833984375;0.288330078125;4.65999998823463;467;1 A
29.6668619250984;0.599578857421875;0.2877197265625;4.66999998820938;468;1 A
29.6768619250731;0.599517822265625;0.2855224609375;4.67999998818414;469;1 A
29.6868619250479;0.59954833984375;0.28839111328125;4.68999998815889;470;1 A
29.6968619250226;0.599609375;0.283905029296875;4.69999998813364;471;1 A
29.7068619249974;0.5994873046875;0.281646728515625;4.70999998810839;472;1 A
29.7168619249721;0.599609375;0.285675048828125;4.71999998808315;473;1 A
29.7268619249469;0.599578857421875;0.2823486328125;4.7299999880579;474;1 A
29.7368619249216;0.599578857421875;0.283172607421875;4.73999998803265;475;1 A
29.7468619248964;0.5994873046875;0.2833251953125;4.7499999880074;476;1 A
29.7568619248711;0.59954833984375;0.284271240234375;4.75999998798216;477;1 A
29.7668619248459;0.599517822265625;0.28497314453125;4.76999998795691;478;1 A
29.7768619248207;0.5994873046875;0.28363037109375;4.77999998793166;479;1 A
29.7868619247954;0.599517822265625;0.28778076171875;4.78999998790641;480;1 A
29.7968619247702;0.59954833984375;0.28546142578125;4.79999998788116;481;1 A
29.8068619247449;0.599517822265625;0.28564453125;4.80999998785592;482;1 A
29.8168619247197;0.59954833984375;0.286407470703125;4.81999998783067;483;1 A
29.8268619246944;0.59954833984375;0.28619384765625;4.82999998780542;484;1 A
29.8368619246692;0.599609375;0.286529541015625;4.83999998778017;485;1 A
29.8468619246439;0.599609375;0.285003662109375;4.84999998775493;486;1 A
29.8568619246187;0.599578857421875;0.290130615234375;4.85999998772968;487;1 A
29.8668619245934;0.59954833984375;0.289093017578125;4.86999998770443;488;1 A
29.8768619245682;0.599609375;0.287261962890625;4.87999998767918;489;1 A
29.8868619245429;0.59954833984375;0.29071044921875;4.88999998765394;490;1 A
29.8968619245177;0.599517822265625;0.284942626953125;4.89999998762869;491;1 A
29.9068619244924;0.599639892578125;0.2855224609375;4.90999998760344;492;1 A
29.9168619244672;0.5994873046875;0.28338623046875;4.91999998757819;493;1 A
29.9268619244419;0.59954833984375;0.282958984375;4.92999998755295;494;1 A
29.9368619244167;0.599700927734375;0.285186767578125;4.9399999875277;495;1 A
29.9468619243914;0.599578857421875;0.285980224609375;4.94999998750245;496;1 A
29.9568619243662;0.5994873046875;0.290802001953125;4.9599999874772;497;1 A
29.9668619243409;0.599609375;0.285369873046875;4.96999998745196;498;1 A
29.9768619243157;0.59954833984375;0.2861328125;4.97999998742671;499;1 A
29.9868619242905;0.599517822265625;0.284515380859375;4.98999998740146;500;1 A
29.9968619242652;0.599517822265625;0.284820556640625;4.99999998737621;501;1 A
30.00686192424;0.599609375;0.28704833984375;5.00999998735097;502;1 A
30.0168619242147;0.599517822265625;0.287750244140625;5.01999998732572;503;1 A
30.0268619241895;0.599578857421875;0.291259765625;5.02999998730047;504;1 A
30.0368619241642;0.599609375;0.288482666015625;5.03999998727522;505;1 A
30.046861924139;0.599517822265625;0.288116455078125;5.04999998724998;506;1 A
30.0568619241137;0.599517822265625;0.2906494140625;5.05999998722473;507;1 A
30.0668619240885;0.5994873046875;0.289337158203125;5.06999998719948;508;1 A
30.0768619240632;0.59954833984375;0.291778564453125;5.07999998717423;509;1 A
30.086861924038;0.599609375;0.289581298828125;5.08999998714899;510;1 A
30.0968619240127;0.599609375;0.290863037109375;5.09999998712374;511;1 A
30.1068619239875;0.59954833984375;0.28924560546875;5.10999998709849;512;1 A
30.1168619239622;0.5994873046875;0.291259765625;5.11999998707324;513;1 A
30.126861923937;0.59954833984375;0.2899169921875;5.129999987048;514;1 A
30.1368619239117;0.599517822265625;0.2872314453125;5.13999998702275;515;1 A
30.1468619238865;0.599639892578125;0.290191650390625;5.1499999869975;516;1 A
30.1568619238612;0.599578857421875;0.29058837890625;5.15999998697225;517;1 A
30.166861923836;0.599578857421875;0.292022705078125;5.169999986947;518;1 A
30.1768619238107;0.59967041015625;0.291259765625;5.17999998692176;519;1 A
30.1868619237855;0.599639892578125;0.289154052734375;5.18999998689651;520;1 A
30.1968619237603;0.5994873046875;0.291656494140625;5.19999998687126;521;1 A
30.206861923735;0.599517822265625;0.285430908203125;5.20999998684601;522;1 A
30.2168619237098;0.599517822265625;0.283355712890625;5.21999998682077;523;1 A
30.2268619236845;0.599517822265625;0.285064697265625;5.22999998679552;524;1 A
30.2368619236593;0.599517822265625;0.286102294921875;5.23999998677027;525;1 A
30.246861923634;0.599639892578125;0.285675048828125;5.24999998674502;526;1 A
30.2568619236088;0.5994873046875;0.287139892578125;5.25999998671978;527;1 A
30.2668619235835;0.5994873046875;0.298095703125;5.26999998669453;528;1 A
30.2768619235583;0.599609375;0.294647216796875;5.27999998666928;529;1 A
30.286861923533;0.599456787109375;0.29638671875;5.28999998664403;530;1 A
30.2968619235078;0.599517822265625;0.297393798828125;5.29999998661879;531;1 A
30.3068619234825;0.599517822265625;0.296722412109375;5.30999998659354;532;1 A
30.3168619234573;0.59954833984375;0.2955322265625;5.31999998656829;533;1 A
30.326861923432;0.599609375;0.294525146484375;5.32999998654304;534;1 A
30.3368619234068;0.5994873046875;0.300811767578125;5.3399999865178;535;1 A
30.3468619233815;0.599639892578125;0.296539306640625;5.34999998649255;536;1 A
30.3568619233563;0.59954833984375;0.29656982421875;5.3599999864673;537;1 A
30.366861923331;0.599517822265625;0.297882080078125;5.36999998644205;538;1 A
30.3768619233058;0.599578857421875;0.293182373046875;5.37999998641681;539;1 A
30.3868619232805;0.599609375;0.2921142578125;5.38999998639156;540;1 A
30.3968619232553;0.599578857421875;0.29132080078125;5.39999998636631;541;1 A
30.4068619232301;0.599578857421875;0.289764404296875;5.40999998634106;542;1 A
30.4168619232048;0.5997314453125;0.2911376953125;5.41999998631582;543;1 A
30.4268619231796;0.59954833984375;0.293487548828125;5.42999998629057;544;1 A
30.4368619231543;0.599517822265625;0.299957275390625;5.43999998626532;545;1 A
30.4468619231291;0.599578857421875;0.2958984375;5.44999998624007;546;1 A
30.4568619231038;0.59954833984375;0.296722412109375;5.45999998621483;547;1 A
30.4668619230786;0.599578857421875;0.29461669921875;5.46999998618958;548;1 A
30.4768619230533;0.59954833984375;0.292572021484375;5.47999998616433;549;1 A
30.4868619230281;0.599517822265625;0.2933349609375;5.48999998613908;550;1 A
30.4968619230028;0.59954833984375;0.294403076171875;5.49999998611383;551;1 A
30.5068619229776;0.599517822265625;0.30169677734375;5.50999998608859;552;1 A
30.5168619229523;0.599517822265625;0.2972412109375;5.51999998606334;553;1 A
30.5268619229271;0.599578857421875;0.29803466796875;5.52999998603809;554;1 A
30.5368619229018;0.599517822265625;0.298370361328125;5.53999998601284;555;1 A
30.5468619228766;0.599578857421875;0.29547119140625;5.5499999859876;556;1 A
30.5568619228513;0.599578857421875;0.292694091796875;5.55999998596235;557;1 A
30.5668619228261;0.59967041015625;0.29071044921875;5.5699999859371;558;1 A
30.5768619228008;0.599639892578125;0.29302978515625;5.57999998591185;559;1 A
30.5868619227756;0.599639892578125;0.2880859375;5.58999998588661;560;1 A
30.5968619227503;0.599517822265625;0.2879638671875;5.59999998586136;561;1 A
30.6068619227251;0.599578857421875;0.29193115234375;5.60999998583611;562;1 A
30.6168619226999;0.599609375;0.288116455078125;5.61999998581086;563;1 A
30.6268619226746;0.599639892578125;0.28704833984375;5.62999998578562;564;1 A
30.6368619226494;0.59954833984375;0.2850341796875;5.63999998576037;565;1 A
30.6468619226241;0.599609375;0.285919189453125;5.64999998573512;566;1 A
30.6568619225989;0.599609375;0.28472900390625;5.65999998570987;567;1 A
30.6668619225736;0.59967041015625;0.285308837890625;5.66999998568463;568;1 A
30.6768619225484;0.59954833984375;0.2921142578125;5.67999998565938;569;1 A
30.6868619225231;0.599700927734375;0.287811279296875;5.68999998563413;570;1 A
30.6968619224979;0.599578857421875;0.2877197265625;5.69999998560888;571;1 A
30.7068619224726;0.59954833984375;0.28515625;5.70999998558364;572;1 A
30.7168619224474;0.5994873046875;0.28546142578125;5.71999998555839;573;1 A
30.7268619224221;0.59954833984375;0.2867431640625;5.72999998553314;574;1 A
30.7368619223969;0.599609375;0.28533935546875;5.73999998550789;575;1 A
30.7468619223716;0.599609375;0.28680419921875;5.74999998548265;576;1 A
30.7568619223464;0.59954833984375;0.28363037109375;5.7599999854574;577;1 A
30.7668619223211;0.59954833984375;0.283782958984375;5.76999998543215;578;1 A
30.7768619222959;0.599578857421875;0.2835693359375;5.7799999854069;579;1 A
30.7868619222706;0.599609375;0.27972412109375;5.78999998538166;580;1 A
30.7968619222454;0.599578857421875;0.27911376953125;5.79999998535641;581;1 A
30.8068619222202;0.5997314453125;0.276702880859375;5.80999998533116;582;1 A
30.8168619221949;0.599517822265625;0.27801513671875;5.81999998530591;583;1 A
30.8268619221697;0.59967041015625;0.2767333984375;5.82999998528066;584;1 A
30.8368619221444;0.599609375;0.28057861328125;5.83999998525542;585;1 A
30.8468619221192;0.59954833984375;0.288116455078125;5.84999998523017;586;1 A
30.8568619220939;0.599609375;0.280975341796875;5.85999998520492;587;1 A
30.8668619220687;0.59967041015625;0.28057861328125;5.86999998517967;588;1 A
30.8768619220434;0.599609375;0.281402587890625;5.87999998515443;589;1 A
30.8868619220182;0.599609375;0.28466796875;5.88999998512918;590;1 A
30.8968619219929;0.599761962890625;0.281280517578125;5.89999998510393;591;1 A
30.9068619219677;0.59954833984375;0.282196044921875;5.90999998507868;592;1 A
30.9168619219424;0.59954833984375;0.2945556640625;5.91999998505344;593;1 A
30.9268619219172;0.599639892578125;0.28582763671875;5.92999998502819;594;1 A
30.9368619218919;0.59954833984375;0.28411865234375;5.93999998500294;595;1 A
30.9468619218667;0.599578857421875;0.287261962890625;5.94999998497769;596;1 A
30.9568619218414;0.599639892578125;0.2877197265625;5.95999998495245;597;1 A
30.9668619218162;0.5994873046875;0.2874755859375;5.9699999849272;598;1 A
30.9768619217909;0.599609375;0.28448486328125;5.97999998490195;599;1 A
30.9868619217657;0.599639892578125;0.285247802734375;5.9899999848767;600;1 A
30.9968619217404;0.599578857421875;0.28704833984375;5.99999998485146;601;1 A
31.0068619217152;0.599517822265625;0.2879638671875;6.00999998482621;602;1 A
31.01686192169;0.599609375;0.2913818359375;6.01999998480096;603;1 A
31.0268619216647;0.599639892578125;0.2879638671875;6.02999998477571;604;1 A
31.0368619216395;0.599578857421875;0.28656005859375;6.03999998475047;605;1 A
31.0468619216142;0.599700927734375;0.28497314453125;6.04999998472522;606;1 A
31.056861921589;0.599517822265625;0.2899169921875;6.05999998469997;607;1 A
31.0668619215637;0.599639892578125;0.287200927734375;6.06999998467472;608;1 A
31.0768619215385;0.59967041015625;0.285125732421875;6.07999998464948;609;1 A
31.0868619215132;0.59954833984375;0.290771484375;6.08999998462423;610;1 A
31.096861921488;0.599578857421875;0.28533935546875;6.09999998459898;611;1 A
31.1068619214627;0.59954833984375;0.2869873046875;6.10999998457373;612;1 A
31.1168619214375;0.599639892578125;0.28900146484375;6.11999998454849;613;1 A
31.1268619214122;0.59954833984375;0.291778564453125;6.12999998452324;614;1 A
31.136861921387;0.59967041015625;0.29083251953125;6.13999998449799;615;1 A
31.1468619213617;0.59967041015625;0.291595458984375;6.14999998447274;616;1 A
31.1568619213365;0.599578857421875;0.295806884765625;6.1599999844475;617;1 A
31.1668619213112;0.59967041015625;0.290985107421875;6.16999998442225;618;1 A
31.176861921286;0.599578857421875;0.294158935546875;6.179999984397;619;1 A
31.1868619212607;0.599578857421875;0.293609619140625;6.18999998437175;620;1 A
31.1968619212355;0.59954833984375;0.292510986328125;6.1999999843465;621;1 A
31.2068619212102;0.59954833984375;0.295013427734375;6.20999998432126;622;1 A
31.216861921185;0.59967041015625;0.29266357421875;6.21999998429601;623;1 A
31.2268619211598;0.59954833984375;0.29449462890625;6.22999998427076;624;1 A
31.2368619211345;0.599609375;0.290740966796875;6.23999998424551;625;1 A
31.2468619211093;0.599578857421875;0.291015625;6.24999998422027;626;1 A
31.256861921084;0.599517822265625;0.292938232421875;6.25999998419502;627;1 A
31.2668619210588;0.599639892578125;0.293182373046875;6.26999998416977;628;1 A
31.2768619210335;0.599609375;0.29046630859375;6.27999998414452;629;1 A
31.2868619210083;0.599761962890625;0.287445068359375;6.28999998411928;630;1 A
31.296861920983;0.599517822265625;0.2904052734375;6.29999998409403;631;1 A
31.3068619209578;0.59967041015625;0.2886962890625;6.30999998406878;632;1 A
31.3168619209325;0.599609375;0.287017822265625;6.31999998404353;633;1 A
31.3268619209073;0.599578857421875;0.289520263671875;6.32999998401829;634;1 A
31.336861920882;0.599609375;0.286773681640625;6.33999998399304;635;1 A
31.3468619208568;0.59954833984375;0.287322998046875;6.34999998396779;636;1 A
31.3568619208315;0.59967041015625;0.285858154296875;6.35999998394254;637;1 A
31.3668619208063;0.599578857421875;0.284820556640625;6.3699999839173;638;1 A
31.376861920781;0.599609375;0.285400390625;6.37999998389205;639;1 A
31.3868619207558;0.599609375;0.284759521484375;6.3899999838668;640;1 A
31.3968619207305;0.599456787109375;0.29193115234375;6.39999998384155;641;1 A
31.4068619207053;0.59954833984375;0.285858154296875;6.40999998381631;642;1 A
31.41686192068;0.599578857421875;0.28607177734375;6.41999998379106;643;1 A
31.4268619206548;0.599578857421875;0.28692626953125;6.42999998376581;644;1 A
31.4368619206296;0.599578857421875;0.288360595703125;6.43999998374056;645;1 A
31.4468619206043;0.599517822265625;0.28900146484375;6.44999998371532;646;1 A
31.4568619205791;0.599639892578125;0.288970947265625;6.45999998369007;647;1 A
31.4668619205538;0.599578857421875;0.29315185546875;6.46999998366482;648;1 A
31.4768619205286;0.599609375;0.28857421875;6.47999998363957;649;1 A
31.4868619205033;0.599609375;0.28912353515625;6.48999998361433;650;1 A
31.4968619204781;0.599517822265625;0.2913818359375;6.49999998358908;651;1 A
31.5068619204528;0.599761962890625;0.28851318359375;6.50999998356383;652;1 A
31.5168619204276;0.59954833984375;0.290496826171875;6.51999998353858;653;1 A
31.5268619204023;0.599700927734375;0.28759765625;6.52999998351333;654;1 A
31.5368619203771;0.599609375;0.28656005859375;6.53999998348809;655;1 A
31.5468619203518;0.599639892578125;0.28863525390625;6.54999998346284;656;1 A
31.5568619203266;0.599639892578125;0.291168212890625;6.55999998343759;657;1 A
31.5668619203013;0.599578857421875;0.29315185546875;6.56999998341234;658;1 A
31.5768619202761;0.599609375;0.288330078125;6.5799999833871;659;1 A
31.5868619202508;0.599639892578125;0.28985595703125;6.58999998336185;660;1 A
31.5968619202256;0.599609375;0.2886962890625;6.5999999833366;661;1 A
31.6068619202003;0.599700927734375;0.29052734375;6.60999998331135;662;1 A
31.6168619201751;0.599578857421875;0.295928955078125;6.61999998328611;663;1 A
31.6268619201498;0.599609375;0.2943115234375;6.62999998326086;664;1 A
31.6368619201246;0.599517822265625;0.29376220703125;6.63999998323561;665;1 A
31.6468619200994;0.599609375;0.29217529296875;6.64999998321036;666;1 A
31.6568619200741;0.599517822265625;0.292999267578125;6.65999998318512;667;1 A
31.6668619200489;0.59954833984375;0.292999267578125;6.66999998315987;668;1 A
31.6768619200236;0.599578857421875;0.292022705078125;6.67999998313462;669;1 A
31.6868619199984;0.59954833984375;0.293243408203125;6.68999998310937;670;1 A
31.6968619199731;0.59954833984375;0.290740966796875;6.69999998308413;671;1 A
31.7068619199479;0.599578857421875;0.293609619140625;6.70999998305888;672;1 A
31.7168619199226;0.5994873046875;0.297821044921875;6.71999998303363;673;1 A
31.7268619198974;0.599578857421875;0.299285888671875;6.72999998300838;674;1 A
31.7368619198721;0.599517822265625;0.298828125;6.73999998298314;675;1 A
31.7468619198469;0.599639892578125;0.295928955078125;6.74999998295789;676;1 A
31.7568619198216;0.599578857421875;0.293304443359375;6.75999998293264;677;1 A
31.7668619197964;0.59967041015625;0.289520263671875;6.76999998290739;678;1 A
31.7768619197711;0.59954833984375;0.29327392578125;6.77999998288215;679;1 A
31.7868619197459;0.599578857421875;0.28790283203125;6.7899999828569;680;1 A
31.7968619197206;0.599609375;0.288238525390625;6.79999998283165;681;1 A
31.8068619196954;0.599609375;0.293426513671875;6.8099999828064;682;1 A
31.8168619196701;0.599609375;0.28875732421875;6.81999998278116;683;1 A
31.8268619196449;0.599609375;0.288360595703125;6.82999998275591;684;1 A
31.8368619196197;0.599578857421875;0.28863525390625;6.83999998273066;685;1 A
31.8468619195944;0.599700927734375;0.29046630859375;6.84999998270541;686;1 A
31.8568619195692;0.599578857421875;0.290252685546875;6.85999998268016;687;1 A
31.8668619195439;0.59954833984375;0.288360595703125;6.86999998265492;688;1 A
31.8768619195187;0.599578857421875;0.28759765625;6.87999998262967;689;1 A
31.8868619194934;0.599609375;0.284088134765625;6.88999998260442;690;1 A
31.8968619194682;0.599517822265625;0.285430908203125;6.89999998257917;691;1 A
31.9068619194429;0.599578857421875;0.286651611328125;6.90999998255393;692;1 A
31.9168619194177;0.599578857421875;0.2872314453125;6.91999998252868;693;1 A
31.9268619193924;0.599517822265625;0.2879638671875;6.92999998250343;694;1 A
31.9368619193672;0.599517822265625;0.286590576171875;6.93999998247818;695;1 A
31.9468619193419;0.59954833984375;0.29150390625;6.94999998245294;696;1 A
31.9568619193167;0.5994873046875;0.288543701171875;6.95999998242769;697;1 A
31.9668619192914;0.599578857421875;0.289154052734375;6.96999998240244;698;1 A
31.9768619192662;0.5994873046875;0.286834716796875;6.97999998237719;699;1 A
31.9868619192409;0.59967041015625;0.285369873046875;6.98999998235195;700;1 A
