Time (s);WE(1).Potential (V);WE(1).Current (A);Corrected time (s);Index;Current range
71.0247468206798;0.700836181640625;1.04217529296875;0;1;1 A
71.0347468206545;0.69989013671875;0.75042724609375;0.00999999997475243;2;1 A
71.0447468206293;0.6998291015625;0.6201171875;0.0199999999495049;3;1 A
71.054746820604;0.69970703125;0.54046630859375;0.0299999999242573;4;1 A
71.0647468205788;0.69976806640625;0.4852294921875;0.0399999998990097;5;1 A
71.0747468205535;0.69976806640625;0.446624755859375;0.0499999998737621;6;1 A
71.0847468205283;0.69970703125;0.42108154296875;0.0599999998485146;7;1 A
71.094746820503;0.699798583984375;0.39813232421875;0.069999999823267;8;1 A
71.1047468204778;0.69970703125;0.38006591796875;0.0799999997980194;9;1 A
71.1147468204525;0.69970703125;0.36846923828125;0.0899999997727718;10;1 A
71.1247468204273;0.699615478515625;0.35736083984375;0.0999999997475243;11;1 A
71.134746820402;0.6995849609375;0.345550537109375;0.109999999722277;12;1 A
71.1447468203768;0.699676513671875;0.337738037109375;0.119999999697029;13;1 A
71.1547468203515;0.69952392578125;0.3316650390625;0.129999999671782;14;1 A
71.1647468203263;0.699737548828125;0.3243408203125;0.139999999646534;15;1 A
71.174746820301;0.699554443359375;0.31842041015625;0.149999999621286;16;1 A
71.1847468202758;0.699676513671875;0.31463623046875;0.159999999596039;17;1 A
71.1947468202505;0.699615478515625;0.310089111328125;0.169999999570791;18;1 A
71.2047468202253;0.699554443359375;0.306182861328125;0.179999999545544;19;1 A
71.2147468202;0.699554443359375;0.302520751953125;0.189999999520296;20;1 A
71.2247468201748;0.69964599609375;0.30120849609375;0.199999999495049;21;1 A
71.2347468201496;0.699615478515625;0.307952880859375;0.209999999469801;22;1 A
71.2447468201243;0.69964599609375;0.30108642578125;0.219999999444553;23;1 A
71.2547468200991;0.699615478515625;0.300537109375;0.229999999419306;24;1 A
71.2647468200738;0.69964599609375;0.299163818359375;0.239999999394058;25;1 A
71.2747468200486;0.6995849609375;0.298248291015625;0.249999999368811;26;1 A
71.2847468200233;0.69976806640625;0.295135498046875;0.259999999343563;27;1 A
71.2947468199981;0.6995849609375;0.29241943359375;0.269999999318316;28;1 A
71.3047468199728;0.69970703125;0.2911376953125;0.279999999293068;29;1 A
71.3147468199476;0.699737548828125;0.28839111328125;0.28999999926782;30;1 A
71.3247468199223;0.69976806640625;0.289093017578125;0.299999999242573;31;1 A
71.3347468198971;0.69970703125;0.29425048828125;0.309999999217325;32;1 A
71.3447468198718;0.69970703125;0.29046630859375;0.319999999192078;33;1 A
71.3547468198466;0.69964599609375;0.2904052734375;0.32999999916683;34;1 A
71.3647468198213;0.699615478515625;0.28973388671875;0.339999999141583;35;1 A
71.3747468197961;0.699554443359375;0.289031982421875;0.349999999116335;36;1 A
71.3847468197708;0.699615478515625;0.286529541015625;0.359999999091087;37;1 A
71.3947468197456;0.69952392578125;0.2861328125;0.36999999906584;38;1 A
71.4047468197203;0.69976806640625;0.29205322265625;0.379999999040592;39;1 A
71.4147468196951;0.6995849609375;0.2894287109375;0.389999999015345;40;1 A
71.4247468196698;0.699676513671875;0.288543701171875;0.399999998990097;41;1 A
71.4347468196446;0.69964599609375;0.286865234375;0.40999999896485;42;1 A
71.4447468196194;0.69952392578125;0.288726806640625;0.419999998939602;43;1 A
71.4547468195941;0.69952392578125;0.291534423828125;0.429999998914354;44;1 A
71.4647468195689;0.69952392578125;0.290924072265625;0.439999998889107;45;1 A
71.4747468195436;0.699493408203125;0.296142578125;0.449999998863859;46;1 A
71.4847468195184;0.6995849609375;0.29302978515625;0.459999998838612;47;1 A
71.4947468194931;0.699615478515625;0.29412841796875;0.469999998813364;48;1 A
71.5047468194679;0.69964599609375;0.294219970703125;0.479999998788116;49;1 A
71.5147468194426;0.6995849609375;0.294189453125;0.489999998762869;50;1 A
71.5247468194174;0.699737548828125;0.292144775390625;0.499999998737621;51;1 A
71.5347468193921;0.699676513671875;0.291107177734375;0.509999998712374;52;1 A
71.5447468193669;0.699615478515625;0.29693603515625;0.519999998687126;53;1 A
71.5547468193416;0.699737548828125;0.292510986328125;0.529999998661879;54;1 A
71.5647468193164;0.699737548828125;0.294464111328125;0.539999998636631;55;1 A
71.5747468192911;0.69970703125;0.3011474609375;0.549999998611383;56;1 A
71.5847468192659;0.699798583984375;0.30023193359375;0.559999998586136;57;1 A
71.5947468192406;0.6995849609375;0.298583984375;0.569999998560888;58;1 A
71.6047468192154;0.69964599609375;0.29541015625;0.579999998535641;59;1 A
71.6147468191901;0.69952392578125;0.297393798828125;0.589999998510393;60;1 A
71.6247468191649;0.699676513671875;0.2918701171875;0.599999998485146;61;1 A
71.6347468191397;0.699554443359375;0.290557861328125;0.609999998459898;62;1 A
71.6447468191144;0.69976806640625;0.29156494140625;0.61999999843465;63;1 A
71.6547468190892;0.699676513671875;0.291290283203125;0.629999998409403;64;1 A
71.6647468190639;0.699676513671875;0.29315185546875;0.639999998384155;65;1 A
71.6747468190387;0.69964599609375;0.29449462890625;0.649999998358908;66;1 A
71.6847468190134;0.699554443359375;0.297332763671875;0.65999999833366;67;1 A
71.6947468189882;0.6995849609375;0.295013427734375;0.669999998308413;68;1 A
71.7047468189629;0.69964599609375;0.293975830078125;0.679999998283165;69;1 A
71.7147468189377;0.699676513671875;0.295867919921875;0.689999998257917;70;1 A
71.7247468189124;0.699676513671875;0.29254150390625;0.69999999823267;71;1 A
71.7347468188872;0.699615478515625;0.2950439453125;0.709999998207422;72;1 A
71.7447468188619;0.69964599609375;0.2950439453125;0.719999998182175;73;1 A
71.7547468188367;0.6995849609375;0.29443359375;0.729999998156927;74;1 A
71.7647468188114;0.6998291015625;0.293243408203125;0.73999999813168;75;1 A
71.7747468187862;0.69964599609375;0.293792724609375;0.749999998106432;76;1 A
71.7847468187609;0.699676513671875;0.296417236328125;0.759999998081184;77;1 A
71.7947468187357;0.6998291015625;0.289886474609375;0.769999998055937;78;1 A
71.8047468187104;0.699798583984375;0.289581298828125;0.779999998030689;79;1 A
71.8147468186852;0.69970703125;0.289093017578125;0.789999998005442;80;1 A
71.8247468186599;0.69970703125;0.28955078125;0.799999997980194;81;1 A
71.8347468186347;0.699615478515625;0.292205810546875;0.809999997954947;82;1 A
71.8447468186095;0.69970703125;0.292083740234375;0.819999997929699;83;1 A
71.8547468185842;0.699554443359375;0.2940673828125;0.829999997904451;84;1 A
71.864746818559;0.699676513671875;0.29278564453125;0.839999997879204;85;1 A
71.8747468185337;0.699615478515625;0.29351806640625;0.849999997853956;86;1 A
71.8847468185085;0.699737548828125;0.297119140625;0.859999997828709;87;1 A
71.8947468184832;0.69964599609375;0.293182373046875;0.869999997803461;88;1 A
71.904746818458;0.69964599609375;0.290679931640625;0.879999997778214;89;1 A
71.9147468184327;0.69964599609375;0.290740966796875;0.889999997752966;90;1 A
71.9247468184075;0.69964599609375;0.294677734375;0.899999997727718;91;1 A
71.9347468183822;0.6995849609375;0.288818359375;0.909999997702471;92;1 A
71.944746818357;0.69964599609375;0.28875732421875;0.919999997677223;93;1 A
71.9547468183317;0.699615478515625;0.2978515625;0.929999997651976;94;1 A
71.9647468183065;0.699676513671875;0.292694091796875;0.939999997626728;95;1 A
71.9747468182812;0.69964599609375;0.294586181640625;0.949999997601481;96;1 A
71.984746818256;0.699615478515625;0.296173095703125;0.959999997576233;97;1 A
71.9947468182307;0.69964599609375;0.298095703125;0.969999997550985;98;1 A
72.0047468182055;0.69976806640625;0.295501708984375;0.979999997525738;99;1 A
72.0147468181802;0.699615478515625;0.29473876953125;0.98999999750049;100;1 A
72.024746818155;0.69964599609375;0.29620361328125;0.999999997475243;101;1 A
72.0347468181297;0.699737548828125;0.291534423828125;1.00999999745;102;1 A
72.0447468181045;0.69976806640625;0.292755126953125;1.01999999742475;103;1 A
72.0547468180793;0.699737548828125;0.30023193359375;1.0299999973995;104;1 A
72.064746818054;0.699737548828125;0.296356201171875;1.03999999737425;105;1 A
72.0747468180288;0.69964599609375;0.29541015625;1.049999997349;106;1 A
72.0847468180035;0.69970703125;0.292999267578125;1.05999999732376;107;1 A
72.0947468179783;0.69952392578125;0.294952392578125;1.06999999729851;108;1 A
72.104746817953;0.69970703125;0.2918701171875;1.07999999727326;109;1 A
72.1147468179278;0.699615478515625;0.291900634765625;1.08999999724801;110;1 A
72.1247468179025;0.69970703125;0.296112060546875;1.09999999722277;111;1 A
72.1347468178773;0.69970703125;0.29107666015625;1.10999999719752;112;1 A
72.144746817852;0.699554443359375;0.293212890625;1.11999999717227;113;1 A
72.1547468178268;0.69964599609375;0.2928466796875;1.12999999714702;114;1 A
72.1647468178015;0.6995849609375;0.29705810546875;1.13999999712178;115;1 A
72.1747468177763;0.6995849609375;0.2952880859375;1.14999999709653;116;1 A
72.184746817751;0.699676513671875;0.2945556640625;1.15999999707128;117;1 A
72.1947468177258;0.699615478515625;0.302886962890625;1.16999999704603;118;1 A
72.2047468177005;0.69964599609375;0.296417236328125;1.17999999702079;119;1 A
72.2147468176753;0.69964599609375;0.296966552734375;1.18999999699554;120;1 A
72.22474681765;0.69964599609375;0.303741455078125;1.19999999697029;121;1 A
72.2347468176248;0.699676513671875;0.307647705078125;1.20999999694504;122;1 A
72.2447468175995;0.699737548828125;0.3001708984375;1.2199999969198;123;1 A
72.2547468175743;0.699615478515625;0.297210693359375;1.22999999689455;124;1 A
72.2647468175491;0.6995849609375;0.30120849609375;1.2399999968693;125;1 A
72.2747468175238;0.69970703125;0.2952880859375;1.24999999684405;126;1 A
72.2847468174986;0.69976806640625;0.295074462890625;1.25999999681881;127;1 A
72.2947468174733;0.69976806640625;0.296295166015625;1.26999999679356;128;1 A
72.3047468174481;0.699737548828125;0.296112060546875;1.27999999676831;129;1 A
72.3147468174228;0.699554443359375;0.2967529296875;1.28999999674306;130;1 A
72.3247468173976;0.699493408203125;0.296539306640625;1.29999999671782;131;1 A
72.3347468173723;0.699615478515625;0.3062744140625;1.30999999669257;132;1 A
72.3447468173471;0.699737548828125;0.30047607421875;1.31999999666732;133;1 A
72.3547468173218;0.699615478515625;0.298492431640625;1.32999999664207;134;1 A
72.3647468172966;0.69976806640625;0.29998779296875;1.33999999661683;135;1 A
72.3747468172713;0.69970703125;0.29833984375;1.34999999659158;136;1 A
72.3847468172461;0.699554443359375;0.29827880859375;1.35999999656633;137;1 A
72.3947468172208;0.699676513671875;0.29791259765625;1.36999999654108;138;1 A
72.4047468171956;0.69964599609375;0.30279541015625;1.37999999651583;139;1 A
72.4147468171703;0.699462890625;0.300506591796875;1.38999999649059;140;1 A
72.4247468171451;0.699615478515625;0.298370361328125;1.39999999646534;141;1 A
72.4347468171198;0.699615478515625;0.299530029296875;1.40999999644009;142;1 A
72.4447468170946;0.69964599609375;0.295562744140625;1.41999999641484;143;1 A
72.4547468170693;0.699554443359375;0.296783447265625;1.4299999963896;144;1 A
72.4647468170441;0.6995849609375;0.295867919921875;1.43999999636435;145;1 A
72.4747468170189;0.69970703125;0.296966552734375;1.4499999963391;146;1 A
72.4847468169936;0.69964599609375;0.294189453125;1.45999999631385;147;1 A
72.4947468169684;0.6995849609375;0.2930908203125;1.46999999628861;148;1 A
72.5047468169431;0.699554443359375;0.301727294921875;1.47999999626336;149;1 A
72.5147468169179;0.6995849609375;0.293212890625;1.48999999623811;150;1 A
72.5247468168926;0.699798583984375;0.29254150390625;1.49999999621286;151;1 A
72.5347468168674;0.69964599609375;0.293792724609375;1.50999999618762;152;1 A
72.5447468168421;0.69970703125;0.290252685546875;1.51999999616237;153;1 A
72.5547468168169;0.6995849609375;0.287322998046875;1.52999999613712;154;1 A
72.5647468167916;0.69952392578125;0.287109375;1.53999999611187;155;1 A
72.5747468167664;0.699615478515625;0.29150390625;1.54999999608663;156;1 A
72.5847468167411;0.69964599609375;0.2899169921875;1.55999999606138;157;1 A
72.5947468167159;0.69952392578125;0.291351318359375;1.56999999603613;158;1 A
72.6047468166906;0.69970703125;0.29669189453125;1.57999999601088;159;1 A
72.6147468166654;0.69970703125;0.292877197265625;1.58999999598564;160;1 A
72.6247468166401;0.699615478515625;0.29327392578125;1.59999999596039;161;1 A
72.6347468166149;0.69964599609375;0.2921142578125;1.60999999593514;162;1 A
72.6447468165896;0.69964599609375;0.293853759765625;1.61999999590989;163;1 A
72.6547468165644;0.699462890625;0.292816162109375;1.62999999588465;164;1 A
72.6647468165392;0.69964599609375;0.29266357421875;1.6399999958594;165;1 A
72.6747468165139;0.699554443359375;0.299468994140625;1.64999999583415;166;1 A
72.6847468164887;0.69952392578125;0.292266845703125;1.6599999958089;167;1 A
72.6947468164634;0.6995849609375;0.292633056640625;1.66999999578366;168;1 A
72.7047468164382;0.699615478515625;0.289093017578125;1.67999999575841;169;1 A
72.7147468164129;0.699676513671875;0.287994384765625;1.68999999573316;170;1 A
72.7247468163877;0.699737548828125;0.2874755859375;1.69999999570791;171;1 A
72.7347468163624;0.69952392578125;0.287109375;1.70999999568267;172;1 A
72.7447468163372;0.69970703125;0.292999267578125;1.71999999565742;173;1 A
72.7547468163119;0.69970703125;0.28753662109375;1.72999999563217;174;1 A
72.7647468162867;0.699676513671875;0.28790283203125;1.73999999560692;175;1 A
72.7747468162614;0.69970703125;0.289306640625;1.74999999558167;176;1 A
72.7847468162362;0.69964599609375;0.2869873046875;1.75999999555643;177;1 A
72.7947468162109;0.699615478515625;0.286712646484375;1.76999999553118;178;1 A
72.8047468161857;0.699554443359375;0.285614013671875;1.77999999550593;179;1 A
72.8147468161604;0.699554443359375;0.289886474609375;1.78999999548068;180;1 A
72.8247468161352;0.699676513671875;0.2845458984375;1.79999999545544;181;1 A
72.8347468161099;0.699462890625;0.286590576171875;1.80999999543019;182;1 A
72.8447468160847;0.69970703125;0.29144287109375;1.81999999540494;183;1 A
72.8547468160594;0.69970703125;0.286865234375;1.82999999537969;184;1 A
72.8647468160342;0.699615478515625;0.288330078125;1.83999999535445;185;1 A
72.874746816009;0.69952392578125;0.287841796875;1.8499999953292;186;1 A
72.8847468159837;0.699554443359375;0.29217529296875;1.85999999530395;187;1 A
72.8947468159585;0.699432373046875;0.285430908203125;1.8699999952787;188;1 A
72.9047468159332;0.699554443359375;0.2867431640625;1.87999999525346;189;1 A
72.914746815908;0.699554443359375;0.29290771484375;1.88999999522821;190;1 A
72.9247468158827;0.69952392578125;0.287872314453125;1.89999999520296;191;1 A
72.9347468158575;0.699554443359375;0.2884521484375;1.90999999517771;192;1 A
72.9447468158322;0.69952392578125;0.29022216796875;1.91999999515247;193;1 A
72.954746815807;0.6995849609375;0.287872314453125;1.92999999512722;194;1 A
72.9647468157817;0.699737548828125;0.28692626953125;1.93999999510197;195;1 A
72.9747468157565;0.699462890625;0.28594970703125;1.94999999507672;196;1 A
72.9847468157312;0.699615478515625;0.28765869140625;1.95999999505148;197;1 A
72.994746815706;0.69970703125;0.28460693359375;1.96999999502623;198;1 A
73.0047468156807;0.699737548828125;0.28839111328125;1.97999999500098;199;1 A
73.0147468156555;0.699676513671875;0.291595458984375;1.98999999497573;200;1 A
73.0247468156302;0.6995849609375;0.2901611328125;1.99999999495049;201;1 A
73.034746815605;0.6995849609375;0.289581298828125;2.00999999492524;202;1 A
73.0447468155797;0.69964599609375;0.287109375;2.01999999489999;203;1 A
73.0547468155545;0.699554443359375;0.290374755859375;2.02999999487474;204;1 A
73.0647468155292;0.699676513671875;0.287200927734375;2.0399999948495;205;1 A
73.074746815504;0.699554443359375;0.286590576171875;2.04999999482425;206;1 A
73.0847468154788;0.699676513671875;0.287841796875;2.059999994799;207;1 A
73.0947468154535;0.69964599609375;0.28509521484375;2.06999999477375;208;1 A
73.1047468154283;0.699615478515625;0.284912109375;2.0799999947485;209;1 A
73.114746815403;0.699554443359375;0.286773681640625;2.08999999472326;210;1 A
73.1247468153778;0.699554443359375;0.28973388671875;2.09999999469801;211;1 A
73.1347468153525;0.699462890625;0.287322998046875;2.10999999467276;212;1 A
73.1447468153273;0.6995849609375;0.285064697265625;2.11999999464751;213;1 A
73.154746815302;0.6995849609375;0.2886962890625;2.12999999462227;214;1 A
73.1647468152768;0.69952392578125;0.2838134765625;2.13999999459702;215;1 A
73.1747468152515;0.6995849609375;0.2843017578125;2.14999999457177;216;1 A
73.1847468152263;0.6995849609375;0.286224365234375;2.15999999454652;217;1 A
73.194746815201;0.6995849609375;0.2890625;2.16999999452128;218;1 A
73.2047468151758;0.69976806640625;0.28704833984375;2.17999999449603;219;1 A
73.2147468151505;0.69952392578125;0.2855224609375;2.18999999447078;220;1 A
73.2247468151253;0.699554443359375;0.295196533203125;2.19999999444553;221;1 A
73.2347468151;0.69970703125;0.2869873046875;2.20999999442029;222;1 A
73.2447468150748;0.69970703125;0.2850341796875;2.21999999439504;223;1 A
73.2547468150495;0.69970703125;0.285369873046875;2.22999999436979;224;1 A
73.2647468150243;0.699615478515625;0.28179931640625;2.23999999434454;225;1 A
73.274746814999;0.699615478515625;0.28179931640625;2.2499999943193;226;1 A
73.2847468149738;0.699615478515625;0.282379150390625;2.25999999429405;227;1 A
73.2947468149486;0.699615478515625;0.2862548828125;2.2699999942688;228;1 A
73.3047468149233;0.6995849609375;0.284027099609375;2.27999999424355;229;1 A
73.3147468148981;0.69952392578125;0.286651611328125;2.28999999421831;230;1 A
73.3247468148728;0.69964599609375;0.290924072265625;2.29999999419306;231;1 A
73.3347468148476;0.699615478515625;0.287445068359375;2.30999999416781;232;1 A
73.3447468148223;0.69940185546875;0.28729248046875;2.31999999414256;233;1 A
73.3547468147971;0.69952392578125;0.286468505859375;2.32999999411732;234;1 A
73.3647468147718;0.699462890625;0.287750244140625;2.33999999409207;235;1 A
73.3747468147466;0.699462890625;0.286163330078125;2.34999999406682;236;1 A
73.3847468147213;0.699554443359375;0.286163330078125;2.35999999404157;237;1 A
73.3947468146961;0.699554443359375;0.29351806640625;2.36999999401633;238;1 A
73.4047468146708;0.6995849609375;0.28741455078125;2.37999999399108;239;1 A
73.4147468146456;0.699615478515625;0.29058837890625;2.38999999396583;240;1 A
73.4247468146203;0.699615478515625;0.28936767578125;2.39999999394058;241;1 A
73.4347468145951;0.699554443359375;0.29010009765625;2.40999999391533;242;1 A
73.4447468145698;0.699798583984375;0.29083251953125;2.41999999389009;243;1 A
73.4547468145446;0.699615478515625;0.2889404296875;2.42999999386484;244;1 A
73.4647468145193;0.699615478515625;0.29345703125;2.43999999383959;245;1 A
73.4747468144941;0.699737548828125;0.288604736328125;2.44999999381434;246;1 A
73.4847468144688;0.699615478515625;0.28643798828125;2.4599999937891;247;1 A
73.4947468144436;0.699737548828125;0.290985107421875;2.46999999376385;248;1 A
73.5047468144184;0.69952392578125;0.289886474609375;2.4799999937386;249;1 A
73.5147468143931;0.699676513671875;0.285980224609375;2.48999999371335;250;1 A
73.5247468143679;0.699615478515625;0.285064697265625;2.49999999368811;251;1 A
73.5347468143426;0.69964599609375;0.29144287109375;2.50999999366286;252;1 A
73.5447468143174;0.699676513671875;0.285491943359375;2.51999999363761;253;1 A
73.5547468142921;0.699615478515625;0.285430908203125;2.52999999361236;254;1 A
73.5647468142669;0.699676513671875;0.289825439453125;2.53999999358712;255;1 A
73.5747468142416;0.69970703125;0.287567138671875;2.54999999356187;256;1 A
73.5847468142164;0.699676513671875;0.288970947265625;2.55999999353662;257;1 A
73.5947468141911;0.699554443359375;0.28887939453125;2.56999999351137;258;1 A
73.6047468141659;0.699554443359375;0.2916259765625;2.57999999348613;259;1 A
73.6147468141406;0.69952392578125;0.28912353515625;2.58999999346088;260;1 A
73.6247468141154;0.6995849609375;0.287811279296875;2.59999999343563;261;1 A
73.6347468140901;0.6995849609375;0.290435791015625;2.60999999341038;262;1 A
73.6447468140649;0.6995849609375;0.28619384765625;2.61999999338514;263;1 A
73.6547468140396;0.699676513671875;0.285858154296875;2.62999999335989;264;1 A
73.6647468140144;0.699615478515625;0.289154052734375;2.63999999333464;265;1 A
73.6747468139891;0.699615478515625;0.290313720703125;2.64999999330939;266;1 A
73.6847468139639;0.699737548828125;0.289825439453125;2.65999999328415;267;1 A
73.6947468139387;0.6995849609375;0.289276123046875;2.6699999932589;268;1 A
73.7047468139134;0.69964599609375;0.292633056640625;2.67999999323365;269;1 A
73.7147468138882;0.69970703125;0.291656494140625;2.6899999932084;270;1 A
73.7247468138629;0.69964599609375;0.29345703125;2.69999999318316;271;1 A
73.7347468138377;0.69970703125;0.293609619140625;2.70999999315791;272;1 A
73.7447468138124;0.699615478515625;0.29449462890625;2.71999999313266;273;1 A
73.7547468137872;0.699676513671875;0.29730224609375;2.72999999310741;274;1 A
73.7647468137619;0.69964599609375;0.29803466796875;2.73999999308217;275;1 A
73.7747468137367;0.69970703125;0.297607421875;2.74999999305692;276;1 A
73.7847468137114;0.699676513671875;0.2969970703125;2.75999999303167;277;1 A
73.7947468136862;0.69964599609375;0.294708251953125;2.76999999300642;278;1 A
73.8047468136609;0.69964599609375;0.297149658203125;2.77999999298117;279;1 A
73.8147468136357;0.699737548828125;0.294952392578125;2.78999999295593;280;1 A
73.8247468136104;0.69964599609375;0.293182373046875;2.79999999293068;281;1 A
73.8347468135852;0.699676513671875;0.29241943359375;2.80999999290543;282;1 A
73.8447468135599;0.699615478515625;0.296783447265625;2.81999999288018;283;1 A
73.8547468135347;0.69952392578125;0.29217529296875;2.82999999285494;284;1 A
73.8647468135094;0.699554443359375;0.291595458984375;2.83999999282969;285;1 A
73.8747468134842;0.6995849609375;0.296783447265625;2.84999999280444;286;1 A
73.8847468134589;0.699676513671875;0.293731689453125;2.85999999277919;287;1 A
73.8947468134337;0.699676513671875;0.2945556640625;2.86999999275395;288;1 A
73.9047468134085;0.6995849609375;0.2938232421875;2.8799999927287;289;1 A
73.9147468133832;0.6995849609375;0.2928466796875;2.88999999270345;290;1 A
73.924746813358;0.69976806640625;0.291015625;2.8999999926782;291;1 A
73.9347468133327;0.69970703125;0.29144287109375;2.90999999265296;292;1 A
73.9447468133075;0.6995849609375;0.298675537109375;2.91999999262771;293;1 A
73.9547468132822;0.69976806640625;0.2923583984375;2.92999999260246;294;1 A
73.964746813257;0.69970703125;0.29217529296875;2.93999999257721;295;1 A
73.9747468132317;0.69970703125;0.293853759765625;2.94999999255197;296;1 A
73.9847468132065;0.699737548828125;0.29254150390625;2.95999999252672;297;1 A
73.9947468131812;0.69964599609375;0.2911376953125;2.96999999250147;298;1 A
74.004746813156;0.699737548828125;0.289703369140625;2.97999999247622;299;1 A
74.0147468131307;0.699737548828125;0.28973388671875;2.98999999245098;300;1 A
74.0247468131055;0.69970703125;0.288543701171875;2.99999999242573;301;1 A
74.0347468130802;0.699554443359375;0.2906494140625;3.00999999240048;302;1 A
74.044746813055;0.699676513671875;0.292816162109375;3.01999999237523;303;1 A
74.0547468130297;0.699737548828125;0.29168701171875;3.02999999234999;304;1 A
74.0647468130045;0.699615478515625;0.29217529296875;3.03999999232474;305;1 A
74.0747468129792;0.699737548828125;0.29010009765625;3.04999999229949;306;1 A
74.084746812954;0.699615478515625;0.292022705078125;3.05999999227424;307;1 A
74.0947468129287;0.69964599609375;0.291717529296875;3.069999992249;308;1 A
74.1047468129035;0.69964599609375;0.29095458984375;3.07999999222375;309;1 A
74.1147468128783;0.69952392578125;0.299163818359375;3.0899999921985;310;1 A
74.124746812853;0.69964599609375;0.292022705078125;3.09999999217325;311;1 A
74.1347468128278;0.69970703125;0.28912353515625;3.109999992148;312;1 A
74.1447468128025;0.699615478515625;0.287750244140625;3.11999999212276;313;1 A
74.1547468127773;0.69964599609375;0.28973388671875;3.12999999209751;314;1 A
74.164746812752;0.699798583984375;0.2864990234375;3.13999999207226;315;1 A
74.1747468127268;0.6995849609375;0.285614013671875;3.14999999204701;316;1 A
74.1847468127015;0.699615478515625;0.288543701171875;3.15999999202177;317;1 A
74.1947468126763;0.69976806640625;0.28424072265625;3.16999999199652;318;1 A
74.204746812651;0.69976806640625;0.28521728515625;3.17999999197127;319;1 A
74.2147468126258;0.699676513671875;0.290374755859375;3.18999999194602;320;1 A
74.2247468126005;0.69970703125;0.289398193359375;3.19999999192078;321;1 A
74.2347468125753;0.69964599609375;0.288330078125;3.20999999189553;322;1 A
74.24474681255;0.699676513671875;0.287841796875;3.21999999187028;323;1 A
74.2547468125248;0.69964599609375;0.292999267578125;3.22999999184503;324;1 A
74.2647468124995;0.699676513671875;0.28717041015625;3.23999999181979;325;1 A
74.2747468124743;0.69964599609375;0.287994384765625;3.24999999179454;326;1 A
74.284746812449;0.699737548828125;0.29901123046875;3.25999999176929;327;1 A
74.2947468124238;0.69976806640625;0.292694091796875;3.26999999174404;328;1 A
74.3047468123985;0.6995849609375;0.2930908203125;3.2799999917188;329;1 A
74.3147468123733;0.69970703125;0.2918701171875;3.28999999169355;330;1 A
74.3247468123481;0.6995849609375;0.294097900390625;3.2999999916683;331;1 A
74.3347468123228;0.69964599609375;0.29278564453125;3.30999999164305;332;1 A
74.3447468122976;0.69964599609375;0.2911376953125;3.31999999161781;333;1 A
74.3547468122723;0.6995849609375;0.29449462890625;3.32999999159256;334;1 A
74.3647468122471;0.699615478515625;0.288787841796875;3.33999999156731;335;1 A
74.3747468122218;0.699676513671875;0.289306640625;3.34999999154206;336;1 A
74.3847468121966;0.699615478515625;0.293792724609375;3.35999999151682;337;1 A
74.3947468121713;0.699676513671875;0.291473388671875;3.36999999149157;338;1 A
74.4047468121461;0.699737548828125;0.290618896484375;3.37999999146632;339;1 A
74.4147468121208;0.6995849609375;0.287872314453125;3.38999999144107;340;1 A
74.4247468120956;0.69970703125;0.286956787109375;3.39999999141583;341;1 A
74.4347468120703;0.699737548828125;0.28570556640625;3.40999999139058;342;1 A
74.4447468120451;0.699798583984375;0.28594970703125;3.41999999136533;343;1 A
74.4547468120198;0.69964599609375;0.290679931640625;3.42999999134008;344;1 A
74.4647468119946;0.699737548828125;0.2896728515625;3.43999999131483;345;1 A
74.4747468119693;0.6995849609375;0.2891845703125;3.44999999128959;346;1 A
74.4847468119441;0.699615478515625;0.2901611328125;3.45999999126434;347;1 A
74.4947468119188;0.69964599609375;0.29754638671875;3.46999999123909;348;1 A
74.5047468118936;0.699615478515625;0.2950439453125;3.47999999121384;349;1 A
74.5147468118683;0.699676513671875;0.2962646484375;3.4899999911886;350;1 A
74.5247468118431;0.69964599609375;0.298553466796875;3.49999999116335;351;1 A
74.5347468118179;0.69970703125;0.29644775390625;3.5099999911381;352;1 A
74.5447468117926;0.69964599609375;0.295379638671875;3.51999999111285;353;1 A
74.5547468117674;0.69964599609375;0.29693603515625;3.52999999108761;354;1 A
74.5647468117421;0.699676513671875;0.2989501953125;3.53999999106236;355;1 A
74.5747468117169;0.69952392578125;0.298553466796875;3.54999999103711;356;1 A
74.5847468116916;0.699615478515625;0.295654296875;3.55999999101186;357;1 A
74.5947468116664;0.699554443359375;0.30120849609375;3.56999999098662;358;1 A
74.6047468116411;0.6995849609375;0.29730224609375;3.57999999096137;359;1 A
74.6147468116159;0.699615478515625;0.2962646484375;3.58999999093612;360;1 A
74.6247468115906;0.6995849609375;0.298065185546875;3.59999999091087;361;1 A
74.6347468115654;0.699676513671875;0.29608154296875;3.60999999088563;362;1 A
74.6447468115401;0.699737548828125;0.29315185546875;3.61999999086038;363;1 A
74.6547468115149;0.699615478515625;0.2930908203125;3.62999999083513;364;1 A
74.6647468114896;0.69952392578125;0.298980712890625;3.63999999080988;365;1 A
74.6747468114644;0.699737548828125;0.29132080078125;3.64999999078464;366;1 A
74.6847468114391;0.69970703125;0.2894287109375;3.65999999075939;367;1 A
74.6947468114139;0.699676513671875;0.290435791015625;3.66999999073414;368;1 A
74.7047468113886;0.69970703125;0.2889404296875;3.67999999070889;369;1 A
74.7147468113634;0.699615478515625;0.28533935546875;3.68999999068365;370;1 A
74.7247468113382;0.699615478515625;0.283966064453125;3.6999999906584;371;1 A
74.7347468113129;0.69964599609375;0.2904052734375;3.70999999063315;372;1 A
74.7447468112877;0.69970703125;0.282470703125;3.7199999906079;373;1 A
74.7547468112624;0.699676513671875;0.282958984375;3.72999999058266;374;1 A
74.7647468112372;0.699676513671875;0.286865234375;3.73999999055741;375;1 A
74.7747468112119;0.69970703125;0.28082275390625;3.74999999053216;376;1 A
74.7847468111867;0.69952392578125;0.28167724609375;3.75999999050691;377;1 A
74.7947468111614;0.699554443359375;0.28131103515625;3.76999999048167;378;1 A
74.8047468111362;0.69964599609375;0.28082275390625;3.77999999045642;379;1 A
74.8147468111109;0.699554443359375;0.282257080078125;3.78999999043117;380;1 A
74.8247468110857;0.69964599609375;0.28387451171875;3.79999999040592;381;1 A
74.8347468110604;0.699554443359375;0.294952392578125;3.80999999038067;382;1 A
74.8447468110352;0.69952392578125;0.28863525390625;3.81999999035543;383;1 A
74.8547468110099;0.699615478515625;0.28912353515625;3.82999999033018;384;1 A
74.8647468109847;0.699554443359375;0.291351318359375;3.83999999030493;385;1 A
74.8747468109594;0.699676513671875;0.2904052734375;3.84999999027968;386;1 A
74.8847468109342;0.69976806640625;0.287841796875;3.85999999025444;387;1 A
74.8947468109089;0.699676513671875;0.288665771484375;3.86999999022919;388;1 A
74.9047468108837;0.6995849609375;0.296234130859375;3.87999999020394;389;1 A
74.9147468108584;0.699676513671875;0.2921142578125;3.88999999017869;390;1 A
74.9247468108332;0.69964599609375;0.292266845703125;3.89999999015345;391;1 A
74.934746810808;0.69964599609375;0.293701171875;3.9099999901282;392;1 A
74.9447468107827;0.6995849609375;0.2906494140625;3.91999999010295;393;1 A
74.9547468107575;0.699615478515625;0.29510498046875;3.9299999900777;394;1 A
74.9647468107322;0.69964599609375;0.292083740234375;3.93999999005246;395;1 A
74.974746810707;0.699676513671875;0.28997802734375;3.94999999002721;396;1 A
74.9847468106817;0.69964599609375;0.2877197265625;3.95999999000196;397;1 A
74.9947468106565;0.69964599609375;0.2879638671875;3.96999998997671;398;1 A
75.0047468106312;0.69964599609375;0.294647216796875;3.97999998995147;399;1 A
75.014746810606;0.699615478515625;0.291351318359375;3.98999998992622;400;1 A
75.0247468105807;0.699615478515625;0.29034423828125;3.99999998990097;401;1 A
75.0347468105555;0.69952392578125;0.2896728515625;4.00999998987572;402;1 A
75.0447468105302;0.6995849609375;0.294189453125;4.01999998985048;403;1 A
75.054746810505;0.69964599609375;0.29248046875;4.02999998982523;404;1 A
75.0647468104797;0.699615478515625;0.290191650390625;4.03999998979998;405;1 A
75.0747468104545;0.699554443359375;0.29815673828125;4.04999998977473;406;1 A
75.0847468104292;0.699554443359375;0.290252685546875;4.05999998974949;407;1 A
75.094746810404;0.699676513671875;0.289886474609375;4.06999998972424;408;1 A
75.1047468103787;0.69964599609375;0.29217529296875;4.07999998969899;409;1 A
75.1147468103535;0.699615478515625;0.29278564453125;4.08999998967374;410;1 A
75.1247468103282;0.69970703125;0.292449951171875;4.0999999896485;411;1 A
75.134746810303;0.699554443359375;0.291534423828125;4.10999998962325;412;1 A
75.1447468102778;0.699615478515625;0.292999267578125;4.119999989598;413;1 A
75.1547468102525;0.69964599609375;0.290863037109375;4.12999998957275;414;1 A
75.1647468102273;0.69964599609375;0.2923583984375;4.1399999895475;415;1 A
75.174746810202;0.69970703125;0.295867919921875;4.14999998952226;416;1 A
75.1847468101768;0.69952392578125;0.2926025390625;4.15999998949701;417;1 A
75.1947468101515;0.699615478515625;0.291534423828125;4.16999998947176;418;1 A
75.2047468101263;0.69964599609375;0.290313720703125;4.17999998944651;419;1 A
75.214746810101;0.699615478515625;0.295623779296875;4.18999998942127;420;1 A
75.2247468100758;0.699615478515625;0.289947509765625;4.19999998939602;421;1 A
75.2347468100505;0.69976806640625;0.29083251953125;4.20999998937077;422;1 A
75.2447468100253;0.699554443359375;0.296539306640625;4.21999998934552;423;1 A
75.25474681;0.699737548828125;0.293609619140625;4.22999998932028;424;1 A
75.2647468099748;0.699615478515625;0.29296875;4.23999998929503;425;1 A
75.2747468099495;0.699615478515625;0.29559326171875;4.24999998926978;426;1 A
75.2847468099243;0.6995849609375;0.3018798828125;4.25999998924453;427;1 A
75.294746809899;0.6995849609375;0.2965087890625;4.26999998921929;428;1 A
75.3047468098738;0.699554443359375;0.297698974609375;4.27999998919404;429;1 A
75.3147468098485;0.6995849609375;0.30108642578125;4.28999998916879;430;1 A
75.3247468098233;0.699554443359375;0.2972412109375;4.29999998914354;431;1 A
75.334746809798;0.69964599609375;0.301422119140625;4.3099999891183;432;1 A
75.3447468097728;0.69964599609375;0.304473876953125;4.31999998909305;433;1 A
75.3547468097476;0.69970703125;0.305511474609375;4.3299999890678;434;1 A
75.3647468097223;0.69964599609375;0.301513671875;4.33999998904255;435;1 A
75.3747468096971;0.699615478515625;0.2999267578125;4.34999998901731;436;1 A
75.3847468096718;0.699493408203125;0.30517578125;4.35999998899206;437;1 A
75.3947468096466;0.69970703125;0.295867919921875;4.36999998896681;438;1 A
75.4047468096213;0.69964599609375;0.29583740234375;4.37999998894156;439;1 A
75.4147468095961;0.69970703125;0.295745849609375;4.38999998891632;440;1 A
75.4247468095708;0.6995849609375;0.29205322265625;4.39999998889107;441;1 A
75.4347468095456;0.69964599609375;0.29058837890625;4.40999998886582;442;1 A
75.4447468095203;0.69964599609375;0.28973388671875;4.41999998884057;443;1 A
75.4547468094951;0.699676513671875;0.292510986328125;4.42999998881533;444;1 A
75.4647468094698;0.69964599609375;0.289825439453125;4.43999998879008;445;1 A
75.4747468094446;0.699676513671875;0.291229248046875;4.44999998876483;446;1 A
75.4847468094193;0.699615478515625;0.2962646484375;4.45999998873958;447;1 A
75.4947468093941;0.699676513671875;0.2919921875;4.46999998871433;448;1 A
75.5047468093688;0.699493408203125;0.29345703125;4.47999998868909;449;1 A
75.5147468093436;0.699676513671875;0.291961669921875;4.48999998866384;450;1 A
75.5247468093183;0.6995849609375;0.291259765625;4.49999998863859;451;1 A
75.5347468092931;0.699676513671875;0.288360595703125;4.50999998861334;452;1 A
75.5447468092678;0.699676513671875;0.28668212890625;4.5199999885881;453;1 A
75.5547468092426;0.69964599609375;0.29156494140625;4.52999998856285;454;1 A
75.5647468092174;0.699554443359375;0.28582763671875;4.5399999885376;455;1 A
75.5747468091921;0.69964599609375;0.287689208984375;4.54999998851235;456;1 A
75.5847468091669;0.699676513671875;0.284332275390625;4.55999998848711;457;1 A
75.5947468091416;0.69970703125;0.2830810546875;4.56999998846186;458;1 A
75.6047468091164;0.69970703125;0.284637451171875;4.57999998843661;459;1 A
75.6147468090911;0.699676513671875;0.28472900390625;4.58999998841136;460;1 A
75.6247468090659;0.699554443359375;0.289703369140625;4.59999998838612;461;1 A
75.6347468090406;0.699737548828125;0.28387451171875;4.60999998836087;462;1 A
75.6447468090154;0.699615478515625;0.28515625;4.61999998833562;463;1 A
75.6547468089901;0.69970703125;0.285919189453125;4.62999998831037;464;1 A
75.6647468089649;0.6995849609375;0.2822265625;4.63999998828513;465;1 A
75.6747468089396;0.699615478515625;0.28387451171875;4.64999998825988;466;1 A
75.6847468089144;0.699737548828125;0.28619384765625;4.65999998823463;467;1 A
75.6947468088891;0.69964599609375;0.289581298828125;4.66999998820938;468;1 A
75.7047468088639;0.69964599609375;0.28948974609375;4.67999998818414;469;1 A
75.7147468088386;0.699676513671875;0.29052734375;4.68999998815889;470;1 A
75.7247468088134;0.69952392578125;0.29608154296875;4.69999998813364;471;1 A
75.7347468087881;0.699737548828125;0.29364013671875;4.70999998810839;472;1 A
75.7447468087629;0.699615478515625;0.293548583984375;4.71999998808315;473;1 A
75.7547468087377;0.699798583984375;0.29290771484375;4.7299999880579;474;1 A
75.7647468087124;0.699462890625;0.2972412109375;4.73999998803265;475;1 A
75.7747468086872;0.699798583984375;0.292022705078125;4.7499999880074;476;1 A
75.7847468086619;0.69964599609375;0.291412353515625;4.75999998798216;477;1 A
75.7947468086367;0.699554443359375;0.30316162109375;4.76999998795691;478;1 A
75.8047468086114;0.699676513671875;0.29388427734375;4.77999998793166;479;1 A
75.8147468085862;0.699615478515625;0.293853759765625;4.78999998790641;480;1 A
75.8247468085609;0.69964599609375;0.296539306640625;4.79999998788116;481;1 A
75.8347468085357;0.69970703125;0.297882080078125;4.80999998785592;482;1 A
75.8447468085104;0.699615478515625;0.298553466796875;4.81999998783067;483;1 A
75.8547468084852;0.699676513671875;0.2928466796875;4.82999998780542;484;1 A
75.8647468084599;0.6995849609375;0.29937744140625;4.83999998778017;485;1 A
75.8747468084347;0.69970703125;0.29058837890625;4.84999998775493;486;1 A
75.8847468084094;0.6995849609375;0.291259765625;4.85999998772968;487;1 A
75.8947468083842;0.699798583984375;0.294586181640625;4.86999998770443;488;1 A
75.9047468083589;0.69964599609375;0.28955078125;4.87999998767918;489;1 A
75.9147468083337;0.699615478515625;0.28619384765625;4.88999998765394;490;1 A
75.9247468083084;0.699676513671875;0.2864990234375;4.89999998762869;491;1 A
75.9347468082832;0.69964599609375;0.297119140625;4.90999998760344;492;1 A
75.9447468082579;0.69964599609375;0.291351318359375;4.91999998757819;493;1 A
75.9547468082327;0.69976806640625;0.29144287109375;4.92999998755295;494;1 A
75.9647468082075;0.699554443359375;0.2945556640625;4.9399999875277;495;1 A
75.9747468081822;0.699859619140625;0.291748046875;4.94999998750245;496;1 A
75.984746808157;0.699615478515625;0.29156494140625;4.9599999874772;497;1 A
75.9947468081317;0.69970703125;0.2918701171875;4.96999998745196;498;1 A
76.0047468081065;0.699554443359375;0.2945556640625;4.97999998742671;499;1 A
76.0147468080812;0.69970703125;0.29034423828125;4.98999998740146;500;1 A
76.024746808056;0.699615478515625;0.290313720703125;4.99999998737621;501;1 A
76.0347468080307;0.69964599609375;0.29302978515625;5.00999998735097;502;1 A
76.0447468080055;0.699615478515625;0.290679931640625;5.01999998732572;503;1 A
76.0547468079802;0.69964599609375;0.295074462890625;5.02999998730047;504;1 A
76.064746807955;0.69964599609375;0.29620361328125;5.03999998727522;505;1 A
76.0747468079297;0.69970703125;0.296234130859375;5.04999998724998;506;1 A
76.0847468079045;0.699676513671875;0.294219970703125;5.05999998722473;507;1 A
76.0947468078792;0.699676513671875;0.294677734375;5.06999998719948;508;1 A
76.104746807854;0.69952392578125;0.300628662109375;5.07999998717423;509;1 A
76.1147468078287;0.699676513671875;0.294219970703125;5.08999998714899;510;1 A
76.1247468078035;0.699676513671875;0.294708251953125;5.09999998712374;511;1 A
76.1347468077782;0.69976806640625;0.299591064453125;5.10999998709849;512;1 A
76.144746807753;0.69952392578125;0.298095703125;5.11999998707324;513;1 A
76.1547468077277;0.69964599609375;0.29620361328125;5.129999987048;514;1 A
76.1647468077025;0.699676513671875;0.29437255859375;5.13999998702275;515;1 A
76.1747468076773;0.699676513671875;0.297943115234375;5.1499999869975;516;1 A
76.184746807652;0.699676513671875;0.291168212890625;5.15999998697225;517;1 A
76.1947468076268;0.69964599609375;0.290283203125;5.169999986947;518;1 A
76.2047468076015;0.69952392578125;0.29461669921875;5.17999998692176;519;1 A
76.2147468075763;0.69964599609375;0.289215087890625;5.18999998689651;520;1 A
76.224746807551;0.699493408203125;0.288970947265625;5.19999998687126;521;1 A
76.2347468075258;0.69964599609375;0.291748046875;5.20999998684601;522;1 A
76.2447468075005;0.6995849609375;0.296905517578125;5.21999998682077;523;1 A
76.2547468074753;0.69964599609375;0.292999267578125;5.22999998679552;524;1 A
76.26474680745;0.699615478515625;0.2943115234375;5.23999998677027;525;1 A
76.2747468074248;0.69964599609375;0.300506591796875;5.24999998674502;526;1 A
76.2847468073995;0.699615478515625;0.294769287109375;5.25999998671978;527;1 A
76.2947468073743;0.69964599609375;0.2926025390625;5.26999998669453;528;1 A
76.304746807349;0.6995849609375;0.291351318359375;5.27999998666928;529;1 A
76.3147468073238;0.69964599609375;0.293792724609375;5.28999998664403;530;1 A
76.3247468072985;0.69964599609375;0.291961669921875;5.29999998661879;531;1 A
76.3347468072733;0.699615478515625;0.2921142578125;5.30999998659354;532;1 A
76.344746807248;0.69952392578125;0.295684814453125;5.31999998656829;533;1 A
76.3547468072228;0.699676513671875;0.293731689453125;5.32999998654304;534;1 A
76.3647468071975;0.699554443359375;0.29693603515625;5.3399999865178;535;1 A
76.3747468071723;0.69970703125;0.296417236328125;5.34999998649255;536;1 A
76.3847468071471;0.699554443359375;0.2921142578125;5.3599999864673;537;1 A
76.3947468071218;0.69964599609375;0.29034423828125;5.36999998644205;538;1 A
76.4047468070966;0.69964599609375;0.2880859375;5.37999998641681;539;1 A
76.4147468070713;0.69964599609375;0.2904052734375;5.38999998639156;540;1 A
76.4247468070461;0.6995849609375;0.29010009765625;5.39999998636631;541;1 A
76.4347468070208;0.69970703125;0.28863525390625;5.40999998634106;542;1 A
76.4447468069956;0.699554443359375;0.295257568359375;5.41999998631582;543;1 A
76.4547468069703;0.69970703125;0.291046142578125;5.42999998629057;544;1 A
76.4647468069451;0.6995849609375;0.29058837890625;5.43999998626532;545;1 A
76.4747468069198;0.6995849609375;0.288604736328125;5.44999998624007;546;1 A
76.4847468068946;0.699615478515625;0.28948974609375;5.45999998621483;547;1 A
76.4947468068693;0.699554443359375;0.28851318359375;5.46999998618958;548;1 A
76.5047468068441;0.6995849609375;0.29022216796875;5.47999998616433;549;1 A
76.5147468068188;0.69964599609375;0.292572021484375;5.48999998613908;550;1 A
76.5247468067936;0.699554443359375;0.29034423828125;5.49999998611383;551;1 A
76.5347468067683;0.699615478515625;0.2926025390625;5.50999998608859;552;1 A
76.5447468067431;0.699615478515625;0.294097900390625;5.51999998606334;553;1 A
76.5547468067178;0.699676513671875;0.294891357421875;5.52999998603809;554;1 A
76.5647468066926;0.699615478515625;0.295318603515625;5.53999998601284;555;1 A
76.5747468066673;0.699676513671875;0.293914794921875;5.5499999859876;556;1 A
76.5847468066421;0.69952392578125;0.3018798828125;5.55999998596235;557;1 A
76.5947468066169;0.69964599609375;0.293365478515625;5.5699999859371;558;1 A
76.6047468065916;0.69970703125;0.290985107421875;5.57999998591185;559;1 A
76.6147468065664;0.699676513671875;0.30169677734375;5.58999998588661;560;1 A
76.6247468065411;0.699615478515625;0.29644775390625;5.59999998586136;561;1 A
76.6347468065159;0.6995849609375;0.293731689453125;5.60999998583611;562;1 A
76.6447468064906;0.69970703125;0.2911376953125;5.61999998581086;563;1 A
76.6547468064654;0.69964599609375;0.29705810546875;5.62999998578562;564;1 A
76.6647468064401;0.699676513671875;0.292877197265625;5.63999998576037;565;1 A
76.6747468064149;0.69970703125;0.292022705078125;5.64999998573512;566;1 A
76.6847468063896;0.699554443359375;0.2962646484375;5.65999998570987;567;1 A
76.6947468063644;0.699798583984375;0.28985595703125;5.66999998568463;568;1 A
76.7047468063391;0.699554443359375;0.289306640625;5.67999998565938;569;1 A
76.7147468063139;0.69970703125;0.28851318359375;5.68999998563413;570;1 A
76.7247468062886;0.699676513671875;0.29010009765625;5.69999998560888;571;1 A
76.7347468062634;0.69970703125;0.29022216796875;5.70999998558364;572;1 A
76.7447468062381;0.699676513671875;0.28912353515625;5.71999998555839;573;1 A
76.7547468062129;0.69970703125;0.28948974609375;5.72999998553314;574;1 A
76.7647468061876;0.699615478515625;0.2840576171875;5.73999998550789;575;1 A
76.7747468061624;0.699676513671875;0.28564453125;5.74999998548265;576;1 A
76.7847468061372;0.69964599609375;0.290740966796875;5.7599999854574;577;1 A
76.7947468061119;0.69970703125;0.29058837890625;5.76999998543215;578;1 A
76.8047468060867;0.699676513671875;0.290557861328125;5.7799999854069;579;1 A
76.8147468060614;0.699676513671875;0.290863037109375;5.78999998538166;580;1 A
76.8247468060362;0.699554443359375;0.297821044921875;5.79999998535641;581;1 A
76.8347468060109;0.699737548828125;0.293609619140625;5.80999998533116;582;1 A
76.8447468059857;0.69970703125;0.29437255859375;5.81999998530591;583;1 A
76.8547468059604;0.699737548828125;0.298553466796875;5.82999998528066;584;1 A
76.8647468059352;0.699615478515625;0.2957763671875;5.83999998525542;585;1 A
76.8747468059099;0.699554443359375;0.294921875;5.84999998523017;586;1 A
76.8847468058847;0.699737548828125;0.29522705078125;5.85999998520492;587;1 A
76.8947468058594;0.699676513671875;0.302093505859375;5.86999998517967;588;1 A
76.9047468058342;0.69964599609375;0.295623779296875;5.87999998515443;589;1 A
76.9147468058089;0.69976806640625;0.29705810546875;5.88999998512918;590;1 A
76.9247468057837;0.69952392578125;0.300933837890625;5.89999998510393;591;1 A
76.9347468057584;0.699798583984375;0.296630859375;5.90999998507868;592;1 A
76.9447468057332;0.69952392578125;0.298004150390625;5.91999998505344;593;1 A
76.9547468057079;0.69970703125;0.300384521484375;5.92999998502819;594;1 A
76.9647468056827;0.699615478515625;0.30377197265625;5.93999998500294;595;1 A
76.9747468056574;0.699676513671875;0.298187255859375;5.94999998497769;596;1 A
76.9847468056322;0.69964599609375;0.296630859375;5.95999998495245;597;1 A
76.994746805607;0.699615478515625;0.30126953125;5.9699999849272;598;1 A
77.0047468055817;0.699676513671875;0.294952392578125;5.97999998490195;599;1 A
77.0147468055565;0.69970703125;0.295166015625;5.9899999848767;600;1 A
77.0247468055312;0.699676513671875;0.297088623046875;5.99999998485146;601;1 A
77.034746805506;0.69964599609375;0.29534912109375;6.00999998482621;602;1 A
77.0447468054807;0.69970703125;0.291290283203125;6.01999998480096;603;1 A
77.0547468054555;0.699676513671875;0.29119873046875;6.02999998477571;604;1 A
77.0647468054302;0.69964599609375;0.2979736328125;6.03999998475047;605;1 A
77.074746805405;0.69964599609375;0.2890625;6.04999998472522;606;1 A
77.0847468053797;0.69964599609375;0.289306640625;6.05999998469997;607;1 A
77.0947468053545;0.69976806640625;0.2894287109375;6.06999998467472;608;1 A
77.1047468053292;0.699615478515625;0.287567138671875;6.07999998464948;609;1 A
77.114746805304;0.699615478515625;0.291473388671875;6.08999998462423;610;1 A
77.1247468052787;0.699676513671875;0.28997802734375;6.09999998459898;611;1 A
77.1347468052535;0.699615478515625;0.29205322265625;6.10999998457373;612;1 A
77.1447468052282;0.69964599609375;0.2899169921875;6.11999998454849;613;1 A
77.154746805203;0.699554443359375;0.291412353515625;6.12999998452324;614;1 A
77.1647468051777;0.699493408203125;0.293731689453125;6.13999998449799;615;1 A
77.1747468051525;0.69976806640625;0.290435791015625;6.14999998447274;616;1 A
77.1847468051272;0.699554443359375;0.29510498046875;6.1599999844475;617;1 A
77.194746805102;0.699615478515625;0.29412841796875;6.16999998442225;618;1 A
77.2047468050768;0.6995849609375;0.2977294921875;6.179999984397;619;1 A
77.2147468050515;0.69964599609375;0.29571533203125;6.18999998437175;620;1 A
77.2247468050263;0.69964599609375;0.29644775390625;6.1999999843465;621;1 A
77.234746805001;0.6995849609375;0.3021240234375;6.20999998432126;622;1 A
77.2447468049758;0.6995849609375;0.297576904296875;6.21999998429601;623;1 A
77.2547468049505;0.69970703125;0.297607421875;6.22999998427076;624;1 A
77.2647468049253;0.69964599609375;0.29913330078125;6.23999998424551;625;1 A
77.2747468049;0.6995849609375;0.300201416015625;6.24999998422027;626;1 A
77.2847468048748;0.699676513671875;0.297393798828125;6.25999998419502;627;1 A
77.2947468048495;0.6995849609375;0.295745849609375;6.26999998416977;628;1 A
77.3047468048243;0.6995849609375;0.299102783203125;6.27999998414452;629;1 A
77.314746804799;0.6995849609375;0.2957763671875;6.28999998411928;630;1 A
77.3247468047738;0.699615478515625;0.298736572265625;6.29999998409403;631;1 A
77.3347468047485;0.699676513671875;0.300872802734375;6.30999998406878;632;1 A
77.3447468047233;0.6995849609375;0.29638671875;6.31999998404353;633;1 A
77.354746804698;0.699676513671875;0.295379638671875;6.32999998401829;634;1 A
77.3647468046728;0.699676513671875;0.293670654296875;6.33999998399304;635;1 A
77.3747468046475;0.69964599609375;0.293914794921875;6.34999998396779;636;1 A
77.3847468046223;0.699615478515625;0.295684814453125;6.35999998394254;637;1 A
77.394746804597;0.69970703125;0.295989990234375;6.3699999839173;638;1 A
77.4047468045718;0.69964599609375;0.295501708984375;6.37999998389205;639;1 A
77.4147468045466;0.699676513671875;0.29254150390625;6.3899999838668;640;1 A
77.4247468045213;0.699554443359375;0.291961669921875;6.39999998384155;641;1 A
77.4347468044961;0.6995849609375;0.29058837890625;6.40999998381631;642;1 A
77.4447468044708;0.699615478515625;0.2957763671875;6.41999998379106;643;1 A
77.4547468044456;0.699615478515625;0.292022705078125;6.42999998376581;644;1 A
77.4647468044203;0.699676513671875;0.2886962890625;6.43999998374056;645;1 A
77.4747468043951;0.6995849609375;0.286895751953125;6.44999998371532;646;1 A
77.4847468043698;0.699493408203125;0.285369873046875;6.45999998369007;647;1 A
77.4947468043446;0.699676513671875;0.286529541015625;6.46999998366482;648;1 A
77.5047468043193;0.699615478515625;0.2880859375;6.47999998363957;649;1 A
77.5147468042941;0.699676513671875;0.28826904296875;6.48999998361433;650;1 A
77.5247468042688;0.699676513671875;0.286773681640625;6.49999998358908;651;1 A
77.5347468042436;0.699615478515625;0.285491943359375;6.50999998356383;652;1 A
77.5447468042183;0.699493408203125;0.2926025390625;6.51999998353858;653;1 A
77.5547468041931;0.699737548828125;0.284454345703125;6.52999998351333;654;1 A
77.5647468041678;0.69970703125;0.284088134765625;6.53999998348809;655;1 A
77.5747468041426;0.699676513671875;0.290557861328125;6.54999998346284;656;1 A
77.5847468041173;0.699615478515625;0.29132080078125;6.55999998343759;657;1 A
77.5947468040921;0.69964599609375;0.287689208984375;6.56999998341234;658;1 A
77.6047468040668;0.699676513671875;0.286376953125;6.5799999833871;659;1 A
77.6147468040416;0.699615478515625;0.296722412109375;6.58999998336185;660;1 A
77.6247468040164;0.6995849609375;0.28790283203125;6.5999999833366;661;1 A
77.6347468039911;0.699798583984375;0.29010009765625;6.60999998331135;662;1 A
77.6447468039659;0.6995849609375;0.297088623046875;6.61999998328611;663;1 A
77.6547468039406;0.699798583984375;0.2930908203125;6.62999998326086;664;1 A
77.6647468039154;0.6995849609375;0.2923583984375;6.63999998323561;665;1 A
77.6747468038901;0.699615478515625;0.296356201171875;6.64999998321036;666;1 A
77.6847468038649;0.699737548828125;0.298004150390625;6.65999998318512;667;1 A
77.6947468038396;0.699676513671875;0.2913818359375;6.66999998315987;668;1 A
77.7047468038144;0.699676513671875;0.2899169921875;6.67999998313462;669;1 A
77.7147468037891;0.699554443359375;0.2908935546875;6.68999998310937;670;1 A
77.7247468037639;0.6995849609375;0.2904052734375;6.69999998308413;671;1 A
77.7347468037386;0.69964599609375;0.29327392578125;6.70999998305888;672;1 A
77.7447468037134;0.69964599609375;0.294403076171875;6.71999998303363;673;1 A
77.7547468036881;0.69976806640625;0.294769287109375;6.72999998300838;674;1 A
77.7647468036629;0.699676513671875;0.293487548828125;6.73999998298314;675;1 A
77.7747468036376;0.69970703125;0.293701171875;6.74999998295789;676;1 A
77.7847468036124;0.69964599609375;0.299407958984375;6.75999998293264;677;1 A
77.7947468035871;0.699737548828125;0.292724609375;6.76999998290739;678;1 A
77.8047468035619;0.699676513671875;0.291656494140625;6.77999998288215;679;1 A
77.8147468035367;0.699737548828125;0.290771484375;6.7899999828569;680;1 A
77.8247468035114;0.699676513671875;0.292327880859375;6.79999998283165;681;1 A
77.8347468034862;0.699615478515625;0.293548583984375;6.8099999828064;682;1 A
77.8447468034609;0.699737548828125;0.29144287109375;6.81999998278116;683;1 A
77.8547468034357;0.699676513671875;0.296356201171875;6.82999998275591;684;1 A
77.8647468034104;0.69964599609375;0.29205322265625;6.83999998273066;685;1 A
77.8747468033852;0.699737548828125;0.29229736328125;6.84999998270541;686;1 A
77.8847468033599;0.699554443359375;0.295501708984375;6.85999998268016;687;1 A
77.8947468033347;0.699737548828125;0.291717529296875;6.86999998265492;688;1 A
77.9047468033094;0.699493408203125;0.2933349609375;6.87999998262967;689;1 A
77.9147468032842;0.6995849609375;0.292938232421875;6.88999998260442;690;1 A
77.9247468032589;0.6995849609375;0.29364013671875;6.89999998257917;691;1 A
77.9347468032337;0.69976806640625;0.291778564453125;6.90999998255393;692;1 A
77.9447468032084;0.699798583984375;0.290374755859375;6.91999998252868;693;1 A
77.9547468031832;0.699615478515625;0.29595947265625;6.92999998250343;694;1 A
77.9647468031579;0.699615478515625;0.291259765625;6.93999998247818;695;1 A
77.9747468031327;0.69970703125;0.291107177734375;6.94999998245294;696;1 A
77.9847468031074;0.6995849609375;0.292388916015625;6.95999998242769;697;1 A
77.9947468030822;0.699676513671875;0.291534423828125;6.96999998240244;698;1 A
78.0047468030569;0.69976806640625;0.288482666015625;6.97999998237719;699;1 A
78.0147468030317;0.6995849609375;0.2864990234375;6.98999998235195;700;1 A
