Time (s);WE(1).Potential (V);WE(1).Current (A);Corrected time (s);Index;Current range
0.541165998633687;0.400482177734375;0.023284912109375;0;1;100 mA
0.55116599860844;0.40045166015625;0.015948486328125;0.00999999997475243;2;100 mA
0.561165998583192;0.400421142578125;0.0121856689453125;0.0199999999495049;3;100 mA
0.571165998557944;0.400543212890625;0.01005859375;0.0299999999242573;4;100 mA
0.581165998532697;0.4005126953125;0.0085784912109375;0.0399999998990097;5;100 mA
0.591165998507449;0.400390625;0.0074127197265625;0.0499999998737621;6;100 mA
0.601165998482202;0.40057373046875;0.006671142578125;0.0599999998485146;7;100 mA
0.611165998456954;0.400543212890625;0.0059814453125;0.069999999823267;8;100 mA
0.621165998431707;0.400421142578125;0.0055145263671875;0.0799999997980194;9;100 mA
0.631165998406459;0.400543212890625;0.005126953125;0.0899999997727718;10;100 mA
0.641165998381211;0.40057373046875;0.0046875;0.0999999997475243;11;100 mA
0.651165998355964;0.40045166015625;0.0044891357421875;0.109999999722277;12;100 mA
0.661165998330716;0.400604248046875;0.0041778564453125;0.119999999697029;13;100 mA
0.671165998305469;0.400665283203125;0.003956298828125;0.129999999671782;14;100 mA
0.681165998280221;0.400604248046875;0.00385009765625;0.139999999646534;15;100 mA
0.691165998254974;0.4005126953125;0.00356048583984375;0.149999999621286;16;100 mA
0.701165998229726;0.400604248046875;0.00347930908203125;0.159999999596039;17;100 mA
0.711165998204478;0.4005126953125;0.00335357666015625;0.169999999570791;18;100 mA
0.721165998179231;0.4005126953125;0.0031585693359375;0.179999999545544;19;100 mA
0.731165998153983;0.40057373046875;0.00314239501953125;0.189999999520296;20;100 mA
0.741165998128736;0.400665283203125;0.00299072265625;0.199999999495049;21;100 mA
0.751165998103488;0.400482177734375;0.0028863525390625;0.209999999469801;22;100 mA
0.761165998078241;0.400604248046875;0.0028887939453125;0.219999999444553;23;100 mA
0.771165998052993;0.40057373046875;0.0027117919921875;0.229999999419306;24;100 mA
0.781165998027745;0.400421142578125;0.00271209716796875;0.239999999394058;25;100 mA
0.791165998002498;0.4005126953125;0.00265625;0.249999999368811;26;100 mA
0.80116599797725;0.400634765625;0.00253326416015625;0.259999999343563;27;100 mA
0.811165997952003;0.400634765625;0.00256500244140625;0.269999999318316;28;100 mA
0.821165997926755;0.400604248046875;0.00245208740234375;0.279999999293068;29;100 mA
0.831165997901508;0.400726318359375;0.00239013671875;0.28999999926782;30;100 mA
0.84116599787626;0.400604248046875;0.0024072265625;0.299999999242573;31;100 mA
0.851165997851012;0.400543212890625;0.00230560302734375;0.309999999217325;32;100 mA
0.861165997825765;0.400543212890625;0.00233642578125;0.319999999192078;33;100 mA
0.871165997800517;0.400665283203125;0.0023138427734375;0.32999999916683;34;100 mA
0.88116599777527;0.4005126953125;0.00220611572265625;0.339999999141583;35;100 mA
0.891165997750022;0.40057373046875;0.00224945068359375;0.349999999116335;36;100 mA
0.901165997724775;0.400604248046875;0.00218536376953125;0.359999999091087;37;100 mA
0.911165997699527;0.400543212890625;0.002138671875;0.36999999906584;38;100 mA
0.921165997674279;0.40057373046875;0.00218353271484375;0.379999999040592;39;100 mA
0.931165997649032;0.400482177734375;0.00209564208984375;0.389999999015345;40;100 mA
0.941165997623784;0.400482177734375;0.0021185302734375;0.399999998990097;41;100 mA
0.951165997598537;0.400421142578125;0.0021136474609375;0.40999999896485;42;100 mA
0.961165997573289;0.400543212890625;0.00201934814453125;0.419999998939602;43;100 mA
0.971165997548042;0.400604248046875;0.00205841064453125;0.429999998914354;44;100 mA
0.981165997522794;0.4005126953125;0.002008056640625;0.439999998889107;45;100 mA
0.991165997497546;0.400726318359375;0.0019482421875;0.449999998863859;46;100 mA
1.0011659974723;0.400543212890625;0.00202301025390625;0.459999998838612;47;100 mA
1.01116599744705;0.400543212890625;0.00192138671875;0.469999998813364;48;100 mA
1.0211659974218;0.400634765625;0.0019537353515625;0.479999998788116;49;100 mA
1.03116599739656;0.40069580078125;0.00194122314453125;0.489999998762869;50;100 mA
1.04116599737131;0.400604248046875;0.0018389892578125;0.499999998737621;51;100 mA
1.05116599734606;0.40057373046875;0.00193023681640625;0.509999998712374;52;100 mA
1.06116599732081;0.400665283203125;0.00184326171875;0.519999998687126;53;100 mA
1.07116599729557;0.400634765625;0.00181396484375;0.529999998661879;54;100 mA
1.08116599727032;0.40057373046875;0.00187591552734375;0.539999998636631;55;100 mA
1.09116599724507;0.400482177734375;0.00178009033203125;0.549999998611383;56;100 mA
1.10116599721982;0.400482177734375;0.0018310546875;0.559999998586136;57;100 mA
1.11116599719458;0.40045166015625;0.0018316650390625;0.569999998560888;58;100 mA
1.12116599716933;0.400482177734375;0.00175537109375;0.579999998535641;59;100 mA
1.13116599714408;0.400665283203125;0.00181243896484375;0.589999998510393;60;100 mA
1.14116599711883;0.4005126953125;0.0017620849609375;0.599999998485146;61;100 mA
1.15116599709359;0.400482177734375;0.0017462158203125;0.609999998459898;62;100 mA
1.16116599706834;0.400604248046875;0.00179656982421875;0.61999999843465;63;100 mA
1.17116599704309;0.400543212890625;0.00170654296875;0.629999998409403;64;100 mA
1.18116599701784;0.40057373046875;0.001759033203125;0.639999998384155;65;100 mA
1.19116599699259;0.400604248046875;0.001749267578125;0.649999998358908;66;100 mA
1.20116599696735;0.40057373046875;0.00168182373046875;0.65999999833366;67;100 mA
1.2111659969421;0.400482177734375;0.00173828125;0.669999998308413;68;100 mA
1.22116599691685;0.40069580078125;0.0016864013671875;0.679999998283165;69;100 mA
1.2311659968916;0.400634765625;0.0016668701171875;0.689999998257917;70;100 mA
1.24116599686636;0.400543212890625;0.0017181396484375;0.69999999823267;71;100 mA
1.25116599684111;0.400482177734375;0.001651611328125;0.709999998207422;72;100 mA
1.26116599681586;0.4005126953125;0.00168609619140625;0.719999998182175;73;100 mA
1.27116599679061;0.40045166015625;0.001690673828125;0.729999998156927;74;100 mA
1.28116599676537;0.400482177734375;0.00162322998046875;0.73999999813168;75;100 mA
1.29116599674012;0.400634765625;0.00167388916015625;0.749999998106432;76;100 mA
1.30116599671487;0.4005126953125;0.001636962890625;0.759999998081184;77;100 mA
1.31116599668962;0.400482177734375;0.00161041259765625;0.769999998055937;78;100 mA
1.32116599666438;0.40057373046875;0.001663818359375;0.779999998030689;79;100 mA
1.33116599663913;0.40057373046875;0.00159820556640625;0.789999998005442;80;100 mA
1.34116599661388;0.400482177734375;0.00162628173828125;0.799999997980194;81;100 mA
1.35116599658863;0.40057373046875;0.00165008544921875;0.809999997954947;82;100 mA
1.36116599656339;0.400665283203125;0.00157440185546875;0.819999997929699;83;100 mA
1.37116599653814;0.40057373046875;0.0016412353515625;0.829999997904451;84;100 mA
1.38116599651289;0.400665283203125;0.00158538818359375;0.839999997879204;85;100 mA
1.39116599648764;0.40069580078125;0.0015460205078125;0.849999997853956;86;100 mA
1.4011659964624;0.400604248046875;0.001619873046875;0.859999997828709;87;100 mA
1.41116599643715;0.400543212890625;0.001544189453125;0.869999997803461;88;100 mA
1.4211659964119;0.400543212890625;0.00158050537109375;0.879999997778214;89;100 mA
1.43116599638665;0.400543212890625;0.00159515380859375;0.889999997752966;90;100 mA
1.44116599636141;0.4005126953125;0.0015093994140625;0.899999997727718;91;100 mA
1.45116599633616;0.400634765625;0.00158782958984375;0.909999997702471;92;100 mA
1.46116599631091;0.400543212890625;0.0015167236328125;0.919999997677223;93;100 mA
1.47116599628566;0.400482177734375;0.00148193359375;0.929999997651976;94;100 mA
1.48116599626042;0.400543212890625;0.00155181884765625;0.939999997626728;95;100 mA
1.49116599623517;0.40057373046875;0.00146636962890625;0.949999997601481;96;100 mA
1.50116599620992;0.40045166015625;0.00152679443359375;0.959999997576233;97;100 mA
1.51116599618467;0.400543212890625;0.001524658203125;0.969999997550985;98;100 mA
1.52116599615943;0.400604248046875;0.0014544677734375;0.979999997525738;99;100 mA
1.53116599613418;0.400634765625;0.001519775390625;0.98999999750049;100;100 mA
1.54116599610893;0.400604248046875;0.0014715576171875;0.999999997475243;101;100 mA
1.55116599608368;0.4007568359375;0.00145263671875;1.00999999745;102;100 mA
1.56116599605843;0.400604248046875;0.00150787353515625;1.01999999742475;103;100 mA
1.57116599603319;0.4005126953125;0.00143341064453125;1.0299999973995;104;100 mA
1.58116599600794;0.40069580078125;0.00149627685546875;1.03999999737425;105;100 mA
1.59116599598269;0.400604248046875;0.00148101806640625;1.049999997349;106;100 mA
1.60116599595744;0.40057373046875;0.00142608642578125;1.05999999732376;107;100 mA
1.6111659959322;0.40057373046875;0.00148834228515625;1.06999999729851;108;100 mA
1.62116599590695;0.400665283203125;0.00144744873046875;1.07999999727326;109;100 mA
1.6311659958817;0.40057373046875;0.0014215087890625;1.08999999724801;110;100 mA
1.64116599585645;0.400543212890625;0.00149017333984375;1.09999999722277;111;100 mA
1.65116599583121;0.4005126953125;0.00142181396484375;1.10999999719752;112;100 mA
1.66116599580596;0.400390625;0.0014764404296875;1.11999999717227;113;100 mA
1.67116599578071;0.40045166015625;0.001463623046875;1.12999999714702;114;100 mA
1.68116599575546;0.400634765625;0.0014068603515625;1.13999999712178;115;100 mA
1.69116599573022;0.40057373046875;0.00146148681640625;1.14999999709653;116;100 mA
1.70116599570497;0.40057373046875;0.00142333984375;1.15999999707128;117;100 mA
1.71116599567972;0.40069580078125;0.0014013671875;1.16999999704603;118;100 mA
1.72116599565447;0.40057373046875;0.00146942138671875;1.17999999702079;119;100 mA
1.73116599562923;0.4005126953125;0.0014129638671875;1.18999999699554;120;100 mA
1.74116599560398;0.400604248046875;0.00144775390625;1.19999999697029;121;100 mA
1.75116599557873;0.400665283203125;0.001453857421875;1.20999999694504;122;100 mA
1.76116599555348;0.40057373046875;0.0013885498046875;1.2199999969198;123;100 mA
1.77116599552824;0.40057373046875;0.0014471435546875;1.22999999689455;124;100 mA
1.78116599550299;0.400665283203125;0.00141326904296875;1.2399999968693;125;100 mA
1.79116599547774;0.400604248046875;0.00137176513671875;1.24999999684405;126;100 mA
1.80116599545249;0.40057373046875;0.00145477294921875;1.25999999681881;127;100 mA
1.81116599542725;0.400482177734375;0.0013720703125;1.26999999679356;128;100 mA
1.821165995402;0.400482177734375;0.001419677734375;1.27999999676831;129;100 mA
1.83116599537675;0.400421142578125;0.00143585205078125;1.28999999674306;130;100 mA
1.8411659953515;0.400482177734375;0.00136749267578125;1.29999999671782;131;100 mA
1.85116599532626;0.400665283203125;0.00142730712890625;1.30999999669257;132;100 mA
1.86116599530101;0.400482177734375;0.00138275146484375;1.31999999666732;133;100 mA
1.87116599527576;0.400604248046875;0.0013580322265625;1.32999999664207;134;100 mA
1.88116599525051;0.4005126953125;0.00145263671875;1.33999999661683;135;100 mA
1.89116599522526;0.400543212890625;0.00136474609375;1.34999999659158;136;100 mA
1.90116599520002;0.400604248046875;0.001417236328125;1.35999999656633;137;100 mA
1.91116599517477;0.400665283203125;0.00142181396484375;1.36999999654108;138;100 mA
1.92116599514952;0.400665283203125;0.00135223388671875;1.37999999651583;139;100 mA
1.93116599512427;0.40057373046875;0.00142333984375;1.38999999649059;140;100 mA
1.94116599509903;0.40069580078125;0.00137176513671875;1.39999999646534;141;100 mA
1.95116599507378;0.400665283203125;0.0013507080078125;1.40999999644009;142;100 mA
1.96116599504853;0.4005126953125;0.001416015625;1.41999999641484;143;100 mA
1.97116599502328;0.400421142578125;0.00135711669921875;1.4299999963896;144;100 mA
1.98116599499804;0.4005126953125;0.00139251708984375;1.43999999636435;145;100 mA
1.99116599497279;0.400421142578125;0.0013848876953125;1.4499999963391;146;100 mA
2.00116599494754;0.40057373046875;0.00132049560546875;1.45999999631385;147;100 mA
2.01116599492229;0.400634765625;0.00137542724609375;1.46999999628861;148;100 mA
2.02116599489705;0.40057373046875;0.0013323974609375;1.47999999626336;149;100 mA
2.0311659948718;0.400482177734375;0.00131683349609375;1.48999999623811;150;100 mA
2.04116599484655;0.400543212890625;0.0013726806640625;1.49999999621286;151;100 mA
2.0511659948213;0.4005126953125;0.001318359375;1.50999999618762;152;100 mA
2.06116599479606;0.400482177734375;0.00136016845703125;1.51999999616237;153;100 mA
2.07116599477081;0.400604248046875;0.00135986328125;1.52999999613712;154;100 mA
2.08116599474556;0.400634765625;0.00130401611328125;1.53999999611187;155;100 mA
2.09116599472031;0.40057373046875;0.00135772705078125;1.54999999608663;156;100 mA
2.10116599469507;0.400665283203125;0.001326904296875;1.55999999606138;157;100 mA
2.11116599466982;0.40069580078125;0.0012994384765625;1.56999999603613;158;100 mA
2.12116599464457;0.400543212890625;0.00137176513671875;1.57999999601088;159;100 mA
2.13116599461932;0.40045166015625;0.0013116455078125;1.58999999598564;160;100 mA
2.14116599459408;0.400604248046875;0.00135711669921875;1.59999999596039;161;100 mA
2.15116599456883;0.40057373046875;0.00136383056640625;1.60999999593514;162;100 mA
2.16116599454358;0.400604248046875;0.0012890625;1.61999999590989;163;100 mA
2.17116599451833;0.400634765625;0.0013616943359375;1.62999999588465;164;100 mA
2.18116599449309;0.400482177734375;0.00131988525390625;1.6399999958594;165;100 mA
2.19116599446784;0.400482177734375;0.00129669189453125;1.64999999583415;166;100 mA
2.20116599444259;0.400543212890625;0.00136993408203125;1.6599999958089;167;100 mA
2.21116599441734;0.40057373046875;0.0013018798828125;1.66999999578366;168;100 mA
2.22116599439209;0.40045166015625;0.0013409423828125;1.67999999575841;169;100 mA
2.23116599436685;0.400543212890625;0.00136444091796875;1.68999999573316;170;100 mA
2.2411659943416;0.400634765625;0.0012890625;1.69999999570791;171;100 mA
2.25116599431635;0.400665283203125;0.00135650634765625;1.70999999568267;172;100 mA
2.2611659942911;0.40057373046875;0.00132568359375;1.71999999565742;173;100 mA
2.27116599426586;0.400787353515625;0.00129119873046875;1.72999999563217;174;100 mA
2.28116599424061;0.40057373046875;0.0013836669921875;1.73999999560692;175;100 mA
2.29116599421536;0.40045166015625;0.00130035400390625;1.74999999558167;176;100 mA
2.30116599419011;0.400665283203125;0.0013690185546875;1.75999999555643;177;100 mA
2.31116599416487;0.40057373046875;0.001373291015625;1.76999999553118;178;100 mA
2.32116599413962;0.4005126953125;0.00129974365234375;1.77999999550593;179;100 mA
2.33116599411437;0.400634765625;0.00136688232421875;1.78999999548068;180;100 mA
2.34116599408912;0.400604248046875;0.00132568359375;1.79999999545544;181;100 mA
2.35116599406388;0.4005126953125;0.001298828125;1.80999999543019;182;100 mA
2.36116599403863;0.4005126953125;0.0013751220703125;1.81999999540494;183;100 mA
2.37116599401338;0.400482177734375;0.0012957763671875;1.82999999537969;184;100 mA
2.38116599398813;0.40045166015625;0.00135589599609375;1.83999999535445;185;100 mA
2.39116599396289;0.4005126953125;0.00133880615234375;1.8499999953292;186;100 mA
2.40116599393764;0.4005126953125;0.0012890625;1.85999999530395;187;100 mA
2.41116599391239;0.400665283203125;0.001346435546875;1.8699999952787;188;100 mA
2.42116599388714;0.400543212890625;0.00130615234375;1.87999999525346;189;100 mA
2.4311659938619;0.400665283203125;0.0012860107421875;1.88999999522821;190;100 mA
2.44116599383665;0.40057373046875;0.00135040283203125;1.89999999520296;191;100 mA
2.4511659938114;0.4005126953125;0.00128662109375;1.90999999517771;192;100 mA
2.46116599378615;0.400604248046875;0.00133056640625;1.91999999515247;193;100 mA
2.47116599376091;0.400634765625;0.00133544921875;1.92999999512722;194;100 mA
2.48116599373566;0.400604248046875;0.0012823486328125;1.93999999510197;195;100 mA
2.49116599371041;0.40057373046875;0.0013262939453125;1.94999999507672;196;100 mA
2.50116599368516;0.400665283203125;0.00130126953125;1.95999999505148;197;100 mA
2.51116599365992;0.400604248046875;0.0012701416015625;1.96999999502623;198;100 mA
2.52116599363467;0.400482177734375;0.001341552734375;1.97999999500098;199;100 mA
2.53116599360942;0.400482177734375;0.001275634765625;1.98999999497573;200;100 mA
2.54116599358417;0.4005126953125;0.0013153076171875;1.99999999495049;201;100 mA
2.55116599355893;0.40045166015625;0.0013287353515625;2.00999999492524;202;100 mA
2.56116599353368;0.40057373046875;0.00125396728515625;2.01999999489999;203;100 mA
2.57116599350843;0.400665283203125;0.001317138671875;2.02999999487474;204;100 mA
2.58116599348318;0.400543212890625;0.00129119873046875;2.0399999948495;205;100 mA
2.59116599345793;0.40057373046875;0.00125030517578125;2.04999999482425;206;100 mA
2.60116599343269;0.40057373046875;0.00133697509765625;2.059999994799;207;100 mA
2.61116599340744;0.40057373046875;0.001256103515625;2.06999999477375;208;100 mA
2.62116599338219;0.4005126953125;0.001304931640625;2.0799999947485;209;100 mA
2.63116599335694;0.40069580078125;0.001309814453125;2.08999999472326;210;100 mA
2.6411659933317;0.400604248046875;0.00124267578125;2.09999999469801;211;100 mA
2.65116599330645;0.400634765625;0.0012945556640625;2.10999999467276;212;100 mA
2.6611659932812;0.40069580078125;0.00127044677734375;2.11999999464751;213;100 mA
2.67116599325595;0.400604248046875;0.00123199462890625;2.12999999462227;214;100 mA
2.68116599323071;0.400543212890625;0.00132080078125;2.13999999459702;215;100 mA
2.69116599320546;0.400482177734375;0.0012451171875;2.14999999457177;216;100 mA
2.70116599318021;0.400482177734375;0.0012933349609375;2.15999999454652;217;100 mA
2.71116599315496;0.40045166015625;0.00129913330078125;2.16999999452128;218;100 mA
2.72116599312972;0.400482177734375;0.001234130859375;2.17999999449603;219;100 mA
2.73116599310447;0.400665283203125;0.001295166015625;2.18999999447078;220;100 mA
2.74116599307922;0.400543212890625;0.00125213623046875;2.19999999444553;221;100 mA
2.75116599305397;0.400482177734375;0.00123016357421875;2.20999999442029;222;100 mA
2.76116599302873;0.4005126953125;0.00130279541015625;2.21999999439504;223;100 mA
2.77116599300348;0.40057373046875;0.00123687744140625;2.22999999436979;224;100 mA
2.78116599297823;0.400421142578125;0.0012835693359375;2.23999999434454;225;100 mA
2.79116599295298;0.400604248046875;0.0012701416015625;2.2499999943193;226;100 mA
2.80116599292774;0.400726318359375;0.00122650146484375;2.25999999429405;227;100 mA
2.81116599290249;0.400604248046875;0.00130859375;2.2699999942688;228;100 mA
2.82116599287724;0.400604248046875;0.001243896484375;2.27999999424355;229;100 mA
2.83116599285199;0.400726318359375;0.001234130859375;2.28999999421831;230;100 mA
2.84116599282675;0.400543212890625;0.00131622314453125;2.29999999419306;231;100 mA
2.8511659928015;0.4005126953125;0.00126495361328125;2.30999999416781;232;100 mA
2.86116599277625;0.400604248046875;0.00129638671875;2.31999999414256;233;100 mA
2.871165992751;0.40057373046875;0.001302490234375;2.32999999411732;234;100 mA
2.88116599272576;0.400543212890625;0.00126068115234375;2.33999999409207;235;100 mA
2.89116599270051;0.400634765625;0.00129974365234375;2.34999999406682;236;100 mA
2.90116599267526;0.40057373046875;0.00127655029296875;2.35999999404157;237;100 mA
2.91116599265001;0.400482177734375;0.00125640869140625;2.36999999401633;238;100 mA
2.92116599262476;0.4005126953125;0.001334228515625;2.37999999399108;239;100 mA
2.93116599259952;0.4005126953125;0.0012567138671875;2.38999999396583;240;100 mA
2.94116599257427;0.40045166015625;0.0013037109375;2.39999999394058;241;100 mA
2.95116599254902;0.40057373046875;0.00131439208984375;2.40999999391533;242;100 mA
2.96116599252377;0.400726318359375;0.00125701904296875;2.41999999389009;243;100 mA
2.97116599249853;0.400634765625;0.0013031005859375;2.42999999386484;244;100 mA
2.98116599247328;0.40057373046875;0.00128021240234375;2.43999999383959;245;100 mA
2.99116599244803;0.400726318359375;0.0012451171875;2.44999999381434;246;100 mA
3.00116599242278;0.400634765625;0.00133819580078125;2.4599999937891;247;100 mA
3.01116599239754;0.400482177734375;0.001248779296875;2.46999999376385;248;100 mA
3.02116599237229;0.400604248046875;0.00131378173828125;2.4799999937386;249;100 mA
3.03116599234704;0.400665283203125;0.00130615234375;2.48999999371335;250;100 mA
3.04116599232179;0.40057373046875;0.00122100830078125;2.49999999368811;251;100 mA
3.05116599229655;0.40069580078125;0.00128936767578125;2.50999999366286;252;100 mA
3.0611659922713;0.400634765625;0.0012713623046875;2.51999999363761;253;100 mA
3.07116599224605;0.400543212890625;0.001229248046875;2.52999999361236;254;100 mA
3.0811659922208;0.400543212890625;0.00130859375;2.53999999358712;255;100 mA
3.09116599219556;0.400543212890625;0.00122802734375;2.54999999356187;256;100 mA
3.10116599217031;0.40045166015625;0.00129730224609375;2.55999999353662;257;100 mA
3.11116599214506;0.400482177734375;0.001295166015625;2.56999999351137;258;100 mA
3.12116599211981;0.400543212890625;0.001224365234375;2.57999999348613;259;100 mA
3.13116599209457;0.400634765625;0.0013037109375;2.58999999346088;260;100 mA
3.14116599206932;0.4005126953125;0.00124908447265625;2.59999999343563;261;100 mA
3.15116599204407;0.400634765625;0.00124053955078125;2.60999999341038;262;100 mA
3.16116599201882;0.40057373046875;0.0013116455078125;2.61999999338514;263;100 mA
3.17116599199358;0.400543212890625;0.0012384033203125;2.62999999335989;264;100 mA
3.18116599196833;0.40057373046875;0.0012969970703125;2.63999999333464;265;100 mA
3.19116599194308;0.400634765625;0.0012908935546875;2.64999999330939;266;100 mA
3.20116599191783;0.400634765625;0.00122802734375;2.65999999328415;267;100 mA
3.21116599189259;0.400665283203125;0.0012908935546875;2.6699999932589;268;100 mA
3.22116599186734;0.400665283203125;0.0012432861328125;2.67999999323365;269;100 mA
3.23116599184209;0.400543212890625;0.001243896484375;2.6899999932084;270;100 mA
3.24116599181684;0.400543212890625;0.00130035400390625;2.69999999318316;271;100 mA
3.25116599179159;0.40045166015625;0.00124664306640625;2.70999999315791;272;100 mA
3.26116599176635;0.400482177734375;0.00129425048828125;2.71999999313266;273;100 mA
3.2711659917411;0.40045166015625;0.0012933349609375;2.72999999310741;274;100 mA
3.28116599171585;0.40057373046875;0.00124908447265625;2.73999999308217;275;100 mA
3.2911659916906;0.400665283203125;0.00128387451171875;2.74999999305692;276;100 mA
3.30116599166536;0.400482177734375;0.00126251220703125;2.75999999303167;277;100 mA
3.31116599164011;0.400726318359375;0.00124237060546875;2.76999999300642;278;100 mA
3.32116599161486;0.400543212890625;0.00131256103515625;2.77999999298117;279;100 mA
3.33116599158961;0.40057373046875;0.0012469482421875;2.78999999295593;280;100 mA
3.34116599156437;0.40057373046875;0.00130035400390625;2.79999999293068;281;100 mA
3.35116599153912;0.40069580078125;0.0013067626953125;2.80999999290543;282;100 mA
3.36116599151387;0.40057373046875;0.00125030517578125;2.81999999288018;283;100 mA
3.37116599148862;0.400665283203125;0.00129150390625;2.82999999285494;284;100 mA
3.38116599146338;0.400604248046875;0.0012835693359375;2.83999999282969;285;100 mA
3.39116599143813;0.400604248046875;0.00122589111328125;2.84999999280444;286;100 mA
3.40116599141288;0.400543212890625;0.0013165283203125;2.85999999277919;287;100 mA
3.41116599138763;0.40045166015625;0.0012457275390625;2.86999999275395;288;100 mA
3.42116599136239;0.400421142578125;0.00128631591796875;2.8799999927287;289;100 mA
3.43116599133714;0.40045166015625;0.0013067626953125;2.88999999270345;290;100 mA
3.44116599131189;0.40057373046875;0.0012127685546875;2.8999999926782;291;100 mA
3.45116599128664;0.400665283203125;0.001312255859375;2.90999999265296;292;100 mA
3.4611659912614;0.400604248046875;0.0012237548828125;2.91999999262771;293;100 mA
3.47116599123615;0.4007568359375;0.0011993408203125;2.92999999260246;294;100 mA
3.4811659912109;0.40057373046875;0.0013006591796875;2.93999999257721;295;100 mA
3.49116599118565;0.4005126953125;0.00121063232421875;2.94999999255197;296;100 mA
3.50116599116041;0.400604248046875;0.00125823974609375;2.95999999252672;297;100 mA
3.51116599113516;0.400604248046875;0.00127105712890625;2.96999999250147;298;100 mA
3.52116599110991;0.40057373046875;0.00119842529296875;2.97999999247622;299;100 mA
3.53116599108466;0.400634765625;0.0012701416015625;2.98999999245098;300;100 mA
3.54116599105942;0.400604248046875;0.00122344970703125;2.99999999242573;301;100 mA
3.55116599103417;0.400482177734375;0.00119476318359375;3.00999999240048;302;100 mA
3.56116599100892;0.4005126953125;0.0012835693359375;3.01999999237523;303;100 mA
3.57116599098367;0.4005126953125;0.0011785888671875;3.02999999234999;304;100 mA
3.58116599095843;0.40045166015625;0.00124114990234375;3.03999999232474;305;100 mA
3.59116599093318;0.40045166015625;0.00123077392578125;3.04999999229949;306;100 mA
3.60116599090793;0.400604248046875;0.00119140625;3.05999999227424;307;100 mA
3.61116599088268;0.400665283203125;0.0012274169921875;3.069999992249;308;100 mA
3.62116599085743;0.400604248046875;0.00118194580078125;3.07999999222375;309;100 mA
3.63116599083219;0.400634765625;0.0011895751953125;3.0899999921985;310;100 mA
3.64116599080694;0.4005126953125;0.0012835693359375;3.09999999217325;311;100 mA
3.65116599078169;0.400543212890625;0.00116943359375;3.109999992148;312;100 mA
3.66116599075644;0.400543212890625;0.00125640869140625;3.11999999212276;313;100 mA
3.6711659907312;0.400634765625;0.00122100830078125;3.12999999209751;314;100 mA
3.68116599070595;0.400634765625;0.00116546630859375;3.13999999207226;315;100 mA
3.6911659906807;0.400634765625;0.0012200927734375;3.14999999204701;316;100 mA
3.70116599065545;0.40057373046875;0.00119415283203125;3.15999999202177;317;100 mA
3.71116599063021;0.4005126953125;0.00118408203125;3.16999999199652;318;100 mA
3.72116599060496;0.4005126953125;0.001243896484375;3.17999999197127;319;100 mA
3.73116599057971;0.400543212890625;0.00119049072265625;3.18999999194602;320;100 mA
3.74116599055446;0.40045166015625;0.00123291015625;3.19999999192078;321;100 mA
3.75116599052922;0.40045166015625;0.00126220703125;3.20999999189553;322;100 mA
3.76116599050397;0.400665283203125;0.0011676025390625;3.21999999187028;323;100 mA
3.77116599047872;0.40069580078125;0.00122833251953125;3.22999999184503;324;100 mA
3.78116599045347;0.400604248046875;0.00119537353515625;3.23999999181979;325;100 mA
3.79116599042823;0.400634765625;0.0011767578125;3.24999999179454;326;100 mA
3.80116599040298;0.40057373046875;0.00125152587890625;3.25999999176929;327;100 mA
3.81116599037773;0.4005126953125;0.00119537353515625;3.26999999174404;328;100 mA
3.82116599035248;0.400604248046875;0.00122894287109375;3.2799999917188;329;100 mA
3.83116599032724;0.400634765625;0.00125030517578125;3.28999999169355;330;100 mA
3.84116599030199;0.400604248046875;0.00116790771484375;3.2999999916683;331;100 mA
3.85116599027674;0.400665283203125;0.00124420166015625;3.30999999164305;332;100 mA
3.86116599025149;0.400634765625;0.0012213134765625;3.31999999161781;333;100 mA
3.87116599022625;0.4005126953125;0.00117828369140625;3.32999999159256;334;100 mA
3.881165990201;0.40045166015625;0.0012799072265625;3.33999999156731;335;100 mA
3.89116599017575;0.400543212890625;0.00118896484375;3.34999999154206;336;100 mA
3.9011659901505;0.400421142578125;0.00124053955078125;3.35999999151682;337;100 mA
3.91116599012526;0.4005126953125;0.0012451171875;3.36999999149157;338;100 mA
3.92116599010001;0.400604248046875;0.00119049072265625;3.37999999146632;339;100 mA
3.93116599007476;0.40069580078125;0.001248779296875;3.38999999144107;340;100 mA
3.94116599004951;0.40057373046875;0.00120208740234375;3.39999999141583;341;100 mA
3.95116599002426;0.40069580078125;0.00117950439453125;3.40999999139058;342;100 mA
3.96116598999902;0.40057373046875;0.00126800537109375;3.41999999136533;343;100 mA
3.97116598997377;0.400543212890625;0.00118133544921875;3.42999999134008;344;100 mA
3.98116598994852;0.400634765625;0.00124298095703125;3.43999999131483;345;100 mA
3.99116598992327;0.400604248046875;0.001226806640625;3.44999999128959;346;100 mA
4.00116598989803;0.400482177734375;0.00116912841796875;3.45999999126434;347;100 mA
4.01116598987278;0.400665283203125;0.001226806640625;3.46999999123909;348;100 mA
4.02116598984753;0.400604248046875;0.00120208740234375;3.47999999121384;349;100 mA
4.03116598982228;0.400390625;0.00118499755859375;3.4899999911886;350;100 mA
4.04116598979704;0.40045166015625;0.00124755859375;3.49999999116335;351;100 mA
4.05116598977179;0.400543212890625;0.00118133544921875;3.5099999911381;352;100 mA
4.06116598974654;0.400421142578125;0.0012469482421875;3.51999999111285;353;100 mA
4.07116598972129;0.400482177734375;0.00122894287109375;3.52999999108761;354;100 mA
4.08116598969605;0.400634765625;0.0011810302734375;3.53999999106236;355;100 mA
4.0911659896708;0.400665283203125;0.00123809814453125;3.54999999103711;356;100 mA
4.10116598964555;0.400634765625;0.00118621826171875;3.55999999101186;357;100 mA
4.1111659896203;0.40069580078125;0.0011785888671875;3.56999999098662;358;100 mA
4.12116598959506;0.4005126953125;0.0012579345703125;3.57999999096137;359;100 mA
4.13116598956981;0.4005126953125;0.00118499755859375;3.58999999093612;360;100 mA
4.14116598954456;0.400634765625;0.0012188720703125;3.59999999091087;361;100 mA
4.15116598951931;0.40057373046875;0.0012255859375;3.60999999088563;362;100 mA
4.16116598949407;0.400482177734375;0.00116973876953125;3.61999999086038;363;100 mA
4.17116598946882;0.40069580078125;0.001226806640625;3.62999999083513;364;100 mA
4.18116598944357;0.40057373046875;0.0011865234375;3.63999999080988;365;100 mA
4.19116598941832;0.40045166015625;0.0011590576171875;3.64999999078464;366;100 mA
4.20116598939308;0.400482177734375;0.00124176025390625;3.65999999075939;367;100 mA
4.21116598936783;0.4005126953125;0.0011834716796875;3.66999999073414;368;100 mA
4.22116598934258;0.40045166015625;0.00120819091796875;3.67999999070889;369;100 mA
4.23116598931733;0.4005126953125;0.00122711181640625;3.68999999068365;370;100 mA
4.24116598929209;0.400634765625;0.00115386962890625;3.6999999906584;371;100 mA
4.25116598926684;0.400665283203125;0.0012060546875;3.70999999063315;372;100 mA
4.26116598924159;0.400482177734375;0.0011920166015625;3.7199999906079;373;100 mA
4.27116598921634;0.400726318359375;0.00115570068359375;3.72999999058266;374;100 mA
4.28116598919109;0.40057373046875;0.001248779296875;3.73999999055741;375;100 mA
4.29116598916585;0.400482177734375;0.0011572265625;3.74999999053216;376;100 mA
4.3011659891406;0.400634765625;0.00121551513671875;3.75999999050691;377;100 mA
4.31116598911535;0.400604248046875;0.00122467041015625;3.76999999048167;378;100 mA
4.3211659890901;0.400543212890625;0.0011614990234375;3.77999999045642;379;100 mA
4.33116598906486;0.400726318359375;0.0012200927734375;3.78999999043117;380;100 mA
4.34116598903961;0.40057373046875;0.00117889404296875;3.79999999040592;381;100 mA
4.35116598901436;0.400543212890625;0.00117156982421875;3.80999999038067;382;100 mA
4.36116598898911;0.400543212890625;0.00125518798828125;3.81999999035543;383;100 mA
4.37116598896387;0.400543212890625;0.00118408203125;3.82999999033018;384;100 mA
4.38116598893862;0.400421142578125;0.0012322998046875;3.83999999030493;385;100 mA
4.39116598891337;0.4005126953125;0.0012237548828125;3.84999999027968;386;100 mA
4.40116598888812;0.400634765625;0.00116546630859375;3.85999999025444;387;100 mA
4.41116598886288;0.400665283203125;0.00122161865234375;3.86999999022919;388;100 mA
4.42116598883763;0.400604248046875;0.0011724853515625;3.87999999020394;389;100 mA
4.43116598881238;0.400726318359375;0.001162109375;3.88999999017869;390;100 mA
4.44116598878713;0.4005126953125;0.0012347412109375;3.89999999015345;391;100 mA
4.45116598876189;0.40045166015625;0.00115631103515625;3.9099999901282;392;100 mA
4.46116598873664;0.400604248046875;0.00121124267578125;3.91999999010295;393;100 mA
4.47116598871139;0.400604248046875;0.00121368408203125;3.9299999900777;394;100 mA
4.48116598868614;0.40057373046875;0.00116424560546875;3.93999999005246;395;100 mA
4.4911659886609;0.400634765625;0.001221923828125;3.94999999002721;396;100 mA
4.50116598863565;0.40057373046875;0.00118011474609375;3.95999999000196;397;100 mA
4.5111659886104;0.400421142578125;0.0011676025390625;3.96999998997671;398;100 mA
4.52116598858515;0.4005126953125;0.0012371826171875;3.97999998995147;399;100 mA
4.53116598855991;0.400543212890625;0.00117919921875;3.98999998992622;400;100 mA
4.54116598853466;0.400421142578125;0.0012213134765625;3.99999998990097;401;100 mA
4.55116598850941;0.4005126953125;0.0012255859375;4.00999998987572;402;100 mA
4.56116598848416;0.400634765625;0.00118194580078125;4.01999998985048;403;100 mA
4.57116598845892;0.40069580078125;0.0012274169921875;4.02999998982523;404;100 mA
4.58116598843367;0.400634765625;0.00120391845703125;4.03999998979998;405;100 mA
4.59116598840842;0.4007568359375;0.00117523193359375;4.04999998977473;406;100 mA
4.60116598838317;0.40057373046875;0.00125885009765625;4.05999998974949;407;100 mA
4.61116598835793;0.40045166015625;0.00120941162109375;4.06999998972424;408;100 mA
4.62116598833268;0.400604248046875;0.0012493896484375;4.07999998969899;409;100 mA
4.63116598830743;0.400634765625;0.0012554931640625;4.08999998967374;410;100 mA
4.64116598828218;0.40057373046875;0.00118682861328125;4.0999999896485;411;100 mA
4.65116598825693;0.400604248046875;0.00127593994140625;4.10999998962325;412;100 mA
4.66116598823169;0.400634765625;0.0012249755859375;4.119999989598;413;100 mA
4.67116598820644;0.40045166015625;0.00120391845703125;4.12999998957275;414;100 mA
4.68116598818119;0.4005126953125;0.001287841796875;4.1399999895475;415;100 mA
4.69116598815594;0.400604248046875;0.0012225341796875;4.14999998952226;416;100 mA
4.7011659881307;0.40045166015625;0.00126617431640625;4.15999998949701;417;100 mA
4.71116598810545;0.40057373046875;0.0012786865234375;4.16999998947176;418;100 mA
4.7211659880802;0.40057373046875;0.00120697021484375;4.17999998944651;419;100 mA
4.73116598805495;0.400634765625;0.001273193359375;4.18999998942127;420;100 mA
4.74116598802971;0.40057373046875;0.00123382568359375;4.19999998939602;421;100 mA
4.75116598800446;0.4007568359375;0.0012152099609375;4.20999998937077;422;100 mA
4.76116598797921;0.400543212890625;0.00128936767578125;4.21999998934552;423;100 mA
4.77116598795396;0.400543212890625;0.00120513916015625;4.22999998932028;424;100 mA
4.78116598792872;0.400665283203125;0.00126495361328125;4.23999998929503;425;100 mA
4.79116598790347;0.40057373046875;0.0012542724609375;4.24999998926978;426;100 mA
4.80116598787822;0.400543212890625;0.001185302734375;4.25999998924453;427;100 mA
4.81116598785297;0.40069580078125;0.0012408447265625;4.26999998921929;428;100 mA
4.82116598782773;0.40057373046875;0.00121002197265625;4.27999998919404;429;100 mA
4.83116598780248;0.4005126953125;0.0011846923828125;4.28999998916879;430;100 mA
4.84116598777723;0.4005126953125;0.00125701904296875;4.29999998914354;431;100 mA
4.85116598775198;0.400543212890625;0.0011932373046875;4.3099999891183;432;100 mA
4.86116598772674;0.400421142578125;0.00123291015625;4.31999998909305;433;100 mA
4.87116598770149;0.400482177734375;0.0012255859375;4.3299999890678;434;100 mA
4.88116598767624;0.400634765625;0.001170654296875;4.33999998904255;435;100 mA
4.89116598765099;0.400604248046875;0.00122344970703125;4.34999998901731;436;100 mA
4.90116598762575;0.400634765625;0.00118194580078125;4.35999998899206;437;100 mA
4.9111659876005;0.4007568359375;0.00116424560546875;4.36999998896681;438;100 mA
4.92116598757525;0.4005126953125;0.0012384033203125;4.37999998894156;439;100 mA
4.93116598755;0.400482177734375;0.00119171142578125;4.38999998891632;440;100 mA
4.94116598752476;0.400604248046875;0.0012200927734375;4.39999998889107;441;100 mA
4.95116598749951;0.400634765625;0.00122955322265625;4.40999998886582;442;100 mA
4.96116598747426;0.400543212890625;0.0011749267578125;4.41999998884057;443;100 mA
4.97116598744901;0.400665283203125;0.00123199462890625;4.42999998881533;444;100 mA
4.98116598742376;0.400604248046875;0.00120391845703125;4.43999998879008;445;100 mA
4.99116598739852;0.400482177734375;0.0011737060546875;4.44999998876483;446;100 mA
5.00116598737327;0.4005126953125;0.00124237060546875;4.45999998873958;447;100 mA
5.01116598734802;0.4005126953125;0.00119476318359375;4.46999998871433;448;100 mA
5.02116598732277;0.400421142578125;0.00121826171875;4.47999998868909;449;100 mA
5.03116598729753;0.40057373046875;0.00123870849609375;4.48999998866384;450;100 mA
5.04116598727228;0.400634765625;0.0011627197265625;4.49999998863859;451;100 mA
5.05116598724703;0.40069580078125;0.0012164306640625;4.50999998861334;452;100 mA
5.06116598722178;0.400634765625;0.00118316650390625;4.5199999885881;453;100 mA
5.07116598719654;0.400726318359375;0.00115631103515625;4.52999998856285;454;100 mA
5.08116598717129;0.4005126953125;0.00125274658203125;4.5399999885376;455;100 mA
5.09116598714604;0.4005126953125;0.0011505126953125;4.54999998851235;456;100 mA
5.10116598712079;0.400604248046875;0.0011968994140625;4.55999998848711;457;100 mA
5.11116598709555;0.40057373046875;0.00121826171875;4.56999998846186;458;100 mA
5.1211659870703;0.400482177734375;0.00114288330078125;4.57999998843661;459;100 mA
5.13116598704505;0.400665283203125;0.0012091064453125;4.58999998841136;460;100 mA
5.1411659870198;0.400634765625;0.00118133544921875;4.59999998838612;461;100 mA
5.15116598699456;0.400482177734375;0.00115020751953125;4.60999998836087;462;100 mA
5.16116598696931;0.400543212890625;0.00123687744140625;4.61999998833562;463;100 mA
5.17116598694406;0.40057373046875;0.0011572265625;4.62999998831037;464;100 mA
5.18116598691881;0.400421142578125;0.0012200927734375;4.63999998828513;465;100 mA
5.19116598689357;0.400543212890625;0.001212158203125;4.64999998825988;466;100 mA
5.20116598686832;0.400634765625;0.00115234375;4.65999998823463;467;100 mA
5.21116598684307;0.400634765625;0.00120758056640625;4.66999998820938;468;100 mA
5.22116598681782;0.400604248046875;0.0011810302734375;4.67999998818414;469;100 mA
5.23116598679258;0.400787353515625;0.00116424560546875;4.68999998815889;470;100 mA
5.24116598676733;0.400543212890625;0.0012347412109375;4.69999998813364;471;100 mA
5.25116598674208;0.4005126953125;0.00115692138671875;4.70999998810839;472;100 mA
5.26116598671683;0.400604248046875;0.00120635986328125;4.71999998808315;473;100 mA
5.27116598669159;0.400604248046875;0.00120452880859375;4.7299999880579;474;100 mA
5.28116598666634;0.4005126953125;0.00115264892578125;4.73999998803265;475;100 mA
5.29116598664109;0.40069580078125;0.00118682861328125;4.7499999880074;476;100 mA
5.30116598661584;0.40057373046875;0.0011553955078125;4.75999998798216;477;100 mA
5.31116598659059;0.400482177734375;0.00113311767578125;4.76999998795691;478;100 mA
5.32116598656535;0.400482177734375;0.0012042236328125;4.77999998793166;479;100 mA
5.3311659865401;0.4005126953125;0.0011224365234375;4.78999998790641;480;100 mA
5.34116598651485;0.400360107421875;0.00117645263671875;4.79999998788116;481;100 mA
5.3511659864896;0.400543212890625;0.00117340087890625;4.80999998785592;482;100 mA
5.36116598646436;0.400604248046875;0.00114105224609375;4.81999998783067;483;100 mA
5.37116598643911;0.400665283203125;0.00117401123046875;4.82999998780542;484;100 mA
5.38116598641386;0.400604248046875;0.001168212890625;4.83999998778017;485;100 mA
5.39116598638861;0.40081787109375;0.00114776611328125;4.84999998775493;486;100 mA
5.40116598636337;0.400543212890625;0.00122650146484375;4.85999998772968;487;100 mA
5.41116598633812;0.40045166015625;0.00114959716796875;4.86999998770443;488;100 mA
5.42116598631287;0.40057373046875;0.00119110107421875;4.87999998767918;489;100 mA
5.43116598628762;0.400604248046875;0.0012103271484375;4.88999998765394;490;100 mA
5.44116598626238;0.4005126953125;0.0011334228515625;4.89999998762869;491;100 mA
5.45116598623713;0.400634765625;0.00119232177734375;4.90999998760344;492;100 mA
5.46116598621188;0.40057373046875;0.00115936279296875;4.91999998757819;493;100 mA
5.47116598618663;0.400543212890625;0.00112274169921875;4.92999998755295;494;100 mA
5.48116598616139;0.400543212890625;0.00121795654296875;4.9399999875277;495;100 mA
5.49116598613614;0.400543212890625;0.001136474609375;4.94999998750245;496;100 mA
5.50116598611089;0.400421142578125;0.0011871337890625;4.9599999874772;497;100 mA
5.51116598608564;0.400604248046875;0.00118499755859375;4.96999998745196;498;100 mA
5.5211659860604;0.400665283203125;0.00110595703125;4.97999998742671;499;100 mA
5.53116598603515;0.40057373046875;0.0011920166015625;4.98999998740146;500;100 mA
5.5411659860099;0.400634765625;0.00114166259765625;4.99999998737621;501;100 mA
5.55116598598465;0.400726318359375;0.00110870361328125;5.00999998735097;502;100 mA
5.56116598595941;0.4005126953125;0.001192626953125;5.01999998732572;503;100 mA
5.57116598593416;0.40045166015625;0.001123046875;5.02999998730047;504;100 mA
5.58116598590891;0.400543212890625;0.0011883544921875;5.03999998727522;505;100 mA
5.59116598588366;0.400604248046875;0.00117950439453125;5.04999998724998;506;100 mA
5.60116598585842;0.400543212890625;0.0011163330078125;5.05999998722473;507;100 mA
5.61116598583317;0.400634765625;0.00123077392578125;5.06999998719948;508;100 mA
5.62116598580792;0.400543212890625;0.001121826171875;5.07999998717423;509;100 mA
5.63116598578267;0.40045166015625;0.0011328125;5.08999998714899;510;100 mA
5.64116598575743;0.4005126953125;0.00119903564453125;5.09999998712374;511;100 mA
5.65116598573218;0.4005126953125;0.001124267578125;5.10999998709849;512;100 mA
5.66116598570693;0.400390625;0.00118316650390625;5.11999998707324;513;100 mA
5.67116598568168;0.40057373046875;0.00117584228515625;5.129999987048;514;100 mA
5.68116598565643;0.40057373046875;0.00113037109375;5.13999998702275;515;100 mA
5.69116598563119;0.400665283203125;0.00118743896484375;5.1499999869975;516;100 mA
5.70116598560594;0.400604248046875;0.001143798828125;5.15999998697225;517;100 mA
5.71116598558069;0.4007568359375;0.0011151123046875;5.169999986947;518;100 mA
5.72116598555544;0.400543212890625;0.00118804931640625;5.17999998692176;519;100 mA
5.7311659855302;0.400482177734375;0.00113525390625;5.18999998689651;520;100 mA
5.74116598550495;0.400604248046875;0.00117919921875;5.19999998687126;521;100 mA
5.7511659854797;0.40057373046875;0.0011712646484375;5.20999998684601;522;100 mA
5.76116598545445;0.400482177734375;0.00111572265625;5.21999998682077;523;100 mA
5.77116598542921;0.400634765625;0.001158447265625;5.22999998679552;524;100 mA
5.78116598540396;0.400604248046875;0.00115997314453125;5.23999998677027;525;100 mA
5.79116598537871;0.400482177734375;0.00111175537109375;5.24999998674502;526;100 mA
5.80116598535346;0.400482177734375;0.00119232177734375;5.25999998671978;527;100 mA
5.81116598532822;0.400604248046875;0.00112823486328125;5.26999998669453;528;100 mA
5.82116598530297;0.40045166015625;0.00115509033203125;5.27999998666928;529;100 mA
5.83116598527772;0.400543212890625;0.00117889404296875;5.28999998664403;530;100 mA
5.84116598525247;0.400787353515625;0.0011041259765625;5.29999998661879;531;100 mA
5.85116598522723;0.400665283203125;0.00114593505859375;5.30999998659354;532;100 mA
5.86116598520198;0.400604248046875;0.0011376953125;5.31999998656829;533;100 mA
5.87116598517673;0.4007568359375;0.00109130859375;5.32999998654304;534;100 mA
5.88116598515148;0.400482177734375;0.0011920166015625;5.3399999865178;535;100 mA
5.89116598512624;0.400482177734375;0.00111785888671875;5.34999998649255;536;100 mA
5.90116598510099;0.40057373046875;0.0011590576171875;5.3599999864673;537;100 mA
5.91116598507574;0.4005126953125;0.001170654296875;5.36999998644205;538;100 mA
5.92116598505049;0.4005126953125;0.00109527587890625;5.37999998641681;539;100 mA
5.93116598502525;0.40069580078125;0.001175537109375;5.38999998639156;540;100 mA
5.941165985;0.400543212890625;0.0011309814453125;5.39999998636631;541;100 mA
5.95116598497475;0.4005126953125;0.001109619140625;5.40999998634106;542;100 mA
5.9611659849495;0.400543212890625;0.00118804931640625;5.41999998631582;543;100 mA
5.97116598492426;0.400543212890625;0.001124267578125;5.42999998629057;544;100 mA
5.98116598489901;0.400421142578125;0.00117645263671875;5.43999998626532;545;100 mA
5.99116598487376;0.40057373046875;0.00117584228515625;5.44999998624007;546;100 mA
6.00116598484851;0.400665283203125;0.00111297607421875;5.45999998621483;547;100 mA
6.01116598482326;0.400665283203125;0.0011883544921875;5.46999998618958;548;100 mA
6.02116598479802;0.400634765625;0.0011370849609375;5.47999998616433;549;100 mA
6.03116598477277;0.40069580078125;0.001136474609375;5.48999998613908;550;100 mA
6.04116598474752;0.40057373046875;0.00121917724609375;5.49999998611383;551;100 mA
6.05116598472227;0.4005126953125;0.001119384765625;5.50999998608859;552;100 mA
6.06116598469703;0.400634765625;0.00117767333984375;5.51999998606334;553;100 mA
6.07116598467178;0.40045166015625;0.00117431640625;5.52999998603809;554;100 mA
6.08116598464653;0.400543212890625;0.001134033203125;5.53999998601284;555;100 mA
6.09116598462128;0.400634765625;0.00116424560546875;5.5499999859876;556;100 mA
6.10116598459604;0.40057373046875;0.00114471435546875;5.55999998596235;557;100 mA
6.11116598457079;0.400482177734375;0.00112152099609375;5.5699999859371;558;100 mA
6.12116598454554;0.4005126953125;0.0011932373046875;5.57999998591185;559;100 mA
6.13116598452029;0.400543212890625;0.0011346435546875;5.58999998588661;560;100 mA
6.14116598449505;0.400482177734375;0.00118133544921875;5.59999998586136;561;100 mA
6.1511659844698;0.400665283203125;0.00117095947265625;5.60999998583611;562;100 mA
6.16116598444455;0.400726318359375;0.00111968994140625;5.61999998581086;563;100 mA
6.1711659844193;0.400634765625;0.00117645263671875;5.62999998578562;564;100 mA
6.18116598439406;0.400604248046875;0.00115631103515625;5.63999998576037;565;100 mA
6.19116598436881;0.400726318359375;0.00114105224609375;5.64999998573512;566;100 mA
6.20116598434356;0.4005126953125;0.0012115478515625;5.65999998570987;567;100 mA
6.21116598431831;0.400482177734375;0.00115142822265625;5.66999998568463;568;100 mA
6.22116598429307;0.400634765625;0.00120697021484375;5.67999998565938;569;100 mA
6.23116598426782;0.400604248046875;0.00121429443359375;5.68999998563413;570;100 mA
6.24116598424257;0.400543212890625;0.001148681640625;5.69999998560888;571;100 mA
6.25116598421732;0.4007568359375;0.00120849609375;5.70999998558364;572;100 mA
6.26116598419208;0.400543212890625;0.00116790771484375;5.71999998555839;573;100 mA
6.27116598416683;0.400421142578125;0.0011517333984375;5.72999998553314;574;100 mA
6.28116598414158;0.400543212890625;0.00123504638671875;5.73999998550789;575;100 mA
6.29116598411633;0.400543212890625;0.00117706298828125;5.74999998548265;576;100 mA
6.30116598409109;0.400421142578125;0.00120758056640625;5.7599999854574;577;100 mA
6.31116598406584;0.400634765625;0.00121490478515625;5.76999998543215;578;100 mA
6.32116598404059;0.40069580078125;0.00114349365234375;5.7799999854069;579;100 mA
6.33116598401534;0.400634765625;0.0012298583984375;5.78999998538166;580;100 mA
6.34116598399009;0.400634765625;0.0011700439453125;5.79999998535641;581;100 mA
6.35116598396485;0.400848388671875;0.0011322021484375;5.80999998533116;582;100 mA
6.3611659839396;0.400543212890625;0.0012310791015625;5.81999998530591;583;100 mA
6.37116598391435;0.400421142578125;0.00114593505859375;5.82999998528066;584;100 mA
6.3811659838891;0.400634765625;0.0012054443359375;5.83999998525542;585;100 mA
6.39116598386386;0.400604248046875;0.00119873046875;5.84999998523017;586;100 mA
6.40116598383861;0.400543212890625;0.0011419677734375;5.85999998520492;587;100 mA
6.41116598381336;0.400634765625;0.0011968994140625;5.86999998517967;588;100 mA
6.42116598378811;0.4005126953125;0.00114990234375;5.87999998515443;589;100 mA
6.43116598376287;0.400421142578125;0.001153564453125;5.88999998512918;590;100 mA
6.44116598373762;0.4005126953125;0.00122894287109375;5.89999998510393;591;100 mA
6.45116598371237;0.400543212890625;0.0011431884765625;5.90999998507868;592;100 mA
6.46116598368712;0.400421142578125;0.00120849609375;5.91999998505344;593;100 mA
6.47116598366188;0.40057373046875;0.001195068359375;5.92999998502819;594;100 mA
6.48116598363663;0.400726318359375;0.0011444091796875;5.93999998500294;595;100 mA
6.49116598361138;0.400634765625;0.001187744140625;5.94999998497769;596;100 mA
6.50116598358613;0.400634765625;0.0011651611328125;5.95999998495245;597;100 mA
6.51116598356089;0.4007568359375;0.00114532470703125;5.9699999849272;598;100 mA
6.52116598353564;0.400543212890625;0.001204833984375;5.97999998490195;599;100 mA
6.53116598351039;0.400482177734375;0.00116180419921875;5.9899999848767;600;100 mA
6.54116598348514;0.40057373046875;0.00121429443359375;5.99999998485146;601;100 mA
6.5511659834599;0.400604248046875;0.0012005615234375;6.00999998482621;602;100 mA
6.56116598343465;0.4005126953125;0.0011358642578125;6.01999998480096;603;100 mA
6.5711659834094;0.400665283203125;0.0011944580078125;6.02999998477571;604;100 mA
6.58116598338415;0.40057373046875;0.0011578369140625;6.03999998475047;605;100 mA
6.59116598335891;0.40045166015625;0.00112335205078125;6.04999998472522;606;100 mA
6.60116598333366;0.400482177734375;0.00120330810546875;6.05999998469997;607;100 mA
6.61116598330841;0.4005126953125;0.00115142822265625;6.06999998467472;608;100 mA
6.62116598328316;0.40045166015625;0.00117523193359375;6.07999998464948;609;100 mA
6.63116598325792;0.400543212890625;0.00119842529296875;6.08999998462423;610;100 mA
6.64116598323267;0.400665283203125;0.00112701416015625;6.09999998459898;611;100 mA
6.65116598320742;0.400634765625;0.0012188720703125;6.10999998457373;612;100 mA
6.66116598318217;0.40069580078125;0.00114501953125;6.11999998454849;613;100 mA
6.67116598315692;0.40081787109375;0.00112640380859375;6.12999998452324;614;100 mA
6.68116598313168;0.40057373046875;0.001214599609375;6.13999998449799;615;100 mA
6.69116598310643;0.40045166015625;0.00114654541015625;6.14999998447274;616;100 mA
6.70116598308118;0.400604248046875;0.00118865966796875;6.1599999844475;617;100 mA
6.71116598305593;0.400543212890625;0.00120361328125;6.16999998442225;618;100 mA
6.72116598303069;0.40045166015625;0.00114471435546875;6.179999984397;619;100 mA
6.73116598300544;0.400665283203125;0.00120330810546875;6.18999998437175;620;100 mA
6.74116598298019;0.40057373046875;0.00117156982421875;6.1999999843465;621;100 mA
6.75116598295494;0.40057373046875;0.0011346435546875;6.20999998432126;622;100 mA
6.7611659829297;0.4005126953125;0.00121917724609375;6.21999998429601;623;100 mA
6.77116598290445;0.4005126953125;0.0011370849609375;6.22999998427076;624;100 mA
6.7811659828792;0.400390625;0.00121246337890625;6.23999998424551;625;100 mA
6.79116598285395;0.400543212890625;0.00120269775390625;6.24999998422027;626;100 mA
6.80116598282871;0.40069580078125;0.0011376953125;6.25999998419502;627;100 mA
6.81116598280346;0.400634765625;0.00119384765625;6.26999998416977;628;100 mA
6.82116598277821;0.400634765625;0.0011639404296875;6.27999998414452;629;100 mA
6.83116598275296;0.4007568359375;0.00114013671875;6.28999998411928;630;100 mA
6.84116598272772;0.4005126953125;0.0012164306640625;6.29999998409403;631;100 mA
6.85116598270247;0.4005126953125;0.00114288330078125;6.30999998406878;632;100 mA
6.86116598267722;0.400543212890625;0.00119140625;6.31999998404353;633;100 mA
6.87116598265197;0.400634765625;0.00119110107421875;6.32999998401829;634;100 mA
6.88116598262673;0.400604248046875;0.001146240234375;6.33999998399304;635;100 mA
6.89116598260148;0.400665283203125;0.0011871337890625;6.34999998396779;636;100 mA
6.90116598257623;0.4005126953125;0.001170654296875;6.35999998394254;637;100 mA
6.91116598255098;0.40045166015625;0.00115020751953125;6.3699999839173;638;100 mA
6.92116598252574;0.40045166015625;0.0012158203125;6.37999998389205;639;100 mA
6.93116598250049;0.400543212890625;0.00115814208984375;6.3899999838668;640;100 mA
6.94116598247524;0.40045166015625;0.00118804931640625;6.39999998384155;641;100 mA
6.95116598244999;0.40057373046875;0.001192626953125;6.40999998381631;642;100 mA
6.96116598242475;0.400665283203125;0.0011334228515625;6.41999998379106;643;100 mA
6.9711659823995;0.400665283203125;0.00117645263671875;6.42999998376581;644;100 mA
6.98116598237425;0.400634765625;0.00115509033203125;6.43999998374056;645;100 mA
6.991165982349;0.400726318359375;0.00111724853515625;6.44999998371532;646;100 mA
7.00116598232376;0.4005126953125;0.001197509765625;6.45999998369007;647;100 mA
7.01116598229851;0.4005126953125;0.0011358642578125;6.46999998366482;648;100 mA
7.02116598227326;0.400634765625;0.0011541748046875;6.47999998363957;649;100 mA
7.03116598224801;0.400543212890625;0.0011798095703125;6.48999998361433;650;100 mA
7.04116598222276;0.400543212890625;0.00111236572265625;6.49999998358908;651;100 mA
7.05116598219752;0.400726318359375;0.00116424560546875;6.50999998356383;652;100 mA
7.06116598217227;0.40057373046875;0.00113861083984375;6.51999998353858;653;100 mA
7.07116598214702;0.4005126953125;0.001109619140625;6.52999998351333;654;100 mA
7.08116598212177;0.4005126953125;0.001207275390625;6.53999998348809;655;100 mA
7.09116598209653;0.400543212890625;0.0011376953125;6.54999998346284;656;100 mA
7.10116598207128;0.400482177734375;0.00119140625;6.55999998343759;657;100 mA
7.11116598204603;0.40057373046875;0.00120758056640625;6.56999998341234;658;100 mA
7.12116598202078;0.400634765625;0.00112396240234375;6.5799999833871;659;100 mA
7.13116598199554;0.40057373046875;0.00121246337890625;6.58999998336185;660;100 mA
7.14116598197029;0.400543212890625;0.00116729736328125;6.5999999833366;661;100 mA
7.15116598194504;0.400787353515625;0.0011444091796875;6.60999998331135;662;100 mA
7.16116598191979;0.40057373046875;0.001226806640625;6.61999998328611;663;100 mA
7.17116598189455;0.40045166015625;0.00114898681640625;6.62999998326086;664;100 mA
7.1811659818693;0.400604248046875;0.0012109375;6.63999998323561;665;100 mA
7.19116598184405;0.400634765625;0.0011981201171875;6.64999998321036;666;100 mA
7.2011659818188;0.4005126953125;0.001142578125;6.65999998318512;667;100 mA
7.21116598179356;0.400634765625;0.00119537353515625;6.66999998315987;668;100 mA
7.22116598176831;0.40057373046875;0.00116241455078125;6.67999998313462;669;100 mA
7.23116598174306;0.40045166015625;0.0011480712890625;6.68999998310937;670;100 mA
7.24116598171781;0.4005126953125;0.00121612548828125;6.69999998308413;671;100 mA
7.25116598169257;0.400543212890625;0.00114654541015625;6.70999998305888;672;100 mA
7.26116598166732;0.40045166015625;0.00119537353515625;6.71999998303363;673;100 mA
7.27116598164207;0.40057373046875;0.00118988037109375;6.72999998300838;674;100 mA
7.28116598161682;0.400665283203125;0.0011285400390625;6.73999998298314;675;100 mA
7.29116598159158;0.400634765625;0.00117950439453125;6.74999998295789;676;100 mA
7.30116598156633;0.40057373046875;0.0011541748046875;6.75999998293264;677;100 mA
7.31116598154108;0.4007568359375;0.0011419677734375;6.76999998290739;678;100 mA
7.32116598151583;0.400543212890625;0.0012054443359375;6.77999998288215;679;100 mA
7.33116598149059;0.400482177734375;0.0011505126953125;6.7899999828569;680;100 mA
7.34116598146534;0.400665283203125;0.00118621826171875;6.79999998283165;681;100 mA
7.35116598144009;0.40057373046875;0.00120330810546875;6.8099999828064;682;100 mA
7.36116598141484;0.400634765625;0.00112945556640625;6.81999998278116;683;100 mA
7.37116598138959;0.400634765625;0.0011822509765625;6.82999998275591;684;100 mA
7.38116598136435;0.400634765625;0.00115814208984375;6.83999998273066;685;100 mA
7.3911659813391;0.400482177734375;0.00113494873046875;6.84999998270541;686;100 mA
7.40116598131385;0.400482177734375;0.00120361328125;6.85999998268016;687;100 mA
7.4111659812886;0.4005126953125;0.00115325927734375;6.86999998265492;688;100 mA
7.42116598126336;0.400482177734375;0.0011798095703125;6.87999998262967;689;100 mA
7.43116598123811;0.400543212890625;0.00118927001953125;6.88999998260442;690;100 mA
7.44116598121286;0.400634765625;0.0011065673828125;6.89999998257917;691;100 mA
7.45116598118761;0.400634765625;0.00119049072265625;6.90999998255393;692;100 mA
7.46116598116237;0.40057373046875;0.00113006591796875;6.91999998252868;693;100 mA
7.47116598113712;0.40069580078125;0.00111236572265625;6.92999998250343;694;100 mA
7.48116598111187;0.400543212890625;0.0011968994140625;6.93999998247818;695;100 mA
7.49116598108662;0.40045166015625;0.00113037109375;6.94999998245294;696;100 mA
7.50116598106138;0.40069580078125;0.00117431640625;6.95999998242769;697;100 mA
7.51116598103613;0.400604248046875;0.001181640625;6.96999998240244;698;100 mA
7.52116598101088;0.400604248046875;0.00111297607421875;6.97999998237719;699;100 mA
7.53116598098563;0.40069580078125;0.001180419921875;6.98999998235195;700;100 mA
