Time (s);WE(1).Potential (V);WE(1).Current (A);Corrected time (s);Index;Current range
8.05730397965726;0.307891845703125;-0.0013427734375;0;1;100 mA
8.06730397963202;0.300506591796875;-0.0001483154296875;0.00999999997475243;2;100 mA
8.07730397960677;0.300384521484375;0.00017852783203125;0.0199999999495049;3;100 mA
8.08730397958152;0.3004150390625;0.0003802490234375;0.0299999999242573;4;100 mA
8.09730397955627;0.30047607421875;0.00040618896484375;0.0399999998990097;5;100 mA
8.10730397953103;0.300445556640625;0.000566711425781249;0.0499999998737621;6;100 mA
8.11730397950578;0.300506591796875;0.0006060791015625;0.0599999998485146;7;100 mA
8.12730397948053;0.30072021484375;0.00060760498046875;0.069999999823267;8;100 mA
8.13730397945528;0.300628662109375;0.00071136474609375;0.0799999997980194;9;100 mA
8.14730397943003;0.300506591796875;0.000679626464843749;0.0899999997727718;10;100 mA
8.15730397940479;0.300567626953125;0.000747070312500001;0.0999999997475243;11;100 mA
8.16730397937954;0.300537109375;0.00079986572265625;0.109999999722277;12;100 mA
8.17730397935429;0.300445556640625;0.000722656250000001;0.119999999697029;13;100 mA
8.18730397932904;0.300567626953125;0.00081787109375;0.129999999671782;14;100 mA
8.1973039793038;0.300628662109375;0.00078582763671875;0.139999999646534;15;100 mA
8.20730397927855;0.300506591796875;0.00077789306640625;0.149999999621286;16;100 mA
8.2173039792533;0.300567626953125;0.0008544921875;0.159999999596039;17;100 mA
8.22730397922805;0.300506591796875;0.00081512451171875;0.169999999570791;18;100 mA
8.23730397920281;0.3004150390625;0.000849609375;0.179999999545544;19;100 mA
8.24730397917756;0.300445556640625;0.000898132324218751;0.189999999520296;20;100 mA
8.25730397915231;0.30047607421875;0.000855102539062499;0.199999999495049;21;100 mA
8.26730397912706;0.30035400390625;0.0009326171875;0.209999999469801;22;100 mA
8.27730397910182;0.300567626953125;0.000902404785156249;0.219999999444553;23;100 mA
8.28730397907657;0.3006591796875;0.00088226318359375;0.229999999419306;24;100 mA
8.29730397905132;0.30059814453125;0.00093048095703125;0.239999999394058;25;100 mA
8.30730397902607;0.30047607421875;0.0008892822265625;0.249999999368811;26;100 mA
8.31730397900083;0.30059814453125;0.0009234619140625;0.259999999343563;27;100 mA
8.32730397897558;0.30059814453125;0.0009564208984375;0.269999999318316;28;100 mA
8.33730397895033;0.30047607421875;0.00090789794921875;0.279999999293068;29;100 mA
8.34730397892508;0.300537109375;0.00098114013671875;0.28999999926782;30;100 mA
8.35730397889984;0.3006591796875;0.0009429931640625;0.299999999242573;31;100 mA
8.36730397887459;0.3004150390625;0.00090911865234375;0.309999999217325;32;100 mA
8.37730397884934;0.300567626953125;0.00096405029296875;0.319999999192078;33;100 mA
8.38730397882409;0.300506591796875;0.00093963623046875;0.32999999916683;34;100 mA
8.39730397879885;0.30047607421875;0.0009320068359375;0.339999999141583;35;100 mA
8.4073039787736;0.300384521484375;0.00098846435546875;0.349999999116335;36;100 mA
8.41730397874835;0.30047607421875;0.000922546386718751;0.359999999091087;37;100 mA
8.4273039787231;0.300445556640625;0.00098846435546875;0.36999999906584;38;100 mA
8.43730397869786;0.300537109375;0.000965576171875;0.379999999040592;39;100 mA
8.44730397867261;0.30059814453125;0.0009222412109375;0.389999999015345;40;100 mA
8.45730397864736;0.300567626953125;0.000992431640624999;0.399999998990097;41;100 mA
8.46730397862211;0.300506591796875;0.000931701660156251;0.40999999896485;42;100 mA
8.47730397859686;0.30059814453125;0.00095855712890625;0.419999998939602;43;100 mA
8.48730397857162;0.300567626953125;0.00099945068359375;0.429999998914354;44;100 mA
8.49730397854637;0.300445556640625;0.0009173583984375;0.439999998889107;45;100 mA
8.50730397852112;0.30059814453125;0.000992431640624999;0.449999998863859;46;100 mA
8.51730397849587;0.3006591796875;0.000963745117187501;0.459999998838612;47;100 mA
8.52730397847063;0.300445556640625;0.000926818847656249;0.469999998813364;48;100 mA
8.53730397844538;0.300537109375;0.000998840332031251;0.479999998788116;49;100 mA
8.54730397842013;0.30047607421875;0.00094329833984375;0.489999998762869;50;100 mA
8.55730397839488;0.3004150390625;0.000972900390625001;0.499999998737621;51;100 mA
8.56730397836964;0.3004150390625;0.00100555419921875;0.509999998712374;52;100 mA
8.57730397834439;0.300506591796875;0.0009478759765625;0.519999998687126;53;100 mA
8.58730397831914;0.30047607421875;0.00102203369140625;0.529999998661879;54;100 mA
8.59730397829389;0.300506591796875;0.0009783935546875;0.539999998636631;55;100 mA
8.60730397826865;0.3006591796875;0.000954284667968749;0.549999998611383;56;100 mA
8.6173039782434;0.300567626953125;0.00101959228515625;0.559999998586136;57;100 mA
8.62730397821815;0.300506591796875;0.00095245361328125;0.569999998560888;58;100 mA
8.6373039781929;0.300567626953125;0.000999755859375;0.579999998535641;59;100 mA
8.64730397816766;0.300537109375;0.00102203369140625;0.589999998510393;60;100 mA
8.65730397814241;0.3004150390625;0.000972595214843749;0.599999998485146;61;100 mA
8.66730397811716;0.30059814453125;0.00102783203125;0.609999998459898;62;100 mA
8.67730397809191;0.3006591796875;0.000986328125;0.61999999843465;63;100 mA
8.68730397806667;0.300506591796875;0.000975952148437501;0.629999998409403;64;100 mA
8.69730397804142;0.300537109375;0.00101043701171875;0.639999998384155;65;100 mA
8.70730397801617;0.300506591796875;0.00095977783203125;0.649999998358908;66;100 mA
8.71730397799092;0.3004150390625;0.0009967041015625;0.65999999833366;67;100 mA
8.72730397796568;0.300384521484375;0.001021728515625;0.669999998308413;68;100 mA
8.73730397794043;0.30047607421875;0.000963439941406249;0.679999998283165;69;100 mA
8.74730397791518;0.300445556640625;0.0010198974609375;0.689999998257917;70;100 mA
8.75730397788993;0.30047607421875;0.00100555419921875;0.69999999823267;71;100 mA
8.76730397786469;0.300537109375;0.000968017578125;0.709999998207422;72;100 mA
8.77730397783944;0.300567626953125;0.00103118896484375;0.719999998182175;73;100 mA
8.78730397781419;0.300506591796875;0.000974426269531251;0.729999998156927;74;100 mA
8.79730397778894;0.300628662109375;0.000986633300781251;0.73999999813168;75;100 mA
8.8073039777637;0.30059814453125;0.00104156494140625;0.749999998106432;76;100 mA
8.81730397773845;0.300445556640625;0.0009747314453125;0.759999998081184;77;100 mA
8.8273039777132;0.300628662109375;0.00103759765625;0.769999998055937;78;100 mA
8.83730397768795;0.300689697265625;0.00102264404296875;0.779999998030689;79;100 mA
8.8473039776627;0.300506591796875;0.000980224609374999;0.789999998005442;80;100 mA
8.85730397763746;0.300445556640625;0.00104888916015625;0.799999997980194;81;100 mA
8.86730397761221;0.300537109375;0.00099945068359375;0.809999997954947;82;100 mA
8.87730397758696;0.300384521484375;0.00101470947265625;0.819999997929699;83;100 mA
8.88730397756171;0.300445556640625;0.001068115234375;0.829999997904451;84;100 mA
8.89730397753647;0.30035400390625;0.000987854003906249;0.839999997879204;85;100 mA
8.90730397751122;0.300445556640625;0.0010528564453125;0.849999997853956;86;100 mA
8.91730397748597;0.30047607421875;0.00103759765625;0.859999997828709;87;100 mA
8.92730397746072;0.300567626953125;0.000988159179687501;0.869999997803461;88;100 mA
8.93730397743548;0.300567626953125;0.00105865478515625;0.879999997778214;89;100 mA
8.94730397741023;0.3004150390625;0.00100372314453125;0.889999997752966;90;100 mA
8.95730397738498;0.300537109375;0.00102447509765625;0.899999997727718;91;100 mA
8.96730397735973;0.300567626953125;0.001060791015625;0.909999997702471;92;100 mA
8.97730397733449;0.30047607421875;0.000988159179687501;0.919999997677223;93;100 mA
8.98730397730924;0.30059814453125;0.001055908203125;0.929999997651976;94;100 mA
8.99730397728399;0.30072021484375;0.00102294921875;0.939999997626728;95;100 mA
9.00730397725874;0.30047607421875;0.000989379882812499;0.949999997601481;96;100 mA
9.0173039772335;0.300567626953125;0.00105865478515625;0.959999997576233;97;100 mA
9.02730397720825;0.300506591796875;0.00099395751953125;0.969999997550985;98;100 mA
9.037303977183;0.300445556640625;0.00103118896484375;0.979999997525738;99;100 mA
9.04730397715775;0.300323486328125;0.00106781005859375;0.98999999750049;100;100 mA
9.05730397713251;0.3004150390625;0.00101043701171875;0.999999997475243;101;100 mA
9.06730397710726;0.30047607421875;0.00108306884765625;1.00999999745;102;100 mA
9.07730397708201;0.300445556640625;0.0010260009765625;1.01999999742475;103;100 mA
9.08730397705676;0.300628662109375;0.001007080078125;1.0299999973995;104;100 mA
9.09730397703152;0.300567626953125;0.0010552978515625;1.03999999737425;105;100 mA
9.10730397700627;0.3004150390625;0.0010125732421875;1.049999997349;106;100 mA
9.11730397698102;0.300537109375;0.00104400634765625;1.05999999732376;107;100 mA
9.12730397695577;0.300628662109375;0.00106597900390625;1.06999999729851;108;100 mA
9.13730397693053;0.30047607421875;0.00101959228515625;1.07999999727326;109;100 mA
9.14730397690528;0.30059814453125;0.0010821533203125;1.08999999724801;110;100 mA
9.15730397688003;0.3006591796875;0.001046142578125;1.09999999722277;111;100 mA
9.16730397685478;0.300567626953125;0.0010089111328125;1.10999999719752;112;100 mA
9.17730397682953;0.30047607421875;0.00106658935546875;1.11999999717227;113;100 mA
9.18730397680429;0.300567626953125;0.0010223388671875;1.12999999714702;114;100 mA
9.19730397677904;0.30047607421875;0.00103240966796875;1.13999999712178;115;100 mA
9.20730397675379;0.300323486328125;0.0010772705078125;1.14999999709653;116;100 mA
9.21730397672854;0.30035400390625;0.00101470947265625;1.15999999707128;117;100 mA
9.2273039767033;0.300506591796875;0.0010565185546875;1.16999999704603;118;100 mA
9.23730397667805;0.300506591796875;0.00104766845703125;1.17999999702079;119;100 mA
9.2473039766528;0.300537109375;0.00101470947265625;1.18999999699554;120;100 mA
9.25730397662755;0.300537109375;0.00108245849609375;1.19999999697029;121;100 mA
9.26730397660231;0.300445556640625;0.0010064697265625;1.20999999694504;122;100 mA
9.27730397657706;0.30047607421875;0.0010321044921875;1.2199999969198;123;100 mA
9.28730397655181;0.300567626953125;0.0011004638671875;1.22999999689455;124;100 mA
9.29730397652656;0.30047607421875;0.0010028076171875;1.2399999968693;125;100 mA
9.30730397650132;0.30059814453125;0.00107818603515625;1.24999999684405;126;100 mA
9.31730397647607;0.30059814453125;0.00105224609375;1.25999999681881;127;100 mA
9.32730397645082;0.300506591796875;0.00101470947265625;1.26999999679356;128;100 mA
9.33730397642557;0.300537109375;0.001087646484375;1.27999999676831;129;100 mA
9.34730397640033;0.300537109375;0.0010296630859375;1.28999999674306;130;100 mA
9.35730397637508;0.3004150390625;0.00104644775390625;1.29999999671782;131;100 mA
9.36730397634983;0.3004150390625;0.0010955810546875;1.30999999669257;132;100 mA
9.37730397632458;0.3004150390625;0.00100250244140625;1.31999999666732;133;100 mA
9.38730397629934;0.300445556640625;0.00108123779296875;1.32999999664207;134;100 mA
9.39730397627409;0.30047607421875;0.00103240966796875;1.33999999661683;135;100 mA
9.40730397624884;0.300506591796875;0.00101287841796875;1.34999999659158;136;100 mA
9.41730397622359;0.300537109375;0.00106964111328125;1.35999999656633;137;100 mA
9.42730397619835;0.300384521484375;0.001015625;1.36999999654108;138;100 mA
9.4373039761731;0.300506591796875;0.0010540771484375;1.37999999651583;139;100 mA
9.44730397614785;0.300506591796875;0.00109771728515625;1.38999999649059;140;100 mA
9.4573039761226;0.30047607421875;0.0010186767578125;1.39999999646534;141;100 mA
9.46730397609736;0.300537109375;0.001131591796875;1.40999999644009;142;100 mA
9.47730397607211;0.3006591796875;0.00102691650390625;1.41999999641484;143;100 mA
9.48730397604686;0.30059814453125;0.00101287841796875;1.4299999963896;144;100 mA
9.49730397602161;0.30047607421875;0.001063232421875;1.43999999636435;145;100 mA
9.50730397599636;0.300537109375;0.00102813720703125;1.4499999963391;146;100 mA
9.51730397597112;0.300445556640625;0.001043701171875;1.45999999631385;147;100 mA
9.52730397594587;0.300384521484375;0.00107757568359375;1.46999999628861;148;100 mA
9.53730397592062;0.300384521484375;0.0010186767578125;1.47999999626336;149;100 mA
9.54730397589537;0.30047607421875;0.00108795166015625;1.48999999623811;150;100 mA
9.55730397587013;0.300445556640625;0.00104461669921875;1.49999999621286;151;100 mA
9.56730397584488;0.3004150390625;0.00101104736328125;1.50999999618762;152;100 mA
9.57730397581963;0.300567626953125;0.0010760498046875;1.51999999616237;153;100 mA
9.58730397579438;0.300445556640625;0.0010101318359375;1.52999999613712;154;100 mA
9.59730397576914;0.3004150390625;0.00102203369140625;1.53999999611187;155;100 mA
9.60730397574389;0.300567626953125;0.00106842041015625;1.54999999608663;156;100 mA
9.61730397571864;0.300506591796875;0.00101348876953125;1.55999999606138;157;100 mA
9.62730397569339;0.300567626953125;0.001051025390625;1.56999999603613;158;100 mA
9.63730397566815;0.3006591796875;0.001043701171875;1.57999999601088;159;100 mA
9.6473039756429;0.30059814453125;0.0010076904296875;1.58999999598564;160;100 mA
9.65730397561765;0.300537109375;0.00107025146484375;1.59999999596039;161;100 mA
9.6673039755924;0.300628662109375;0.001019287109375;1.60999999593514;162;100 mA
9.67730397556716;0.30047607421875;0.00106201171875;1.61999999590989;163;100 mA
9.68730397554191;0.30047607421875;0.0010931396484375;1.62999999588465;164;100 mA
9.69730397551666;0.300384521484375;0.00100830078125;1.6399999958594;165;100 mA
9.70730397549141;0.300506591796875;0.00106719970703125;1.64999999583415;166;100 mA
9.71730397546617;0.30047607421875;0.00104705810546875;1.6599999958089;167;100 mA
9.72730397544092;0.30047607421875;0.0010028076171875;1.66999999578366;168;100 mA
9.73730397541567;0.30059814453125;0.00106903076171875;1.67999999575841;169;100 mA
9.74730397539042;0.300384521484375;0.00100494384765625;1.68999999573316;170;100 mA
9.75730397536518;0.300384521484375;0.001031494140625;1.69999999570791;171;100 mA
9.76730397533993;0.300537109375;0.001083984375;1.70999999568267;172;100 mA
9.77730397531468;0.300445556640625;0.00100067138671875;1.71999999565742;173;100 mA
9.78730397528943;0.30047607421875;0.0010992431640625;1.72999999563217;174;100 mA
9.79730397526419;0.3006591796875;0.001024169921875;1.73999999560692;175;100 mA
9.80730397523894;0.300567626953125;0.00099334716796875;1.74999999558167;176;100 mA
9.81730397521369;0.300537109375;0.00106903076171875;1.75999999555643;177;100 mA
9.82730397518844;0.30059814453125;0.00100372314453125;1.76999999553118;178;100 mA
9.83730397516319;0.300537109375;0.0010406494140625;1.77999999550593;179;100 mA
9.84730397513795;0.300445556640625;0.00107940673828125;1.78999999548068;180;100 mA
9.8573039751127;0.300445556640625;0.00101318359375;1.79999999545544;181;100 mA
9.86730397508745;0.300506591796875;0.00108245849609375;1.80999999543019;182;100 mA
9.8773039750622;0.300567626953125;0.001060791015625;1.81999999540494;183;100 mA
9.88730397503696;0.30047607421875;0.0010198974609375;1.82999999537969;184;100 mA
9.89730397501171;0.300537109375;0.00110107421875;1.83999999535445;185;100 mA
9.90730397498646;0.300323486328125;0.00101959228515625;1.8499999953292;186;100 mA
9.91730397496121;0.300384521484375;0.0010565185546875;1.85999999530395;187;100 mA
9.92730397493597;0.300537109375;0.00108917236328125;1.8699999952787;188;100 mA
9.93730397491072;0.300567626953125;0.0010284423828125;1.87999999525346;189;100 mA
9.94730397488547;0.300506591796875;0.001083984375;1.88999999522821;190;100 mA
9.95730397486022;0.3006591796875;0.00105010986328125;1.89999999520296;191;100 mA
9.96730397483498;0.3006591796875;0.00101593017578125;1.90999999517771;192;100 mA
9.97730397480973;0.30059814453125;0.0010784912109375;1.91999999515247;193;100 mA
9.98730397478448;0.300506591796875;0.0010308837890625;1.92999999512722;194;100 mA
9.99730397475923;0.30059814453125;0.0010430908203125;1.93999999510197;195;100 mA
10.007303974734;0.300445556640625;0.0010931396484375;1.94999999507672;196;100 mA
10.0173039747087;0.3004150390625;0.00103179931640625;1.95999999505148;197;100 mA
10.0273039746835;0.30059814453125;0.0010888671875;1.96999999502623;198;100 mA
10.0373039746582;0.300506591796875;0.0010736083984375;1.97999999500098;199;100 mA
10.047303974633;0.3004150390625;0.00103607177734375;1.98999999497573;200;100 mA
10.0573039746077;0.30059814453125;0.0010845947265625;1.99999999495049;201;100 mA
10.0673039745825;0.3004150390625;0.001053466796875;2.00999999492524;202;100 mA
10.0773039745573;0.300384521484375;0.0010589599609375;2.01999999489999;203;100 mA
10.087303974532;0.300445556640625;0.00111663818359375;2.02999999487474;204;100 mA
10.0973039745068;0.30047607421875;0.00103179931640625;2.0399999948495;205;100 mA
10.1073039744815;0.30047607421875;0.001104736328125;2.04999999482425;206;100 mA
10.1173039744563;0.30059814453125;0.00106292724609375;2.059999994799;207;100 mA
10.127303974431;0.300628662109375;0.00101715087890625;2.06999999477375;208;100 mA
10.1373039744058;0.300537109375;0.00109771728515625;2.0799999947485;209;100 mA
10.1473039743805;0.300537109375;0.0010302734375;2.08999999472326;210;100 mA
10.1573039743553;0.300567626953125;0.0010577392578125;2.09999999469801;211;100 mA
10.16730397433;0.3004150390625;0.00109039306640625;2.10999999467276;212;100 mA
10.1773039743048;0.3004150390625;0.00101531982421875;2.11999999464751;213;100 mA
10.1873039742795;0.300567626953125;0.0010888671875;2.12999999462227;214;100 mA
10.1973039742543;0.300537109375;0.00103668212890625;2.13999999459702;215;100 mA
10.207303974229;0.300384521484375;0.00101348876953125;2.14999999457177;216;100 mA
10.2173039742038;0.300537109375;0.001080322265625;2.15999999454652;217;100 mA
10.2273039741785;0.3004150390625;0.0010064697265625;2.16999999452128;218;100 mA
10.2373039741533;0.300384521484375;0.0010467529296875;2.17999999449603;219;100 mA
10.247303974128;0.300445556640625;0.00107666015625;2.18999999447078;220;100 mA
10.2573039741028;0.300506591796875;0.001007080078125;2.19999999444553;221;100 mA
10.2673039740775;0.3004150390625;0.0010784912109375;2.20999999442029;222;100 mA
10.2773039740523;0.300537109375;0.00103790283203125;2.21999999439504;223;100 mA
10.2873039740271;0.300689697265625;0.00101806640625;2.22999999436979;224;100 mA
10.2973039740018;0.300537109375;0.00107025146484375;2.23999999434454;225;100 mA
10.3073039739766;0.300537109375;0.0010064697265625;2.2499999943193;226;100 mA
10.3173039739513;0.30059814453125;0.00105621337890625;2.25999999429405;227;100 mA
10.3273039739261;0.300506591796875;0.001072998046875;2.2699999942688;228;100 mA
10.3373039739008;0.3004150390625;0.00100128173828125;2.27999999424355;229;100 mA
10.3473039738756;0.300537109375;0.00107574462890625;2.28999999421831;230;100 mA
10.3573039738503;0.30059814453125;0.00102935791015625;2.29999999419306;231;100 mA
10.3673039738251;0.300445556640625;0.0010040283203125;2.30999999416781;232;100 mA
10.3773039737998;0.300567626953125;0.0010595703125;2.31999999414256;233;100 mA
10.3873039737746;0.30047607421875;0.0010137939453125;2.32999999411732;234;100 mA
10.3973039737493;0.30029296875;0.00103179931640625;2.33999999409207;235;100 mA
10.4073039737241;0.300445556640625;0.001075439453125;2.34999999406682;236;100 mA
10.4173039736988;0.300567626953125;0.00101593017578125;2.35999999404157;237;100 mA
10.4273039736736;0.30047607421875;0.00108001708984375;2.36999999401633;238;100 mA
10.4373039736483;0.30059814453125;0.00105743408203125;2.37999999399108;239;100 mA
10.4473039736231;0.300689697265625;0.001016845703125;2.38999999396583;240;100 mA
10.4573039735978;0.30059814453125;0.00108184814453125;2.39999999394058;241;100 mA
10.4673039735726;0.300537109375;0.001036376953125;2.40999999391533;242;100 mA
10.4773039735474;0.300537109375;0.0010498046875;2.41999999389009;243;100 mA
10.4873039735221;0.30047607421875;0.0010968017578125;2.42999999386484;244;100 mA
10.4973039734969;0.300445556640625;0.0010260009765625;2.43999999383959;245;100 mA
10.5073039734716;0.30059814453125;0.00109405517578125;2.44999999381434;246;100 mA
10.5173039734464;0.300628662109375;0.00107086181640625;2.4599999937891;247;100 mA
10.5273039734211;0.300506591796875;0.00101593017578125;2.46999999376385;248;100 mA
10.5373039733959;0.300537109375;0.00110015869140625;2.4799999937386;249;100 mA
10.5473039733706;0.300506591796875;0.0010400390625;2.48999999371335;250;100 mA
10.5573039733454;0.30047607421875;0.001065673828125;2.49999999368811;251;100 mA
10.5673039733201;0.3004150390625;0.0011114501953125;2.50999999366286;252;100 mA
10.5773039732949;0.300506591796875;0.00104339599609375;2.51999999363761;253;100 mA
10.5873039732696;0.300506591796875;0.001114501953125;2.52999999361236;254;100 mA
10.5973039732444;0.300537109375;0.001077880859375;2.53999999358712;255;100 mA
10.6073039732191;0.300628662109375;0.0010443115234375;2.54999999356187;256;100 mA
10.6173039731939;0.300567626953125;0.00111572265625;2.55999999353662;257;100 mA
10.6273039731686;0.300537109375;0.00104156494140625;2.56999999351137;258;100 mA
10.6373039731434;0.300567626953125;0.00108245849609375;2.57999999348613;259;100 mA
10.6473039731181;0.300537109375;0.0011029052734375;2.58999999346088;260;100 mA
10.6573039730929;0.300445556640625;0.0010321044921875;2.59999999343563;261;100 mA
10.6673039730676;0.30059814453125;0.0010992431640625;2.60999999341038;262;100 mA
10.6773039730424;0.300628662109375;0.00106475830078125;2.61999999338514;263;100 mA
10.6873039730172;0.300506591796875;0.00105224609375;2.62999999335989;264;100 mA
10.6973039729919;0.30059814453125;0.00109527587890625;2.63999999333464;265;100 mA
10.7073039729667;0.300506591796875;0.00103240966796875;2.64999999330939;266;100 mA
10.7173039729414;0.300384521484375;0.00107391357421875;2.65999999328415;267;100 mA
10.7273039729162;0.300445556640625;0.001102294921875;2.6699999932589;268;100 mA
10.7373039728909;0.300506591796875;0.00103729248046875;2.67999999323365;269;100 mA
10.7473039728657;0.3004150390625;0.00110015869140625;2.6899999932084;270;100 mA
10.7573039728404;0.300567626953125;0.00106109619140625;2.69999999318316;271;100 mA
10.7673039728152;0.300628662109375;0.00103790283203125;2.70999999315791;272;100 mA
10.7773039727899;0.30059814453125;0.00108734130859375;2.71999999313266;273;100 mA
10.7873039727647;0.30047607421875;0.0010491943359375;2.72999999310741;274;100 mA
10.7973039727394;0.30059814453125;0.00106536865234375;2.73999999308217;275;100 mA
10.8073039727142;0.300567626953125;0.0011004638671875;2.74999999305692;276;100 mA
10.8173039726889;0.300445556640625;0.0010479736328125;2.75999999303167;277;100 mA
10.8273039726637;0.30059814453125;0.00109710693359375;2.76999999300642;278;100 mA
10.8373039726384;0.3006591796875;0.00108001708984375;2.77999999298117;279;100 mA
10.8473039726132;0.30047607421875;0.0010418701171875;2.78999999295593;280;100 mA
10.8573039725879;0.300567626953125;0.00110260009765625;2.79999999293068;281;100 mA
10.8673039725627;0.300567626953125;0.00106048583984375;2.80999999290543;282;100 mA
10.8773039725374;0.300384521484375;0.00106842041015625;2.81999999288018;283;100 mA
10.8873039725122;0.300384521484375;0.00112457275390625;2.82999999285494;284;100 mA
10.897303972487;0.30047607421875;0.001038818359375;2.83999999282969;285;100 mA
10.9073039724617;0.3004150390625;0.001103515625;2.84999999280444;286;100 mA
10.9173039724365;0.30047607421875;0.0010772705078125;2.85999999277919;287;100 mA
10.9273039724112;0.30059814453125;0.00102813720703125;2.86999999275395;288;100 mA
10.937303972386;0.300628662109375;0.001121826171875;2.8799999927287;289;100 mA
10.9473039723607;0.30047607421875;0.00104248046875;2.88999999270345;290;100 mA
10.9573039723355;0.300567626953125;0.0010595703125;2.8999999926782;291;100 mA
10.9673039723102;0.30059814453125;0.00111114501953125;2.90999999265296;292;100 mA
10.977303972285;0.300506591796875;0.00103424072265625;2.91999999262771;293;100 mA
10.9873039722597;0.300628662109375;0.00111328125;2.92999999260246;294;100 mA
10.9973039722345;0.300689697265625;0.00107574462890625;2.93999999257721;295;100 mA
11.0073039722092;0.300537109375;0.00104095458984375;2.94999999255197;296;100 mA
11.017303972184;0.300506591796875;0.001112060546875;2.95999999252672;297;100 mA
11.0273039721587;0.300537109375;0.0010430908203125;2.96999999250147;298;100 mA
11.0373039721335;0.300445556640625;0.00109375;2.97999999247622;299;100 mA
11.0473039721082;0.300323486328125;0.00111358642578125;2.98999999245098;300;100 mA
11.057303972083;0.30047607421875;0.00104888916015625;2.99999999242573;301;100 mA
11.0673039720577;0.3004150390625;0.00110076904296875;3.00999999240048;302;100 mA
11.0773039720325;0.300445556640625;0.001060791015625;3.01999999237523;303;100 mA
11.0873039720072;0.300506591796875;0.00104217529296875;3.02999999234999;304;100 mA
11.097303971982;0.30059814453125;0.00109222412109375;3.03999999232474;305;100 mA
11.1073039719568;0.300506591796875;0.00102874755859375;3.04999999229949;306;100 mA
11.1173039719315;0.300506591796875;0.0010638427734375;3.05999999227424;307;100 mA
11.1273039719063;0.300628662109375;0.0010833740234375;3.069999992249;308;100 mA
11.137303971881;0.300506591796875;0.00103240966796875;3.07999999222375;309;100 mA
11.1473039718558;0.3006591796875;0.00109466552734375;3.0899999921985;310;100 mA
11.1573039718305;0.3006591796875;0.00103607177734375;3.09999999217325;311;100 mA
11.1673039718053;0.300506591796875;0.00100982666015625;3.109999992148;312;100 mA
11.17730397178;0.300567626953125;0.00106353759765625;3.11999999212276;313;100 mA
11.1873039717548;0.300567626953125;0.00102264404296875;3.12999999209751;314;100 mA
11.1973039717295;0.300445556640625;0.00104339599609375;3.13999999207226;315;100 mA
11.2073039717043;0.300384521484375;0.00107086181640625;3.14999999204701;316;100 mA
11.217303971679;0.30047607421875;0.001009521484375;3.15999999202177;317;100 mA
11.2273039716538;0.300506591796875;0.001065673828125;3.16999999199652;318;100 mA
11.2373039716285;0.300445556640625;0.00105377197265625;3.17999999197127;319;100 mA
11.2473039716033;0.300567626953125;0.00101287841796875;3.18999999194602;320;100 mA
11.257303971578;0.30059814453125;0.00108734130859375;3.19999999192078;321;100 mA
11.2673039715528;0.3004150390625;0.00101318359375;3.20999999189553;322;100 mA
11.2773039715275;0.300537109375;0.001026611328125;3.21999999187028;323;100 mA
11.2873039715023;0.300567626953125;0.00109161376953125;3.22999999184503;324;100 mA
11.297303971477;0.300506591796875;0.0010150146484375;3.23999999181979;325;100 mA
11.3073039714518;0.300537109375;0.00107147216796875;3.24999999179454;326;100 mA
11.3173039714266;0.3006591796875;0.001046142578125;3.25999999176929;327;100 mA
11.3273039714013;0.300537109375;0.00100494384765625;3.26999999174404;328;100 mA
11.3373039713761;0.300567626953125;0.0010931396484375;3.2799999917188;329;100 mA
11.3473039713508;0.300567626953125;0.0010272216796875;3.28999999169355;330;100 mA
11.3573039713256;0.300506591796875;0.00104400634765625;3.2999999916683;331;100 mA
11.3673039713003;0.30035400390625;0.00109954833984375;3.30999999164305;332;100 mA
11.3773039712751;0.300445556640625;0.001021728515625;3.31999999161781;333;100 mA
11.3873039712498;0.300506591796875;0.0010986328125;3.32999999159256;334;100 mA
11.3973039712246;0.30047607421875;0.00105743408203125;3.33999999156731;335;100 mA
11.4073039711993;0.30047607421875;0.00102020263671875;3.34999999154206;336;100 mA
11.4173039711741;0.30059814453125;0.00109130859375;3.35999999151682;337;100 mA
11.4273039711488;0.300445556640625;0.0010174560546875;3.36999999149157;338;100 mA
11.4373039711236;0.3004150390625;0.00104888916015625;3.37999999146632;339;100 mA
11.4473039710983;0.300567626953125;0.0010760498046875;3.38999999144107;340;100 mA
11.4573039710731;0.30059814453125;0.000997009277343749;3.39999999141583;341;100 mA
11.4673039710478;0.300506591796875;0.0010675048828125;3.40999999139058;342;100 mA
11.4773039710226;0.3006591796875;0.00102935791015625;3.41999999136533;343;100 mA
11.4873039709973;0.300537109375;0.0010076904296875;3.42999999134008;344;100 mA
11.4973039709721;0.300567626953125;0.00107330322265625;3.43999999131483;345;100 mA
11.5073039709469;0.30059814453125;0.001011962890625;3.44999999128959;346;100 mA
11.5173039709216;0.300506591796875;0.001044921875;3.45999999126434;347;100 mA
11.5273039708964;0.300384521484375;0.0010772705078125;3.46999999123909;348;100 mA
11.5373039708711;0.30047607421875;0.00102935791015625;3.47999999121384;349;100 mA
11.5473039708459;0.300567626953125;0.00109588623046875;3.4899999911886;350;100 mA
11.5573039708206;0.300506591796875;0.00104522705078125;3.49999999116335;351;100 mA
11.5673039707954;0.300445556640625;0.0010205078125;3.5099999911381;352;100 mA
11.5773039707701;0.300567626953125;0.001077880859375;3.51999999111285;353;100 mA
11.5873039707449;0.3004150390625;0.00105865478515625;3.52999999108761;354;100 mA
11.5973039707196;0.3004150390625;0.0010479736328125;3.53999999106236;355;100 mA
11.6073039706944;0.300537109375;0.0010809326171875;3.54999999103711;356;100 mA
11.6173039706691;0.300537109375;0.00102325439453125;3.55999999101186;357;100 mA
11.6273039706439;0.300537109375;0.0010821533203125;3.56999999098662;358;100 mA
11.6373039706186;0.30059814453125;0.0010626220703125;3.57999999096137;359;100 mA
11.6473039705934;0.3006591796875;0.0010223388671875;3.58999999093612;360;100 mA
11.6573039705681;0.300628662109375;0.00108154296875;3.59999999091087;361;100 mA
11.6673039705429;0.300567626953125;0.001029052734375;3.60999999088563;362;100 mA
11.6773039705176;0.300445556640625;0.0010546875;3.61999999086038;363;100 mA
11.6873039704924;0.300445556640625;0.0011114501953125;3.62999999083513;364;100 mA
11.6973039704671;0.300537109375;0.0010308837890625;3.63999999080988;365;100 mA
11.7073039704419;0.300506591796875;0.00109100341796875;3.64999999078464;366;100 mA
11.7173039704167;0.300506591796875;0.0010772705078125;3.65999999075939;367;100 mA
11.7273039703914;0.3004150390625;0.00103057861328125;3.66999999073414;368;100 mA
11.7373039703662;0.300537109375;0.00111328125;3.67999999070889;369;100 mA
11.7473039703409;0.300506591796875;0.00103912353515625;3.68999999068365;370;100 mA
11.7573039703157;0.300384521484375;0.00107574462890625;3.6999999906584;371;100 mA
11.7673039702904;0.300506591796875;0.00111572265625;3.70999999063315;372;100 mA
11.7773039702652;0.300537109375;0.00103607177734375;3.7199999906079;373;100 mA
11.7873039702399;0.300445556640625;0.001114501953125;3.72999999058266;374;100 mA
11.7973039702147;0.30059814453125;0.0010748291015625;3.73999999055741;375;100 mA
11.8073039701894;0.300689697265625;0.001026611328125;3.74999999053216;376;100 mA
11.8173039701642;0.30059814453125;0.0010980224609375;3.75999999050691;377;100 mA
11.8273039701389;0.300506591796875;0.001029052734375;3.76999999048167;378;100 mA
11.8373039701137;0.300506591796875;0.00106903076171875;3.77999999045642;379;100 mA
11.8473039700884;0.300506591796875;0.001097412109375;3.78999999043117;380;100 mA
11.8573039700632;0.300445556640625;0.0010272216796875;3.79999999040592;381;100 mA
11.8673039700379;0.300537109375;0.00109771728515625;3.80999999038067;382;100 mA
11.8773039700127;0.300567626953125;0.0010601806640625;3.81999999035543;383;100 mA
11.8873039699874;0.300445556640625;0.00104766845703125;3.82999999033018;384;100 mA
11.8973039699622;0.300567626953125;0.001102294921875;3.83999999030493;385;100 mA
11.9073039699369;0.300445556640625;0.00104736328125;3.84999999027968;386;100 mA
11.9173039699117;0.30035400390625;0.0010723876953125;3.85999999025444;387;100 mA
11.9273039698865;0.300506591796875;0.0011041259765625;3.86999999022919;388;100 mA
11.9373039698612;0.300537109375;0.00105712890625;3.87999999020394;389;100 mA
11.947303969836;0.300506591796875;0.00111358642578125;3.88999999017869;390;100 mA
11.9573039698107;0.300567626953125;0.00106597900390625;3.89999999015345;391;100 mA
11.9673039697855;0.300689697265625;0.001031494140625;3.9099999901282;392;100 mA
11.9773039697602;0.30059814453125;0.00109619140625;3.91999999010295;393;100 mA
11.987303969735;0.300567626953125;0.001048583984375;3.9299999900777;394;100 mA
11.9973039697097;0.30059814453125;0.00106231689453125;3.93999999005246;395;100 mA
12.0073039696845;0.300567626953125;0.001102294921875;3.94999999002721;396;100 mA
12.0173039696592;0.30047607421875;0.00104705810546875;3.95999999000196;397;100 mA
12.027303969634;0.30059814453125;0.0010955810546875;3.96999998997671;398;100 mA
12.0373039696087;0.30059814453125;0.001080322265625;3.97999998995147;399;100 mA
12.0473039695835;0.30047607421875;0.001031494140625;3.98999998992622;400;100 mA
12.0573039695582;0.30059814453125;0.0010968017578125;3.99999998990097;401;100 mA
12.067303969533;0.300445556640625;0.00103759765625;4.00999998987572;402;100 mA
12.0773039695077;0.30035400390625;0.0010528564453125;4.01999998985048;403;100 mA
12.0873039694825;0.3004150390625;0.00110076904296875;4.02999998982523;404;100 mA
12.0973039694572;0.300537109375;0.0010198974609375;4.03999998979998;405;100 mA
12.107303969432;0.30047607421875;0.0010833740234375;4.04999998977473;406;100 mA
12.1173039694067;0.300537109375;0.0010699462890625;4.05999998974949;407;100 mA
12.1273039693815;0.300628662109375;0.0010186767578125;4.06999998972424;408;100 mA
12.1373039693563;0.300628662109375;0.00111480712890625;4.07999998969899;409;100 mA
12.147303969331;0.300537109375;0.00104949951171875;4.08999998967374;410;100 mA
12.1573039693058;0.30059814453125;0.001077880859375;4.0999999896485;411;100 mA
12.1673039692805;0.300567626953125;0.0011175537109375;4.10999998962325;412;100 mA
12.1773039692553;0.300506591796875;0.0010333251953125;4.119999989598;413;100 mA
12.18730396923;0.30059814453125;0.001123046875;4.12999998957275;414;100 mA
12.1973039692048;0.300689697265625;0.00108917236328125;4.1399999895475;415;100 mA
12.2073039691795;0.30047607421875;0.0010498046875;4.14999998952226;416;100 mA
12.2173039691543;0.30059814453125;0.0011297607421875;4.15999998949701;417;100 mA
12.227303969129;0.30047607421875;0.0010675048828125;4.16999998947176;418;100 mA
12.2373039691038;0.30035400390625;0.00111541748046875;4.17999998944651;419;100 mA
12.2473039690785;0.300445556640625;0.0011517333984375;4.18999998942127;420;100 mA
12.2573039690533;0.300537109375;0.00109710693359375;4.19999998939602;421;100 mA
12.267303969028;0.300445556640625;0.00115936279296875;4.20999998937077;422;100 mA
12.2773039690028;0.300506591796875;0.0011181640625;4.21999998934552;423;100 mA
12.2873039689775;0.30059814453125;0.0010858154296875;4.22999998932028;424;100 mA
12.2973039689523;0.300567626953125;0.001148681640625;4.23999998929503;425;100 mA
12.307303968927;0.3004150390625;0.001104736328125;4.24999998926978;426;100 mA
12.3173039689018;0.300537109375;0.00111480712890625;4.25999998924453;427;100 mA
12.3273039688765;0.300537109375;0.00115386962890625;4.26999998921929;428;100 mA
12.3373039688513;0.30047607421875;0.0010882568359375;4.27999998919404;429;100 mA
12.3473039688261;0.30059814453125;0.0011376953125;4.28999998916879;430;100 mA
12.3573039688008;0.3006591796875;0.00111785888671875;4.29999998914354;431;100 mA
12.3673039687756;0.300537109375;0.00106903076171875;4.3099999891183;432;100 mA
12.3773039687503;0.300506591796875;0.0011285400390625;4.31999998909305;433;100 mA
12.3873039687251;0.30047607421875;0.001094970703125;4.3299999890678;434;100 mA
12.3973039686998;0.300384521484375;0.0011016845703125;4.33999998904255;435;100 mA
12.4073039686746;0.30029296875;0.0011480712890625;4.34999998901731;436;100 mA
12.4173039686493;0.3004150390625;0.0010809326171875;4.35999998899206;437;100 mA
12.4273039686241;0.3004150390625;0.00112335205078125;4.36999998896681;438;100 mA
12.4373039685988;0.300445556640625;0.00111480712890625;4.37999998894156;439;100 mA
12.4473039685736;0.300628662109375;0.00105987548828125;4.38999998891632;440;100 mA
12.4573039685483;0.300628662109375;0.00113311767578125;4.39999998889107;441;100 mA
12.4673039685231;0.3004150390625;0.00108245849609375;4.40999998886582;442;100 mA
12.4773039684978;0.300567626953125;0.00110015869140625;4.41999998884057;443;100 mA
12.4873039684726;0.300537109375;0.0011578369140625;4.42999998881533;444;100 mA
12.4973039684473;0.300567626953125;0.00106658935546875;4.43999998879008;445;100 mA
12.5073039684221;0.300567626953125;0.00111663818359375;4.44999998876483;446;100 mA
12.5173039683968;0.300628662109375;0.00109130859375;4.45999998873958;447;100 mA
12.5273039683716;0.30059814453125;0.00103546142578125;4.46999998871433;448;100 mA
12.5373039683464;0.300567626953125;0.0011126708984375;4.47999998868909;449;100 mA
12.5473039683211;0.300537109375;0.001060791015625;4.48999998866384;450;100 mA
12.5573039682959;0.30047607421875;0.001068115234375;4.49999998863859;451;100 mA
12.5673039682706;0.3004150390625;0.00111175537109375;4.50999998861334;452;100 mA
12.5773039682454;0.30047607421875;0.00103851318359375;4.5199999885881;453;100 mA
12.5873039682201;0.300445556640625;0.0011590576171875;4.52999998856285;454;100 mA
12.5973039681949;0.300445556640625;0.00103912353515625;4.5399999885376;455;100 mA
12.6073039681696;0.300506591796875;0.00101654052734375;4.54999998851235;456;100 mA
12.6173039681444;0.300628662109375;0.00108367919921875;4.55999998848711;457;100 mA
12.6273039681191;0.30047607421875;0.0010198974609375;4.56999998846186;458;100 mA
12.6373039680939;0.30047607421875;0.00106201171875;4.57999998843661;459;100 mA
12.6473039680686;0.3006591796875;0.001083984375;4.58999998841136;460;100 mA
12.6573039680434;0.30047607421875;0.00101715087890625;4.59999998838612;461;100 mA
12.6673039680181;0.300537109375;0.00108184814453125;4.60999998836087;462;100 mA
12.6773039679929;0.300628662109375;0.00105194091796875;4.61999998833562;463;100 mA
12.6873039679676;0.30059814453125;0.00101898193359375;4.62999998831037;464;100 mA
12.6973039679424;0.30047607421875;0.00108123779296875;4.63999998828513;465;100 mA
12.7073039679171;0.300567626953125;0.00102203369140625;4.64999998825988;466;100 mA
12.7173039678919;0.300445556640625;0.00106689453125;4.65999998823463;467;100 mA
12.7273039678666;0.300445556640625;0.00108612060546875;4.66999998820938;468;100 mA
12.7373039678414;0.300445556640625;0.00103851318359375;4.67999998818414;469;100 mA
12.7473039678162;0.30047607421875;0.001077880859375;4.68999998815889;470;100 mA
12.7573039677909;0.300445556640625;0.00106109619140625;4.69999998813364;471;100 mA
12.7673039677657;0.300506591796875;0.001021728515625;4.70999998810839;472;100 mA
12.7773039677404;0.300537109375;0.0010894775390625;4.71999998808315;473;100 mA
12.7873039677152;0.30047607421875;0.00103424072265625;4.7299999880579;474;100 mA
12.7973039676899;0.300384521484375;0.00105804443359375;4.73999998803265;475;100 mA
12.8073039676647;0.300567626953125;0.0010943603515625;4.7499999880074;476;100 mA
12.8173039676394;0.300537109375;0.00102752685546875;4.75999998798216;477;100 mA
12.8273039676142;0.300506591796875;0.0010772705078125;4.76999998795691;478;100 mA
12.8373039675889;0.300628662109375;0.001060791015625;4.77999998793166;479;100 mA
12.8473039675637;0.30072021484375;0.00101348876953125;4.78999998790641;480;100 mA
12.8573039675384;0.300567626953125;0.001087646484375;4.79999998788116;481;100 mA
12.8673039675132;0.300537109375;0.00104522705078125;4.80999998785592;482;100 mA
12.8773039674879;0.300506591796875;0.00105987548828125;4.81999998783067;483;100 mA
12.8873039674627;0.3004150390625;0.00111785888671875;4.82999998780542;484;100 mA
12.8973039674374;0.300445556640625;0.0010284423828125;4.83999998778017;485;100 mA
12.9073039674122;0.300537109375;0.00108978271484375;4.84999998775493;486;100 mA
12.9173039673869;0.300537109375;0.0010699462890625;4.85999998772968;487;100 mA
12.9273039673617;0.300445556640625;0.0010198974609375;4.86999998770443;488;100 mA
12.9373039673364;0.300567626953125;0.0011065673828125;4.87999998767918;489;100 mA
12.9473039673112;0.300445556640625;0.00104461669921875;4.88999998765394;490;100 mA
12.957303967286;0.30035400390625;0.00107666015625;4.89999998762869;491;100 mA
12.9673039672607;0.300567626953125;0.0011138916015625;4.90999998760344;492;100 mA
12.9773039672355;0.30059814453125;0.00103790283203125;4.91999998757819;493;100 mA
12.9873039672102;0.300506591796875;0.0011175537109375;4.92999998755295;494;100 mA
12.997303967185;0.30059814453125;0.00106170654296875;4.9399999875277;495;100 mA
13.0073039671597;0.3006591796875;0.0010333251953125;4.94999998750245;496;100 mA
13.0173039671345;0.300537109375;0.00112518310546875;4.9599999874772;497;100 mA
13.0273039671092;0.300537109375;0.00103240966796875;4.96999998745196;498;100 mA
13.037303967084;0.300537109375;0.00107330322265625;4.97999998742671;499;100 mA
13.0473039670587;0.300506591796875;0.00109710693359375;4.98999998740146;500;100 mA
13.0573039670335;0.300445556640625;0.00104644775390625;4.99999998737621;501;100 mA
13.0673039670082;0.300506591796875;0.00110565185546875;5.00999998735097;502;100 mA
13.077303966983;0.30047607421875;0.00106781005859375;5.01999998732572;503;100 mA
13.0873039669577;0.3004150390625;0.00103515625;5.02999998730047;504;100 mA
13.0973039669325;0.300506591796875;0.00110260009765625;5.03999998727522;505;100 mA
13.1073039669072;0.3004150390625;0.00103240966796875;5.04999998724998;506;100 mA
13.117303966882;0.3004150390625;0.0010675048828125;5.05999998722473;507;100 mA
13.1273039668567;0.300506591796875;0.00108673095703125;5.06999998719948;508;100 mA
13.1373039668315;0.300506591796875;0.0010400390625;5.07999998717423;509;100 mA
13.1473039668062;0.300537109375;0.00107940673828125;5.08999998714899;510;100 mA
13.157303966781;0.300537109375;0.0010650634765625;5.09999998712374;511;100 mA
13.1673039667558;0.3006591796875;0.00101959228515625;5.10999998709849;512;100 mA
13.1773039667305;0.300628662109375;0.00107879638671875;5.11999998707324;513;100 mA
13.1873039667053;0.300537109375;0.0010400390625;5.129999987048;514;100 mA
13.19730396668;0.300567626953125;0.0010540771484375;5.13999998702275;515;100 mA
13.2073039666548;0.300567626953125;0.00108062744140625;5.1499999869975;516;100 mA
13.2173039666295;0.30047607421875;0.0010211181640625;5.15999998697225;517;100 mA
13.2273039666043;0.30047607421875;0.00106597900390625;5.169999986947;518;100 mA
13.237303966579;0.30059814453125;0.00104248046875;5.17999998692176;519;100 mA
13.2473039665538;0.30047607421875;0.00099945068359375;5.18999998689651;520;100 mA
13.2573039665285;0.300567626953125;0.001075439453125;5.19999998687126;521;100 mA
13.2673039665033;0.30047607421875;0.001025390625;5.20999998684601;522;100 mA
13.277303966478;0.300384521484375;0.00105133056640625;5.21999998682077;523;100 mA
13.2873039664528;0.3004150390625;0.00110626220703125;5.22999998679552;524;100 mA
13.2973039664275;0.300537109375;0.00103240966796875;5.23999998677027;525;100 mA
13.3073039664023;0.30047607421875;0.0010784912109375;5.24999998674502;526;100 mA
13.317303966377;0.300506591796875;0.0010711669921875;5.25999998671978;527;100 mA
13.3273039663518;0.300689697265625;0.0010125732421875;5.26999998669453;528;100 mA
13.3373039663265;0.300628662109375;0.00109222412109375;5.27999998666928;529;100 mA
13.3473039663013;0.300506591796875;0.0010296630859375;5.28999998664403;530;100 mA
13.357303966276;0.30059814453125;0.00105560302734375;5.29999998661879;531;100 mA
13.3673039662508;0.300506591796875;0.001102294921875;5.30999998659354;532;100 mA
13.3773039662256;0.30047607421875;0.0010162353515625;5.31999998656829;533;100 mA
13.3873039662003;0.30059814453125;0.0010882568359375;5.32999998654304;534;100 mA
13.3973039661751;0.300628662109375;0.00105224609375;5.3399999865178;535;100 mA
13.4073039661498;0.300445556640625;0.00102142333984375;5.34999998649255;536;100 mA
13.4173039661246;0.300506591796875;0.0010882568359375;5.3599999864673;537;100 mA
13.4273039660993;0.30047607421875;0.00102020263671875;5.36999998644205;538;100 mA
13.4373039660741;0.3004150390625;0.001055908203125;5.37999998641681;539;100 mA
13.4473039660488;0.300384521484375;0.00109222412109375;5.38999998639156;540;100 mA
13.4573039660236;0.300506591796875;0.0010125732421875;5.39999998636631;541;100 mA
13.4673039659983;0.3004150390625;0.0010748291015625;5.40999998634106;542;100 mA
13.4773039659731;0.300445556640625;0.00104034423828125;5.41999998631582;543;100 mA
13.4873039659478;0.30072021484375;0.001009521484375;5.42999998629057;544;100 mA
13.4973039659226;0.300567626953125;0.001092529296875;5.43999998626532;545;100 mA
13.5073039658973;0.30047607421875;0.0010205078125;5.44999998624007;546;100 mA
13.5173039658721;0.300537109375;0.001053466796875;5.45999998621483;547;100 mA
13.5273039658468;0.300567626953125;0.00107696533203125;5.46999998618958;548;100 mA
13.5373039658216;0.30047607421875;0.00102325439453125;5.47999998616433;549;100 mA
13.5473039657963;0.30059814453125;0.00106964111328125;5.48999998613908;550;100 mA
13.5573039657711;0.3006591796875;0.00104888916015625;5.49999998611383;551;100 mA
13.5673039657459;0.300567626953125;0.001016845703125;5.50999998608859;552;100 mA
13.5773039657206;0.300506591796875;0.0010955810546875;5.51999998606334;553;100 mA
13.5873039656954;0.300537109375;0.001021728515625;5.52999998603809;554;100 mA
13.5973039656701;0.3004150390625;0.00105316162109375;5.53999998601284;555;100 mA
13.6073039656449;0.30035400390625;0.0010882568359375;5.5499999859876;556;100 mA
13.6173039656196;0.300506591796875;0.0010223388671875;5.55999998596235;557;100 mA
13.6273039655944;0.300445556640625;0.00107635498046875;5.5699999859371;558;100 mA
13.6373039655691;0.30047607421875;0.00105255126953125;5.57999998591185;559;100 mA
13.6473039655439;0.300506591796875;0.0010064697265625;5.58999998588661;560;100 mA
13.6573039655186;0.300567626953125;0.00111907958984375;5.59999998586136;561;100 mA
13.6673039654934;0.300445556640625;0.001033935546875;5.60999998583611;562;100 mA
13.6773039654681;0.300506591796875;0.00102996826171875;5.61999998581086;563;100 mA
13.6873039654429;0.300537109375;0.00108612060546875;5.62999998578562;564;100 mA
13.6973039654176;0.300506591796875;0.001005859375;5.63999998576037;565;100 mA
13.7073039653924;0.30059814453125;0.00106536865234375;5.64999998573512;566;100 mA
13.7173039653671;0.300689697265625;0.00105072021484375;5.65999998570987;567;100 mA
13.7273039653419;0.30059814453125;0.00098846435546875;5.66999998568463;568;100 mA
13.7373039653166;0.300506591796875;0.00107421875;5.67999998565938;569;100 mA
13.7473039652914;0.30047607421875;0.0010150146484375;5.68999998563413;570;100 mA
13.7573039652661;0.30047607421875;0.00104644775390625;5.69999998560888;571;100 mA
13.7673039652409;0.300384521484375;0.00109954833984375;5.70999998558364;572;100 mA
13.7773039652157;0.30047607421875;0.00101287841796875;5.71999998555839;573;100 mA
13.7873039651904;0.300445556640625;0.00109375;5.72999998553314;574;100 mA
13.7973039651652;0.300384521484375;0.001060791015625;5.73999998550789;575;100 mA
13.8073039651399;0.300506591796875;0.00100372314453125;5.74999998548265;576;100 mA
13.8173039651147;0.300567626953125;0.00108642578125;5.7599999854574;577;100 mA
13.8273039650894;0.300384521484375;0.00101654052734375;5.76999998543215;578;100 mA
13.8373039650642;0.300445556640625;0.00105133056640625;5.7799999854069;579;100 mA
13.8473039650389;0.300567626953125;0.001085205078125;5.78999998538166;580;100 mA
13.8573039650137;0.300537109375;0.00102203369140625;5.79999998535641;581;100 mA
13.8673039649884;0.300537109375;0.0010791015625;5.80999998533116;582;100 mA
13.8773039649632;0.30072021484375;0.00104034423828125;5.81999998530591;583;100 mA
13.8873039649379;0.30059814453125;0.00102142333984375;5.82999998528066;584;100 mA
13.8973039649127;0.30047607421875;0.00108612060546875;5.83999998525542;585;100 mA
13.9073039648874;0.300567626953125;0.00102294921875;5.84999998523017;586;100 mA
13.9173039648622;0.3004150390625;0.0010638427734375;5.85999998520492;587;100 mA
13.9273039648369;0.300384521484375;0.001090087890625;5.86999998517967;588;100 mA
13.9373039648117;0.30047607421875;0.0010308837890625;5.87999998515443;589;100 mA
13.9473039647864;0.300567626953125;0.001083984375;5.88999998512918;590;100 mA
13.9573039647612;0.3004150390625;0.0010723876953125;5.89999998510393;591;100 mA
13.9673039647359;0.30047607421875;0.00103546142578125;5.90999998507868;592;100 mA
13.9773039647107;0.300506591796875;0.0011090087890625;5.91999998505344;593;100 mA
13.9873039646855;0.3004150390625;0.0010601806640625;5.92999998502819;594;100 mA
13.9973039646602;0.3004150390625;0.00107452392578125;5.93999998500294;595;100 mA
14.007303964635;0.300537109375;0.001112060546875;5.94999998497769;596;100 mA
14.0173039646097;0.300567626953125;0.00105743408203125;5.95999998495245;597;100 mA
14.0273039645845;0.300537109375;0.0011077880859375;5.9699999849272;598;100 mA
14.0373039645592;0.3006591796875;0.00108367919921875;5.97999998490195;599;100 mA
14.047303964534;0.300689697265625;0.00105072021484375;5.9899999848767;600;100 mA
14.0573039645087;0.300537109375;0.0011346435546875;5.99999998485146;601;100 mA
14.0673039644835;0.300506591796875;0.00107666015625;6.00999998482621;602;100 mA
14.0773039644582;0.300537109375;0.00109375;6.01999998480096;603;100 mA
14.087303964433;0.300384521484375;0.001162109375;6.02999998477571;604;100 mA
14.0973039644077;0.30047607421875;0.0010711669921875;6.03999998475047;605;100 mA
14.1073039643825;0.300506591796875;0.00113311767578125;6.04999998472522;606;100 mA
14.1173039643572;0.300445556640625;0.0011126708984375;6.05999998469997;607;100 mA
14.127303964332;0.30047607421875;0.001051025390625;6.06999998467472;608;100 mA
14.1373039643067;0.300506591796875;0.00113555908203125;6.07999998464948;609;100 mA
14.1473039642815;0.3004150390625;0.00108184814453125;6.08999998462423;610;100 mA
14.1573039642562;0.30035400390625;0.0010968017578125;6.09999998459898;611;100 mA
14.167303964231;0.30047607421875;0.00113189697265625;6.10999998457373;612;100 mA
14.1773039642057;0.300567626953125;0.001048583984375;6.11999998454849;613;100 mA
14.1873039641805;0.300506591796875;0.0011126708984375;6.12999998452324;614;100 mA
14.1973039641553;0.30059814453125;0.0010791015625;6.13999998449799;615;100 mA
14.20730396413;0.30072021484375;0.00103790283203125;6.14999998447274;616;100 mA
14.2173039641048;0.30059814453125;0.001112060546875;6.1599999844475;617;100 mA
14.2273039640795;0.300537109375;0.00104278564453125;6.16999998442225;618;100 mA
14.2373039640543;0.300506591796875;0.0010894775390625;6.179999984397;619;100 mA
14.247303964029;0.300537109375;0.0011138916015625;6.18999998437175;620;100 mA
14.2573039640038;0.30047607421875;0.00104827880859375;6.1999999843465;621;100 mA
14.2673039639785;0.300506591796875;0.0011212158203125;6.20999998432126;622;100 mA
14.2773039639533;0.300567626953125;0.0010736083984375;6.21999998429601;623;100 mA
14.287303963928;0.300445556640625;0.0010272216796875;6.22999998427076;624;100 mA
14.2973039639028;0.300537109375;0.00109832763671875;6.23999998424551;625;100 mA
14.3073039638775;0.3004150390625;0.001043701171875;6.24999998422027;626;100 mA
14.3173039638523;0.300384521484375;0.00108001708984375;6.25999998419502;627;100 mA
14.327303963827;0.3004150390625;0.0011053466796875;6.26999998416977;628;100 mA
14.3373039638018;0.300537109375;0.0010443115234375;6.27999998414452;629;100 mA
14.3473039637765;0.300445556640625;0.00109771728515625;6.28999998411928;630;100 mA
14.3573039637513;0.300537109375;0.0010894775390625;6.29999998409403;631;100 mA
14.367303963726;0.3006591796875;0.00103546142578125;6.30999998406878;632;100 mA
14.3773039637008;0.300537109375;0.00111328125;6.31999998404353;633;100 mA
14.3873039636755;0.300506591796875;0.0010601806640625;6.32999998401829;634;100 mA
14.3973039636503;0.300567626953125;0.00106903076171875;6.33999998399304;635;100 mA
14.4073039636251;0.300567626953125;0.00111175537109375;6.34999998396779;636;100 mA
14.4173039635998;0.300506591796875;0.00106109619140625;6.35999998394254;637;100 mA
14.4273039635746;0.3006591796875;0.0010894775390625;6.3699999839173;638;100 mA
14.4373039635493;0.300628662109375;0.00107818603515625;6.37999998389205;639;100 mA
14.4473039635241;0.300506591796875;0.00102752685546875;6.3899999838668;640;100 mA
14.4573039634988;0.300506591796875;0.0011285400390625;6.39999998384155;641;100 mA
14.4673039634736;0.300537109375;0.0010595703125;6.40999998381631;642;100 mA
14.4773039634483;0.300384521484375;0.0010791015625;6.41999998379106;643;100 mA
14.4873039634231;0.3004150390625;0.00114013671875;6.42999998376581;644;100 mA
14.4973039633978;0.300506591796875;0.00104156494140625;6.43999998374056;645;100 mA
14.5073039633726;0.3004150390625;0.0011138916015625;6.44999998371532;646;100 mA
14.5173039633473;0.300537109375;0.00108489990234375;6.45999998369007;647;100 mA
14.5273039633221;0.30059814453125;0.00103790283203125;6.46999998366482;648;100 mA
14.5373039632968;0.300628662109375;0.0011297607421875;6.47999998363957;649;100 mA
14.5473039632716;0.3004150390625;0.0010443115234375;6.48999998361433;650;100 mA
14.5573039632463;0.300506591796875;0.00109161376953125;6.49999998358908;651;100 mA
14.5673039632211;0.300567626953125;0.0011346435546875;6.50999998356383;652;100 mA
14.5773039631958;0.300537109375;0.00102294921875;6.51999998353858;653;100 mA
14.5873039631706;0.3006591796875;0.001123046875;6.52999998351333;654;100 mA
14.5973039631454;0.300689697265625;0.00105499267578125;6.53999998348809;655;100 mA
14.6073039631201;0.300506591796875;0.00101593017578125;6.54999998346284;656;100 mA
14.6173039630949;0.300506591796875;0.001109619140625;6.55999998343759;657;100 mA
14.6273039630696;0.30047607421875;0.00103057861328125;6.56999998341234;658;100 mA
14.6373039630444;0.30047607421875;0.00106048583984375;6.5799999833871;659;100 mA
14.6473039630191;0.30035400390625;0.00109527587890625;6.58999998336185;660;100 mA
14.6573039629939;0.300445556640625;0.001026611328125;6.5999999833366;661;100 mA
14.6673039629686;0.3004150390625;0.00111175537109375;6.60999998331135;662;100 mA
14.6773039629434;0.300506591796875;0.001046142578125;6.61999998328611;663;100 mA
14.6873039629181;0.30059814453125;0.0010198974609375;6.62999998326086;664;100 mA
14.6973039628929;0.30059814453125;0.00109588623046875;6.63999998323561;665;100 mA
14.7073039628676;0.300384521484375;0.001021728515625;6.64999998321036;666;100 mA
14.7173039628424;0.30047607421875;0.00106353759765625;6.65999998318512;667;100 mA
14.7273039628171;0.30059814453125;0.001077880859375;6.66999998315987;668;100 mA
14.7373039627919;0.300506591796875;0.0010107421875;6.67999998313462;669;100 mA
14.7473039627666;0.30059814453125;0.00107269287109375;6.68999998310937;670;100 mA
14.7573039627414;0.3006591796875;0.00104827880859375;6.69999998308413;671;100 mA
14.7673039627161;0.300628662109375;0.0010040283203125;6.70999998305888;672;100 mA
14.7773039626909;0.300537109375;0.00109161376953125;6.71999998303363;673;100 mA
14.7873039626656;0.300537109375;0.00100921630859375;6.72999998300838;674;100 mA
14.7973039626404;0.30047607421875;0.00104888916015625;6.73999998298314;675;100 mA
14.8073039626152;0.300384521484375;0.00108795166015625;6.74999998295789;676;100 mA
14.8173039625899;0.300445556640625;0.00102447509765625;6.75999998293264;677;100 mA
14.8273039625647;0.30047607421875;0.00107452392578125;6.76999998290739;678;100 mA
14.8373039625394;0.300445556640625;0.0010552978515625;6.77999998288215;679;100 mA
14.8473039625142;0.300445556640625;0.001009521484375;6.7899999828569;680;100 mA
14.8573039624889;0.300506591796875;0.00109405517578125;6.79999998283165;681;100 mA
14.8673039624637;0.30047607421875;0.00103607177734375;6.8099999828064;682;100 mA
14.8773039624384;0.300445556640625;0.001058349609375;6.81999998278116;683;100 mA
14.8873039624132;0.300567626953125;0.00111419677734375;6.82999998275591;684;100 mA
14.8973039623879;0.300567626953125;0.0009967041015625;6.83999998273066;685;100 mA
14.9073039623627;0.300537109375;0.00106292724609375;6.84999998270541;686;100 mA
14.9173039623374;0.3006591796875;0.00103759765625;6.85999998268016;687;100 mA
14.9273039623122;0.300628662109375;0.00098602294921875;6.86999998265492;688;100 mA
14.9373039622869;0.30047607421875;0.00108367919921875;6.87999998262967;689;100 mA
14.9473039622617;0.300537109375;0.00100860595703125;6.88999998260442;690;100 mA
14.9573039622364;0.30047607421875;0.0010400390625;6.89999998257917;691;100 mA
14.9673039622112;0.300445556640625;0.00108062744140625;6.90999998255393;692;100 mA
14.9773039621859;0.3004150390625;0.0009991455078125;6.91999998252868;693;100 mA
14.9873039621607;0.300537109375;0.00107330322265625;6.92999998250343;694;100 mA
14.9973039621354;0.300506591796875;0.001029052734375;6.93999998247818;695;100 mA
15.0073039621102;0.300445556640625;0.000991210937500001;6.94999998245294;696;100 mA
15.017303962085;0.300506591796875;0.00108489990234375;6.95999998242769;697;100 mA
15.0273039620597;0.3004150390625;0.00100830078125;6.96999998240244;698;100 mA
15.0373039620345;0.300384521484375;0.0010394287109375;6.97999998237719;699;100 mA
15.0473039620092;0.300506591796875;0.00107757568359375;6.98999998235195;700;100 mA
