Time (s);WE(1).Potential (V);WE(1).Current (A);Corrected time (s);Index;Current range
15.5465179607488;0.203460693359375;-0.0016876220703125;0;1;100 mA
15.5565179607236;0.20050048828125;-0.000487060546875;0.00999999997475243;2;100 mA
15.5665179606983;0.2005615234375;-5.645751953125E-05;0.0199999999495049;3;100 mA
15.5765179606731;0.20050048828125;0.00011016845703125;0.0299999999242573;4;100 mA
15.5865179606478;0.20062255859375;0.0001971435546875;0.0399999998990097;5;100 mA
15.5965179606226;0.20062255859375;0.000390625;0.0499999998737621;6;100 mA
15.6065179605973;0.20050048828125;0.00036956787109375;0.0599999998485146;7;100 mA
15.6165179605721;0.20062255859375;0.0004840087890625;0.069999999823267;8;100 mA
15.6265179605468;0.2005615234375;0.000559387207031251;0.0799999997980194;9;100 mA
15.6365179605216;0.200469970703125;0.00050811767578125;0.0899999997727718;10;100 mA
15.6465179604963;0.200592041015625;0.000633544921875;0.0999999997475243;11;100 mA
15.6565179604711;0.200653076171875;0.000604248046875;0.109999999722277;12;100 mA
15.6665179604458;0.200469970703125;0.00060699462890625;0.119999999697029;13;100 mA
15.6765179604206;0.20050048828125;0.000704040527343749;0.129999999671782;14;100 mA
15.6865179603953;0.200469970703125;0.000618591308593749;0.139999999646534;15;100 mA
15.6965179603701;0.20050048828125;0.00071136474609375;0.149999999621286;16;100 mA
15.7065179603449;0.20037841796875;0.0007366943359375;0.159999999596039;17;100 mA
15.7165179603196;0.200408935546875;0.000682983398437501;0.169999999570791;18;100 mA
15.7265179602944;0.200531005859375;0.0007891845703125;0.179999999545544;19;100 mA
15.7365179602691;0.200469970703125;0.00074188232421875;0.189999999520296;20;100 mA
15.7465179602439;0.2005615234375;0.00073577880859375;0.199999999495049;21;100 mA
15.7565179602186;0.20062255859375;0.00082244873046875;0.209999999469801;22;100 mA
15.7665179601934;0.20050048828125;0.0007537841796875;0.219999999444553;23;100 mA
15.7765179601681;0.2005615234375;0.000820007324218749;0.229999999419306;24;100 mA
15.7865179601429;0.200592041015625;0.00083465576171875;0.239999999394058;25;100 mA
15.7965179601176;0.2005615234375;0.000771484375000001;0.249999999368811;26;100 mA
15.8065179600924;0.2005615234375;0.00085357666015625;0.259999999343563;27;100 mA
15.8165179600671;0.200653076171875;0.000816650390625;0.269999999318316;28;100 mA
15.8265179600419;0.200531005859375;0.000801696777343749;0.279999999293068;29;100 mA
15.8365179600166;0.200531005859375;0.000855712890625;0.28999999926782;30;100 mA
15.8465179599914;0.20050048828125;0.00080078125;0.299999999242573;31;100 mA
15.8565179599661;0.200469970703125;0.000856628417968749;0.309999999217325;32;100 mA
15.8665179599409;0.200408935546875;0.00086212158203125;0.319999999192078;33;100 mA
15.8765179599156;0.20050048828125;0.000812683105468751;0.32999999916683;34;100 mA
15.8865179598904;0.200531005859375;0.000877685546875;0.339999999141583;35;100 mA
15.8965179598652;0.200469970703125;0.000847778320312501;0.349999999116335;36;100 mA
15.9065179598399;0.20037841796875;0.00082977294921875;0.359999999091087;37;100 mA
15.9165179598147;0.200531005859375;0.00089141845703125;0.36999999906584;38;100 mA
15.9265179597894;0.2005615234375;0.000830993652343751;0.379999999040592;39;100 mA
15.9365179597642;0.200531005859375;0.000859985351562501;0.389999999015345;40;100 mA
15.9465179597389;0.2005615234375;0.000910034179687499;0.399999998990097;41;100 mA
15.9565179597137;0.200592041015625;0.00082916259765625;0.40999999896485;42;100 mA
15.9665179596884;0.200531005859375;0.000942382812500001;0.419999998939602;43;100 mA
15.9765179596632;0.20062255859375;0.000863037109375001;0.429999998914354;44;100 mA
15.9865179596379;0.200592041015625;0.000827941894531251;0.439999998889107;45;100 mA
15.9965179596127;0.2005615234375;0.00091583251953125;0.449999998863859;46;100 mA
16.0065179595874;0.200469970703125;0.000842895507812499;0.459999998838612;47;100 mA
16.0165179595622;0.2005615234375;0.000896301269531249;0.469999998813364;48;100 mA
16.0265179595369;0.20037841796875;0.000932922363281249;0.479999998788116;49;100 mA
16.0365179595117;0.200408935546875;0.0008575439453125;0.489999998762869;50;100 mA
16.0465179594864;0.200531005859375;0.000950012207031251;0.499999998737621;51;100 mA
16.0565179594612;0.200469970703125;0.0008941650390625;0.509999998712374;52;100 mA
16.0665179594359;0.200408935546875;0.0008624267578125;0.519999998687126;53;100 mA
16.0765179594107;0.200531005859375;0.000949707031249999;0.529999998661879;54;100 mA
16.0865179593854;0.2005615234375;0.00085601806640625;0.539999998636631;55;100 mA
16.0965179593602;0.200439453125;0.000924072265625001;0.549999998611383;56;100 mA
16.106517959335;0.20050048828125;0.000940856933593751;0.559999998586136;57;100 mA
16.1165179593097;0.200531005859375;0.00087249755859375;0.569999998560888;58;100 mA
16.1265179592845;0.200531005859375;0.00096923828125;0.579999998535641;59;100 mA
16.1365179592592;0.2005615234375;0.00089752197265625;0.589999998510393;60;100 mA
16.146517959234;0.200653076171875;0.000889892578125;0.599999998485146;61;100 mA
16.1565179592087;0.200531005859375;0.000969848632812501;0.609999998459898;62;100 mA
16.1665179591835;0.200408935546875;0.000875244140625001;0.61999999843465;63;100 mA
16.1765179591582;0.200592041015625;0.000960693359375001;0.629999998409403;64;100 mA
16.186517959133;0.200531005859375;0.000938720703125;0.639999998384155;65;100 mA
16.1965179591077;0.200439453125;0.000884399414062501;0.649999998358908;66;100 mA
16.2065179590825;0.200592041015625;0.000964965820312499;0.65999999833366;67;100 mA
16.2165179590572;0.20062255859375;0.00091400146484375;0.669999998308413;68;100 mA
16.226517959032;0.200439453125;0.00091064453125;0.679999998283165;69;100 mA
16.2365179590067;0.200531005859375;0.00097381591796875;0.689999998257917;70;100 mA
16.2465179589815;0.200531005859375;0.00089935302734375;0.69999999823267;71;100 mA
16.2565179589562;0.200439453125;0.000963134765625;0.709999998207422;72;100 mA
16.266517958931;0.20037841796875;0.000971374511718751;0.719999998182175;73;100 mA
16.2765179589057;0.2005615234375;0.00089752197265625;0.729999998156927;74;100 mA
16.2865179588805;0.200592041015625;0.00096160888671875;0.73999999813168;75;100 mA
16.2965179588552;0.200531005859375;0.000919189453124999;0.749999998106432;76;100 mA
16.30651795883;0.200653076171875;0.0009014892578125;0.759999998081184;77;100 mA
16.3165179588048;0.200592041015625;0.000956115722656251;0.769999998055937;78;100 mA
16.3265179587795;0.200439453125;0.0008990478515625;0.779999998030689;79;100 mA
16.3365179587543;0.20062255859375;0.0009320068359375;0.789999998005442;80;100 mA
16.346517958729;0.200592041015625;0.000964965820312499;0.799999997980194;81;100 mA
16.3565179587038;0.200469970703125;0.0008917236328125;0.809999997954947;82;100 mA
16.3665179586785;0.200531005859375;0.0009814453125;0.819999997929699;83;100 mA
16.3765179586533;0.2005615234375;0.000939331054687501;0.829999997904451;84;100 mA
16.386517958628;0.200439453125;0.000899658203125001;0.839999997879204;85;100 mA
16.3965179586028;0.200531005859375;0.00100982666015625;0.849999997853956;86;100 mA
16.4065179585775;0.200531005859375;0.0008990478515625;0.859999997828709;87;100 mA
16.4165179585523;0.200408935546875;0.0009600830078125;0.869999997803461;88;100 mA
16.426517958527;0.20037841796875;0.000989990234375;0.879999997778214;89;100 mA
16.4365179585018;0.200408935546875;0.00091217041015625;0.889999997752966;90;100 mA
16.4465179584765;0.2005615234375;0.000997314453125001;0.899999997727718;91;100 mA
16.4565179584513;0.200531005859375;0.00094451904296875;0.909999997702471;92;100 mA
16.466517958426;0.2005615234375;0.000925598144531251;0.919999997677223;93;100 mA
16.4765179584008;0.2005615234375;0.0010333251953125;0.929999997651976;94;100 mA
16.4865179583755;0.200531005859375;0.0009112548828125;0.939999997626728;95;100 mA
16.4965179583503;0.20062255859375;0.000980224609374999;0.949999997601481;96;100 mA
16.506517958325;0.20062255859375;0.0010028076171875;0.959999997576233;97;100 mA
16.5165179582998;0.20050048828125;0.00091461181640625;0.969999997550985;98;100 mA
16.5265179582746;0.2005615234375;0.001005859375;0.979999997525738;99;100 mA
16.5365179582493;0.200592041015625;0.000945434570312501;0.98999999750049;100;100 mA
16.5465179582241;0.200469970703125;0.000942382812500001;0.999999997475243;101;100 mA
16.5565179581988;0.200531005859375;0.00100341796875;1.00999999745;102;100 mA
16.5665179581736;0.200439453125;0.00092041015625;1.01999999742475;103;100 mA
16.5765179581483;0.200408935546875;0.000983581542968751;1.0299999973995;104;100 mA
16.5865179581231;0.2003173828125;0.00098388671875;1.03999999737425;105;100 mA
16.5965179580978;0.200408935546875;0.000924072265625001;1.049999997349;106;100 mA
16.6065179580726;0.20062255859375;0.001014404296875;1.05999999732376;107;100 mA
16.6165179580473;0.200439453125;0.000941162109375;1.06999999729851;108;100 mA
16.6265179580221;0.200469970703125;0.000936279296875001;1.07999999727326;109;100 mA
16.6365179579968;0.2005615234375;0.0010003662109375;1.08999999724801;110;100 mA
16.6465179579716;0.200531005859375;0.000923767089843749;1.09999999722277;111;100 mA
16.6565179579463;0.20050048828125;0.0009796142578125;1.10999999719752;112;100 mA
16.6665179579211;0.200531005859375;0.00098419189453125;1.11999999717227;113;100 mA
16.6765179578958;0.20062255859375;0.000928955078125;1.12999999714702;114;100 mA
16.6865179578706;0.200531005859375;0.0010150146484375;1.13999999712178;115;100 mA
16.6965179578453;0.20062255859375;0.000943603515625;1.14999999709653;116;100 mA
16.7065179578201;0.20062255859375;0.00093597412109375;1.15999999707128;117;100 mA
16.7165179577948;0.20050048828125;0.001009521484375;1.16999999704603;118;100 mA
16.7265179577696;0.200408935546875;0.000936279296875001;1.17999999702079;119;100 mA
16.7365179577444;0.20050048828125;0.00097015380859375;1.18999999699554;120;100 mA
16.7465179577191;0.20037841796875;0.0010015869140625;1.19999999697029;121;100 mA
16.7565179576939;0.200439453125;0.0009381103515625;1.20999999694504;122;100 mA
16.7665179576686;0.2005615234375;0.0010137939453125;1.2199999969198;123;100 mA
16.7765179576434;0.200469970703125;0.000977478027343751;1.22999999689455;124;100 mA
16.7865179576181;0.200469970703125;0.00094512939453125;1.2399999968693;125;100 mA
16.7965179575929;0.2005615234375;0.00102752685546875;1.24999999684405;126;100 mA
16.8065179575676;0.2005615234375;0.0009552001953125;1.25999999681881;127;100 mA
16.8165179575424;0.200408935546875;0.001019287109375;1.26999999679356;128;100 mA
16.8265179575171;0.200592041015625;0.0010504150390625;1.27999999676831;129;100 mA
16.8365179574919;0.200592041015625;0.000955810546874999;1.28999999674306;130;100 mA
16.8465179574666;0.200531005859375;0.00104766845703125;1.29999999671782;131;100 mA
16.8565179574414;0.20062255859375;0.0009918212890625;1.30999999669257;132;100 mA
16.8665179574161;0.20074462890625;0.0009674072265625;1.31999999666732;133;100 mA
16.8765179573909;0.200531005859375;0.001046142578125;1.32999999664207;134;100 mA
16.8865179573656;0.20050048828125;0.0009765625;1.33999999661683;135;100 mA
16.8965179573404;0.2005615234375;0.001002197265625;1.34999999659158;136;100 mA
16.9065179573151;0.200469970703125;0.00102935791015625;1.35999999656633;137;100 mA
16.9165179572899;0.200439453125;0.000946960449218751;1.36999999654108;138;100 mA
16.9265179572647;0.200592041015625;0.00103759765625;1.37999999651583;139;100 mA
16.9365179572394;0.20050048828125;0.0009722900390625;1.38999999649059;140;100 mA
16.9465179572142;0.200347900390625;0.00095947265625;1.39999999646534;141;100 mA
16.9565179571889;0.20050048828125;0.0010400390625;1.40999999644009;142;100 mA
16.9665179571637;0.200531005859375;0.000943603515625;1.41999999641484;143;100 mA
16.9765179571384;0.20037841796875;0.001015625;1.4299999963896;144;100 mA
16.9865179571132;0.20050048828125;0.00101593017578125;1.43999999636435;145;100 mA
16.9965179570879;0.2005615234375;0.0009521484375;1.4499999963391;146;100 mA
17.0065179570627;0.200592041015625;0.0010235595703125;1.45999999631385;147;100 mA
17.0165179570374;0.20050048828125;0.000977478027343751;1.46999999628861;148;100 mA
17.0265179570122;0.200653076171875;0.00095703125;1.47999999626336;149;100 mA
17.0365179569869;0.2005615234375;0.0010491943359375;1.48999999623811;150;100 mA
17.0465179569617;0.200469970703125;0.000940551757812499;1.49999999621286;151;100 mA
17.0565179569364;0.200653076171875;0.00099151611328125;1.50999999618762;152;100 mA
17.0665179569112;0.200531005859375;0.00100250244140625;1.51999999616237;153;100 mA
17.0765179568859;0.20050048828125;0.00094635009765625;1.52999999613712;154;100 mA
17.0865179568607;0.200592041015625;0.00099609375;1.53999999611187;155;100 mA
17.0965179568354;0.2005615234375;0.0009686279296875;1.54999999608663;156;100 mA
17.1065179568102;0.200439453125;0.000938720703125;1.55999999606138;157;100 mA
17.1165179567849;0.200531005859375;0.00101104736328125;1.56999999603613;158;100 mA
17.1265179567597;0.200531005859375;0.00094879150390625;1.57999999601088;159;100 mA
17.1365179567345;0.20037841796875;0.000994262695312501;1.58999999598564;160;100 mA
17.1465179567092;0.20037841796875;0.0010107421875;1.59999999596039;161;100 mA
17.156517956684;0.2005615234375;0.000933227539062501;1.60999999593514;162;100 mA
17.1665179566587;0.20062255859375;0.001002197265625;1.61999999590989;163;100 mA
17.1765179566335;0.2005615234375;0.0009765625;1.62999999588465;164;100 mA
17.1865179566082;0.20062255859375;0.000932922363281249;1.6399999958594;165;100 mA
17.196517956583;0.2005615234375;0.0010198974609375;1.64999999583415;166;100 mA
17.2065179565577;0.20050048828125;0.00094757080078125;1.6599999958089;167;100 mA
17.2165179565325;0.20062255859375;0.000989990234375;1.66999999578366;168;100 mA
17.2265179565072;0.200531005859375;0.00102203369140625;1.67999999575841;169;100 mA
17.236517956482;0.20050048828125;0.0009356689453125;1.68999999573316;170;100 mA
17.2465179564567;0.20050048828125;0.00102691650390625;1.69999999570791;171;100 mA
17.2565179564315;0.200653076171875;0.000965270996093751;1.70999999568267;172;100 mA
17.2665179564062;0.20050048828125;0.000943603515625;1.71999999565742;173;100 mA
17.276517956381;0.200469970703125;0.00102630615234375;1.72999999563217;174;100 mA
17.2865179563557;0.200439453125;0.0009307861328125;1.73999999560692;175;100 mA
17.2965179563305;0.200439453125;0.00100067138671875;1.74999999558167;176;100 mA
17.3065179563052;0.20037841796875;0.00100677490234375;1.75999999555643;177;100 mA
17.31651795628;0.200469970703125;0.00093231201171875;1.76999999553118;178;100 mA
17.3265179562547;0.200592041015625;0.00102142333984375;1.77999999550593;179;100 mA
17.3365179562295;0.20037841796875;0.000963134765625;1.78999999548068;180;100 mA
17.3465179562043;0.200531005859375;0.0009503173828125;1.79999999545544;181;100 mA
17.356517956179;0.200592041015625;0.001021728515625;1.80999999543019;182;100 mA
17.3665179561538;0.200531005859375;0.000933227539062501;1.81999999540494;183;100 mA
17.3765179561285;0.200469970703125;0.00099609375;1.82999999537969;184;100 mA
17.3865179561033;0.2005615234375;0.0009930419921875;1.83999999535445;185;100 mA
17.396517956078;0.2005615234375;0.000932922363281249;1.8499999953292;186;100 mA
17.4065179560528;0.200592041015625;0.00101409912109375;1.85999999530395;187;100 mA
17.4165179560275;0.2005615234375;0.00096435546875;1.8699999952787;188;100 mA
17.4265179560023;0.200592041015625;0.000951538085937501;1.87999999525346;189;100 mA
17.436517955977;0.20050048828125;0.0010272216796875;1.88999999522821;190;100 mA
17.4465179559518;0.200408935546875;0.0009490966796875;1.89999999520296;191;100 mA
17.4565179559265;0.200439453125;0.00099639892578125;1.90999999517771;192;100 mA
17.4665179559013;0.200347900390625;0.0010089111328125;1.91999999515247;193;100 mA
17.476517955876;0.200439453125;0.000943603515625;1.92999999512722;194;100 mA
17.4865179558508;0.2005615234375;0.00100616455078125;1.93999999510197;195;100 mA
17.4965179558255;0.2005615234375;0.000953369140625;1.94999999507672;196;100 mA
17.5065179558003;0.200439453125;0.000940551757812499;1.95999999505148;197;100 mA
17.516517955775;0.2005615234375;0.00100189208984375;1.96999999502623;198;100 mA
17.5265179557498;0.200531005859375;0.00093353271484375;1.97999999500098;199;100 mA
17.5365179557245;0.200408935546875;0.00097076416015625;1.98999999497573;200;100 mA
17.5465179556993;0.200469970703125;0.001004638671875;1.99999999495049;201;100 mA
17.5565179556741;0.20062255859375;0.00092193603515625;2.00999999492524;202;100 mA
17.5665179556488;0.200592041015625;0.00098846435546875;2.01999999489999;203;100 mA
17.5765179556236;0.2005615234375;0.00095703125;2.02999999487474;204;100 mA
17.5865179555983;0.200592041015625;0.000927124023437501;2.0399999948495;205;100 mA
17.5965179555731;0.200531005859375;0.00100677490234375;2.04999999482425;206;100 mA
17.6065179555478;0.200439453125;0.00093658447265625;2.059999994799;207;100 mA
17.6165179555226;0.200531005859375;0.00098724365234375;2.06999999477375;208;100 mA
17.6265179554973;0.20050048828125;0.00101593017578125;2.0799999947485;209;100 mA
17.6365179554721;0.200439453125;0.00094329833984375;2.08999999472326;210;100 mA
17.6465179554468;0.2005615234375;0.0010406494140625;2.09999999469801;211;100 mA
17.6565179554216;0.20050048828125;0.0009783935546875;2.10999999467276;212;100 mA
17.6665179553963;0.20037841796875;0.000950927734375;2.11999999464751;213;100 mA
17.6765179553711;0.200531005859375;0.00105743408203125;2.12999999462227;214;100 mA
17.6865179553458;0.20050048828125;0.0009527587890625;2.13999999459702;215;100 mA
17.6965179553206;0.20037841796875;0.00101776123046875;2.14999999457177;216;100 mA
17.7065179552953;0.20050048828125;0.00103118896484375;2.15999999454652;217;100 mA
17.7165179552701;0.200653076171875;0.0009539794921875;2.16999999452128;218;100 mA
17.7265179552448;0.2005615234375;0.00103790283203125;2.17999999449603;219;100 mA
17.7365179552196;0.2005615234375;0.0009832763671875;2.18999999447078;220;100 mA
17.7465179551943;0.20062255859375;0.00097076416015625;2.19999999444553;221;100 mA
17.7565179551691;0.200592041015625;0.00103851318359375;2.20999999442029;222;100 mA
17.7665179551439;0.20050048828125;0.000953063964843751;2.21999999439504;223;100 mA
17.7765179551186;0.200592041015625;0.00102020263671875;2.22999999436979;224;100 mA
17.7865179550934;0.200531005859375;0.001011962890625;2.23999999434454;225;100 mA
17.7965179550681;0.200531005859375;0.000957641601562501;2.2499999943193;226;100 mA
17.8065179550429;0.200592041015625;0.00104400634765625;2.25999999429405;227;100 mA
17.8165179550176;0.200531005859375;0.00096923828125;2.2699999942688;228;100 mA
17.8265179549924;0.20037841796875;0.000987854003906249;2.27999999424355;229;100 mA
17.8365179549671;0.200531005859375;0.0010369873046875;2.28999999421831;230;100 mA
17.8465179549419;0.200408935546875;0.00097412109375;2.29999999419306;231;100 mA
17.8565179549166;0.200408935546875;0.00102264404296875;2.30999999416781;232;100 mA
17.8665179548914;0.200347900390625;0.00103607177734375;2.31999999414256;233;100 mA
17.8765179548661;0.200592041015625;0.00096923828125;2.32999999411732;234;100 mA
17.8865179548409;0.20062255859375;0.00103240966796875;2.33999999409207;235;100 mA
17.8965179548156;0.20050048828125;0.00099029541015625;2.34999999406682;236;100 mA
17.9065179547904;0.2005615234375;0.0009716796875;2.35999999404157;237;100 mA
17.9165179547651;0.2005615234375;0.0010394287109375;2.36999999401633;238;100 mA
17.9265179547399;0.200469970703125;0.00099090576171875;2.37999999399108;239;100 mA
17.9365179547146;0.200531005859375;0.00102386474609375;2.38999999396583;240;100 mA
17.9465179546894;0.200531005859375;0.00105438232421875;2.39999999394058;241;100 mA
17.9565179546642;0.20050048828125;0.000974426269531251;2.40999999391533;242;100 mA
17.9665179546389;0.200592041015625;0.0010369873046875;2.41999999389009;243;100 mA
17.9765179546137;0.200592041015625;0.0010125732421875;2.42999999386484;244;100 mA
17.9865179545884;0.200592041015625;0.0009661865234375;2.43999999383959;245;100 mA
17.9965179545632;0.20050048828125;0.00105560302734375;2.44999999381434;246;100 mA
18.0065179545379;0.200439453125;0.000975952148437501;2.4599999937891;247;100 mA
18.0165179545127;0.200469970703125;0.00102264404296875;2.46999999376385;248;100 mA
18.0265179544874;0.20037841796875;0.00106048583984375;2.4799999937386;249;100 mA
18.0365179544622;0.200439453125;0.000965270996093751;2.48999999371335;250;100 mA
18.0465179544369;0.200592041015625;0.00104888916015625;2.49999999368811;251;100 mA
18.0565179544117;0.200469970703125;0.00099365234375;2.50999999366286;252;100 mA
18.0665179543864;0.2005615234375;0.00096649169921875;2.51999999363761;253;100 mA
18.0765179543612;0.200531005859375;0.00105682373046875;2.52999999361236;254;100 mA
18.0865179543359;0.200469970703125;0.00098114013671875;2.53999999358712;255;100 mA
18.0965179543107;0.200531005859375;0.0010107421875;2.54999999356187;256;100 mA
18.1065179542854;0.2005615234375;0.00104034423828125;2.55999999353662;257;100 mA
18.1165179542602;0.2005615234375;0.00094635009765625;2.56999999351137;258;100 mA
18.1265179542349;0.2005615234375;0.00103546142578125;2.57999999348613;259;100 mA
18.1365179542097;0.2005615234375;0.000983581542968751;2.58999999346088;260;100 mA
18.1465179541844;0.200592041015625;0.00096038818359375;2.59999999343563;261;100 mA
18.1565179541592;0.200531005859375;0.0010382080078125;2.60999999341038;262;100 mA
18.166517954134;0.200439453125;0.000980224609374999;2.61999999338514;263;100 mA
18.1765179541087;0.20050048828125;0.00103302001953125;2.62999999335989;264;100 mA
18.1865179540835;0.200347900390625;0.00101318359375;2.63999999333464;265;100 mA
18.1965179540582;0.200408935546875;0.000953063964843751;2.64999999330939;266;100 mA
18.206517954033;0.200592041015625;0.001038818359375;2.65999999328415;267;100 mA
18.2165179540077;0.200469970703125;0.0009844970703125;2.6699999932589;268;100 mA
18.2265179539825;0.200439453125;0.00096588134765625;2.67999999323365;269;100 mA
18.2365179539572;0.200439453125;0.00103607177734375;2.6899999932084;270;100 mA
18.246517953932;0.200469970703125;0.000957641601562501;2.69999999318316;271;100 mA
18.2565179539067;0.20037841796875;0.00101806640625;2.70999999315791;272;100 mA
18.2665179538815;0.2005615234375;0.00100830078125;2.71999999313266;273;100 mA
18.2765179538562;0.200592041015625;0.000953063964843751;2.72999999310741;274;100 mA
18.286517953831;0.2005615234375;0.0010101318359375;2.73999999308217;275;100 mA
18.2965179538057;0.200592041015625;0.0009674072265625;2.74999999305692;276;100 mA
18.3065179537805;0.200714111328125;0.000943603515625;2.75999999303167;277;100 mA
18.3165179537552;0.20050048828125;0.00102081298828125;2.76999999300642;278;100 mA
18.32651795373;0.200408935546875;0.00095703125;2.77999999298117;279;100 mA
18.3365179537047;0.20050048828125;0.00100738525390625;2.78999999295593;280;100 mA
18.3465179536795;0.200439453125;0.001021728515625;2.79999999293068;281;100 mA
18.3565179536542;0.20050048828125;0.000954284667968749;2.80999999290543;282;100 mA
18.366517953629;0.200653076171875;0.0010125732421875;2.81999999288018;283;100 mA
18.3765179536038;0.2005615234375;0.00100128173828125;2.82999999285494;284;100 mA
18.3865179535785;0.200469970703125;0.00094635009765625;2.83999999282969;285;100 mA
18.3965179535533;0.200531005859375;0.0010296630859375;2.84999999280444;286;100 mA
18.406517953528;0.200531005859375;0.000953369140625;2.85999999277919;287;100 mA
18.4165179535028;0.20037841796875;0.000997314453125001;2.86999999275395;288;100 mA
18.4265179534775;0.20050048828125;0.00102447509765625;2.8799999927287;289;100 mA
18.4365179534523;0.2005615234375;0.0009600830078125;2.88999999270345;290;100 mA
18.446517953427;0.2005615234375;0.001005859375;2.8999999926782;291;100 mA
18.4565179534018;0.20062255859375;0.00096771240234375;2.90999999265296;292;100 mA
18.4665179533765;0.200714111328125;0.000936279296875001;2.91999999262771;293;100 mA
18.4765179533513;0.200531005859375;0.0010382080078125;2.92999999260246;294;100 mA
18.486517953326;0.20050048828125;0.00093536376953125;2.93999999257721;295;100 mA
18.4965179533008;0.200592041015625;0.000994873046875;2.94999999255197;296;100 mA
18.5065179532755;0.200592041015625;0.00101898193359375;2.95999999252672;297;100 mA
18.5165179532503;0.200531005859375;0.000939331054687501;2.96999999250147;298;100 mA
18.526517953225;0.200653076171875;0.00101531982421875;2.97999999247622;299;100 mA
18.5365179531998;0.20050048828125;0.00098419189453125;2.98999999245098;300;100 mA
18.5465179531745;0.200439453125;0.0009600830078125;2.99999999242573;301;100 mA
18.5565179531493;0.200469970703125;0.00104827880859375;3.00999999240048;302;100 mA
18.566517953124;0.200469970703125;0.0009613037109375;3.01999999237523;303;100 mA
18.5765179530988;0.200408935546875;0.001025390625;3.02999999234999;304;100 mA
18.5865179530736;0.200408935546875;0.001029052734375;3.03999999232474;305;100 mA
18.5965179530483;0.20050048828125;0.00096038818359375;3.04999999229949;306;100 mA
18.6065179530231;0.20062255859375;0.00103607177734375;3.05999999227424;307;100 mA
18.6165179529978;0.20050048828125;0.000979003906250001;3.069999992249;308;100 mA
18.6265179529726;0.200653076171875;0.00097076416015625;3.07999999222375;309;100 mA
18.6365179529473;0.2005615234375;0.0010546875;3.0899999921985;310;100 mA
18.6465179529221;0.200439453125;0.000968322753906251;3.09999999217325;311;100 mA
18.6565179528968;0.2005615234375;0.0010223388671875;3.109999992148;312;100 mA
18.6665179528716;0.200592041015625;0.00104156494140625;3.11999999212276;313;100 mA
18.6765179528463;0.200531005859375;0.00097564697265625;3.12999999209751;314;100 mA
18.6865179528211;0.200592041015625;0.00105133056640625;3.13999999207226;315;100 mA
18.6965179527958;0.200592041015625;0.000971069335937499;3.14999999204701;316;100 mA
18.7065179527706;0.200531005859375;0.00096405029296875;3.15999999202177;317;100 mA
18.7165179527453;0.20050048828125;0.00103179931640625;3.16999999199652;318;100 mA
18.7265179527201;0.200408935546875;0.00098724365234375;3.17999999197127;319;100 mA
18.7365179526948;0.200439453125;0.00102264404296875;3.18999999194602;320;100 mA
18.7465179526696;0.200347900390625;0.0010552978515625;3.19999999192078;321;100 mA
18.7565179526443;0.200439453125;0.000945434570312501;3.20999999189553;322;100 mA
18.7665179526191;0.200592041015625;0.00100830078125;3.21999999187028;323;100 mA
18.7765179525938;0.200531005859375;0.00098236083984375;3.22999999184503;324;100 mA
18.7865179525686;0.200592041015625;0.000940856933593751;3.23999999181979;325;100 mA
18.7965179525434;0.200531005859375;0.00102508544921875;3.24999999179454;326;100 mA
18.8065179525181;0.20050048828125;0.00095672607421875;3.25999999176929;327;100 mA
18.8165179524929;0.20050048828125;0.0009967041015625;3.26999999174404;328;100 mA
18.8265179524676;0.200592041015625;0.0010162353515625;3.2799999917188;329;100 mA
18.8365179524424;0.2005615234375;0.000940551757812499;3.28999999169355;330;100 mA
18.8465179524171;0.200592041015625;0.001005859375;3.2999999916683;331;100 mA
18.8565179523919;0.200531005859375;0.000970458984375;3.30999999164305;332;100 mA
18.8665179523666;0.20062255859375;0.000946044921875;3.31999999161781;333;100 mA
18.8765179523414;0.200469970703125;0.001044921875;3.32999999159256;334;100 mA
18.8865179523161;0.20037841796875;0.00095062255859375;3.33999999156731;335;100 mA
18.8965179522909;0.2005615234375;0.00100372314453125;3.34999999154206;336;100 mA
18.9065179522656;0.200347900390625;0.0010302734375;3.35999999151682;337;100 mA
18.9165179522404;0.200469970703125;0.000951538085937501;3.36999999149157;338;100 mA
18.9265179522151;0.20062255859375;0.00102691650390625;3.37999999146632;339;100 mA
18.9365179521899;0.200469970703125;0.00098602294921875;3.38999999144107;340;100 mA
18.9465179521646;0.20037841796875;0.000963439941406249;3.39999999141583;341;100 mA
18.9565179521394;0.20050048828125;0.00105072021484375;3.40999999139058;342;100 mA
18.9665179521141;0.20050048828125;0.00094757080078125;3.41999999136533;343;100 mA
18.9765179520889;0.200408935546875;0.00101470947265625;3.42999999134008;344;100 mA
18.9865179520637;0.200531005859375;0.00101959228515625;3.43999999131483;345;100 mA
18.9965179520384;0.200592041015625;0.00094573974609375;3.44999999128959;346;100 mA
19.0065179520132;0.20062255859375;0.00101531982421875;3.45999999126434;347;100 mA
19.0165179519879;0.200592041015625;0.00097381591796875;3.46999999123909;348;100 mA
19.0265179519627;0.200714111328125;0.000958251953125;3.47999999121384;349;100 mA
19.0365179519374;0.20050048828125;0.0010357666015625;3.4899999911886;350;100 mA
19.0465179519122;0.200439453125;0.0009564208984375;3.49999999116335;351;100 mA
19.0565179518869;0.200592041015625;0.00100921630859375;3.5099999911381;352;100 mA
19.0665179518617;0.200531005859375;0.00103118896484375;3.51999999111285;353;100 mA
19.0765179518364;0.200439453125;0.0009564208984375;3.52999999108761;354;100 mA
19.0865179518112;0.200592041015625;0.0010064697265625;3.53999999106236;355;100 mA
19.0965179517859;0.200592041015625;0.000969848632812501;3.54999999103711;356;100 mA
19.1065179517607;0.200469970703125;0.00094940185546875;3.55999999101186;357;100 mA
19.1165179517354;0.200469970703125;0.00101593017578125;3.56999999098662;358;100 mA
19.1265179517102;0.200469970703125;0.00097198486328125;3.57999999096137;359;100 mA
19.1365179516849;0.20037841796875;0.00100128173828125;3.58999999093612;360;100 mA
19.1465179516597;0.200469970703125;0.0010125732421875;3.59999999091087;361;100 mA
19.1565179516344;0.200469970703125;0.000943908691406251;3.60999999088563;362;100 mA
19.1665179516092;0.20062255859375;0.00099822998046875;3.61999999086038;363;100 mA
19.1765179515839;0.200469970703125;0.00098297119140625;3.62999999083513;364;100 mA
19.1865179515587;0.200653076171875;0.000934448242187499;3.63999999080988;365;100 mA
19.1965179515335;0.200531005859375;0.0010186767578125;3.64999999078464;366;100 mA
19.2065179515082;0.20050048828125;0.00094635009765625;3.65999999075939;367;100 mA
19.216517951483;0.20050048828125;0.00099395751953125;3.66999999073414;368;100 mA
19.2265179514577;0.200592041015625;0.00101898193359375;3.67999999070889;369;100 mA
19.2365179514325;0.20050048828125;0.000946044921875;3.68999999068365;370;100 mA
19.2465179514072;0.200653076171875;0.00100799560546875;3.6999999906584;371;100 mA
19.256517951382;0.200592041015625;0.000975952148437501;3.70999999063315;372;100 mA
19.2665179513567;0.20050048828125;0.0009381103515625;3.7199999906079;373;100 mA
19.2765179513315;0.200469970703125;0.0010498046875;3.72999999058266;374;100 mA
19.2865179513062;0.200469970703125;0.000937805175781251;3.73999999055741;375;100 mA
19.296517951281;0.200408935546875;0.00099029541015625;3.74999999053216;376;100 mA
19.3065179512557;0.200439453125;0.001007080078125;3.75999999050691;377;100 mA
19.3165179512305;0.20050048828125;0.00092498779296875;3.76999999048167;378;100 mA
19.3265179512052;0.20062255859375;0.00100677490234375;3.77999999045642;379;100 mA
19.33651795118;0.200469970703125;0.0009613037109375;3.78999999043117;380;100 mA
19.3465179511547;0.20068359375;0.000939025878906249;3.79999999040592;381;100 mA
19.3565179511295;0.2005615234375;0.00101226806640625;3.80999999038067;382;100 mA
19.3665179511042;0.20050048828125;0.00093597412109375;3.81999999035543;383;100 mA
19.376517951079;0.200531005859375;0.00099609375;3.82999999033018;384;100 mA
19.3865179510537;0.200592041015625;0.00100006103515625;3.83999999030493;385;100 mA
19.3965179510285;0.20062255859375;0.00092010498046875;3.84999999027968;386;100 mA
19.4065179510033;0.200592041015625;0.00099639892578125;3.85999999025444;387;100 mA
19.416517950978;0.2005615234375;0.000954589843750001;3.86999999022919;388;100 mA
19.4265179509528;0.200592041015625;0.0009521484375;3.87999999020394;389;100 mA
19.4365179509275;0.200531005859375;0.00101715087890625;3.88999999017869;390;100 mA
19.4465179509023;0.200347900390625;0.00094573974609375;3.89999999015345;391;100 mA
19.456517950877;0.200469970703125;0.00100830078125;3.9099999901282;392;100 mA
19.4665179508518;0.20037841796875;0.00100799560546875;3.91999999010295;393;100 mA
19.4765179508265;0.200408935546875;0.0009539794921875;3.9299999900777;394;100 mA
19.4865179508013;0.20062255859375;0.001007080078125;3.93999999005246;395;100 mA
19.496517950776;0.200469970703125;0.0009600830078125;3.94999999002721;396;100 mA
19.5065179507508;0.20050048828125;0.000948486328125001;3.95999999000196;397;100 mA
19.5165179507255;0.2005615234375;0.001011962890625;3.96999998997671;398;100 mA
19.5265179507003;0.20050048828125;0.000957336425781249;3.97999998995147;399;100 mA
19.536517950675;0.200439453125;0.00099029541015625;3.98999998992622;400;100 mA
19.5465179506498;0.20062255859375;0.0010003662109375;3.99999998990097;401;100 mA
19.5565179506245;0.200592041015625;0.000939331054687501;4.00999998987572;402;100 mA
19.5665179505993;0.200592041015625;0.000997314453125001;4.01999998985048;403;100 mA
19.576517950574;0.200592041015625;0.00096160888671875;4.02999998982523;404;100 mA
19.5865179505488;0.20068359375;0.00093505859375;4.03999998979998;405;100 mA
19.5965179505235;0.200531005859375;0.00101470947265625;4.04999998977473;406;100 mA
19.6065179504983;0.200469970703125;0.0009552001953125;4.05999998974949;407;100 mA
19.6165179504731;0.2005615234375;0.000988159179687501;4.06999998972424;408;100 mA
19.6265179504478;0.200439453125;0.00102630615234375;4.07999998969899;409;100 mA
19.6365179504226;0.200531005859375;0.00094635009765625;4.08999998967374;410;100 mA
19.6465179503973;0.20062255859375;0.00101104736328125;4.0999999896485;411;100 mA
19.6565179503721;0.200469970703125;0.00097930908203125;4.10999998962325;412;100 mA
19.6665179503468;0.200439453125;0.0009503173828125;4.119999989598;413;100 mA
19.6765179503216;0.200469970703125;0.00106231689453125;4.12999998957275;414;100 mA
19.6865179502963;0.20050048828125;0.000963134765625;4.1399999895475;415;100 mA
19.6965179502711;0.20037841796875;0.00102142333984375;4.14999998952226;416;100 mA
19.7065179502458;0.20050048828125;0.0010430908203125;4.15999998949701;417;100 mA
19.7165179502206;0.2005615234375;0.000963745117187501;4.16999998947176;418;100 mA
19.7265179501953;0.2005615234375;0.001041259765625;4.17999998944651;419;100 mA
19.7365179501701;0.200531005859375;0.000991210937500001;4.18999998942127;420;100 mA
19.7465179501448;0.20068359375;0.000970458984375;4.19999998939602;421;100 mA
19.7565179501196;0.2005615234375;0.00105621337890625;4.20999998937077;422;100 mA
19.7665179500943;0.200469970703125;0.000980224609374999;4.21999998934552;423;100 mA
19.7765179500691;0.200592041015625;0.001038818359375;4.22999998932028;424;100 mA
19.7865179500438;0.20050048828125;0.00104949951171875;4.23999998929503;425;100 mA
19.7965179500186;0.200439453125;0.0009735107421875;4.24999998926978;426;100 mA
19.8065179499933;0.200592041015625;0.00106231689453125;4.25999998924453;427;100 mA
19.8165179499681;0.200469970703125;0.001005859375;4.26999998921929;428;100 mA
19.8265179499429;0.200408935546875;0.000998840332031251;4.27999998919404;429;100 mA
19.8365179499176;0.2005615234375;0.00107177734375;4.28999998916879;430;100 mA
19.8465179498924;0.20050048828125;0.000989990234375;4.29999998914354;431;100 mA
19.8565179498671;0.200408935546875;0.00105499267578125;4.3099999891183;432;100 mA
19.8665179498419;0.200439453125;0.00106201171875;4.31999998909305;433;100 mA
19.8765179498166;0.20062255859375;0.00100311279296875;4.3299999890678;434;100 mA
19.8865179497914;0.20062255859375;0.0010540771484375;4.33999998904255;435;100 mA
19.8965179497661;0.2005615234375;0.0010150146484375;4.34999998901731;436;100 mA
19.9065179497409;0.20074462890625;0.000997314453125001;4.35999998899206;437;100 mA
19.9165179497156;0.200592041015625;0.00105712890625;4.36999998896681;438;100 mA
19.9265179496904;0.200439453125;0.00100311279296875;4.37999998894156;439;100 mA
19.9365179496651;0.20062255859375;0.00103485107421875;4.38999998891632;440;100 mA
19.9465179496399;0.200469970703125;0.0010443115234375;4.39999998889107;441;100 mA
19.9565179496146;0.200439453125;0.00097930908203125;4.40999998886582;442;100 mA
19.9665179495894;0.20062255859375;0.00102081298828125;4.41999998884057;443;100 mA
19.9765179495641;0.20050048828125;0.00099853515625;4.42999998881533;444;100 mA
19.9865179495389;0.200408935546875;0.000968322753906251;4.43999998879008;445;100 mA
19.9965179495136;0.200531005859375;0.00104248046875;4.44999998876483;446;100 mA
20.0065179494884;0.200469970703125;0.00096923828125;4.45999998873958;447;100 mA
20.0165179494632;0.20037841796875;0.00101348876953125;4.46999998871433;448;100 mA
20.0265179494379;0.2005615234375;0.00106109619140625;4.47999998868909;449;100 mA
20.0365179494127;0.200592041015625;0.000946960449218751;4.48999998866384;450;100 mA
20.0465179493874;0.200653076171875;0.0010260009765625;4.49999998863859;451;100 mA
20.0565179493622;0.200592041015625;0.000984802246093749;4.50999998861334;452;100 mA
20.0665179493369;0.20068359375;0.00095672607421875;4.5199999885881;453;100 mA
20.0765179493117;0.20050048828125;0.00105316162109375;4.52999998856285;454;100 mA
20.0865179492864;0.200408935546875;0.0009967041015625;4.5399999885376;455;100 mA
20.0965179492612;0.20050048828125;0.0010260009765625;4.54999998851235;456;100 mA
20.1065179492359;0.200469970703125;0.001048583984375;4.55999998848711;457;100 mA
20.1165179492107;0.200469970703125;0.00096771240234375;4.56999998846186;458;100 mA
20.1265179491854;0.2005615234375;0.00106475830078125;4.57999998843661;459;100 mA
20.1365179491602;0.200469970703125;0.00101593017578125;4.58999998841136;460;100 mA
20.1465179491349;0.200469970703125;0.0009808349609375;4.59999998838612;461;100 mA
20.1565179491097;0.200531005859375;0.0010687255859375;4.60999998836087;462;100 mA
20.1665179490844;0.2005615234375;0.000985107421875001;4.61999998833562;463;100 mA
20.1765179490592;0.20037841796875;0.0010498046875;4.62999998831037;464;100 mA
20.1865179490339;0.20050048828125;0.00104644775390625;4.63999998828513;465;100 mA
20.1965179490087;0.200653076171875;0.0009716796875;4.64999998825988;466;100 mA
20.2065179489834;0.20062255859375;0.00104461669921875;4.65999998823463;467;100 mA
20.2165179489582;0.2005615234375;0.000983581542968751;4.66999998820938;468;100 mA
20.226517948933;0.20068359375;0.00098419189453125;4.67999998818414;469;100 mA
20.2365179489077;0.2005615234375;0.00105987548828125;4.68999998815889;470;100 mA
20.2465179488825;0.200439453125;0.000977172851562499;4.69999998813364;471;100 mA
20.2565179488572;0.20050048828125;0.00104278564453125;4.70999998810839;472;100 mA
20.266517948832;0.200469970703125;0.00103607177734375;4.71999998808315;473;100 mA
20.2765179488067;0.200439453125;0.00097808837890625;4.7299999880579;474;100 mA
20.2865179487815;0.200653076171875;0.00103485107421875;4.73999998803265;475;100 mA
20.2965179487562;0.200439453125;0.00100341796875;4.7499999880074;476;100 mA
20.306517948731;0.200408935546875;0.00096771240234375;4.75999998798216;477;100 mA
20.3165179487057;0.20050048828125;0.00103759765625;4.76999998795691;478;100 mA
20.3265179486805;0.20050048828125;0.000982055664062501;4.77999998793166;479;100 mA
20.3365179486552;0.200439453125;0.0010186767578125;4.78999998790641;480;100 mA
20.34651794863;0.200531005859375;0.0010369873046875;4.79999998788116;481;100 mA
20.3565179486047;0.200653076171875;0.00097198486328125;4.80999998785592;482;100 mA
20.3665179485795;0.2005615234375;0.0010186767578125;4.81999998783067;483;100 mA
20.3765179485542;0.200592041015625;0.00100311279296875;4.82999998780542;484;100 mA
20.386517948529;0.200653076171875;0.0009735107421875;4.83999998778017;485;100 mA
20.3965179485037;0.200531005859375;0.0010595703125;4.84999998775493;486;100 mA
20.4065179484785;0.200439453125;0.000982666015625;4.85999998772968;487;100 mA
20.4165179484532;0.200531005859375;0.00102447509765625;4.86999998770443;488;100 mA
20.426517948428;0.20050048828125;0.00105377197265625;4.87999998767918;489;100 mA
20.4365179484028;0.200469970703125;0.000975952148437501;4.88999998765394;490;100 mA
20.4465179483775;0.20068359375;0.00104339599609375;4.89999998762869;491;100 mA
20.4565179483523;0.20050048828125;0.00100982666015625;4.90999998760344;492;100 mA
20.466517948327;0.200408935546875;0.0009747314453125;4.91999998757819;493;100 mA
20.4765179483018;0.200531005859375;0.001075439453125;4.92999998755295;494;100 mA
20.4865179482765;0.200531005859375;0.0009814453125;4.9399999875277;495;100 mA
20.4965179482513;0.200439453125;0.00103240966796875;4.94999998750245;496;100 mA
20.506517948226;0.200531005859375;0.00105224609375;4.9599999874772;497;100 mA
20.5165179482008;0.200653076171875;0.000962219238281251;4.96999998745196;498;100 mA
20.5265179481755;0.20062255859375;0.001048583984375;4.97999998742671;499;100 mA
20.5365179481503;0.200592041015625;0.000995483398437499;4.98999998740146;500;100 mA
20.546517948125;0.20068359375;0.000966796875000001;4.99999998737621;501;100 mA
20.5565179480998;0.200469970703125;0.00106475830078125;5.00999998735097;502;100 mA
20.5665179480745;0.200408935546875;0.0009857177734375;5.01999998732572;503;100 mA
20.5765179480493;0.20050048828125;0.00103363037109375;5.02999998730047;504;100 mA
20.586517948024;0.20037841796875;0.001046142578125;5.03999998727522;505;100 mA
20.5965179479988;0.200469970703125;0.00095977783203125;5.04999998724998;506;100 mA
20.6065179479735;0.20062255859375;0.00102294921875;5.05999998722473;507;100 mA
20.6165179479483;0.20050048828125;0.000981750488281249;5.06999998719948;508;100 mA
20.626517947923;0.20037841796875;0.000974426269531251;5.07999998717423;509;100 mA
20.6365179478978;0.200531005859375;0.00104736328125;5.08999998714899;510;100 mA
20.6465179478726;0.200531005859375;0.000963745117187501;5.09999998712374;511;100 mA
20.6565179478473;0.200408935546875;0.0010205078125;5.10999998709849;512;100 mA
20.6665179478221;0.20050048828125;0.001026611328125;5.11999998707324;513;100 mA
20.6765179477968;0.200653076171875;0.000965270996093751;5.129999987048;514;100 mA
20.6865179477716;0.20062255859375;0.00101470947265625;5.13999998702275;515;100 mA
20.6965179477463;0.200531005859375;0.000985107421875001;5.1499999869975;516;100 mA
20.7065179477211;0.20068359375;0.000949707031249999;5.15999998697225;517;100 mA
20.7165179476958;0.20050048828125;0.00104827880859375;5.169999986947;518;100 mA
20.7265179476706;0.200408935546875;0.0009722900390625;5.17999998692176;519;100 mA
20.7365179476453;0.20050048828125;0.00102264404296875;5.18999998689651;520;100 mA
20.7465179476201;0.200469970703125;0.00102691650390625;5.19999998687126;521;100 mA
20.7565179475948;0.200439453125;0.0009588623046875;5.20999998684601;522;100 mA
20.7665179475696;0.200592041015625;0.00103759765625;5.21999998682077;523;100 mA
20.7765179475443;0.200469970703125;0.000977478027343751;5.22999998679552;524;100 mA
20.7865179475191;0.200439453125;0.000953063964843751;5.23999998677027;525;100 mA
20.7965179474938;0.200531005859375;0.001019287109375;5.24999998674502;526;100 mA
20.8065179474686;0.200531005859375;0.00095947265625;5.25999998671978;527;100 mA
20.8165179474433;0.200408935546875;0.0010186767578125;5.26999998669453;528;100 mA
20.8265179474181;0.200531005859375;0.0010302734375;5.27999998666928;529;100 mA
20.8365179473928;0.20068359375;0.00094757080078125;5.28999998664403;530;100 mA
20.8465179473676;0.200592041015625;0.00101959228515625;5.29999998661879;531;100 mA
20.8565179473424;0.20050048828125;0.000989379882812499;5.30999998659354;532;100 mA
20.8665179473171;0.200714111328125;0.0009527587890625;5.31999998656829;533;100 mA
20.8765179472919;0.200531005859375;0.0010687255859375;5.32999998654304;534;100 mA
20.8865179472666;0.200408935546875;0.000977478027343751;5.3399999865178;535;100 mA
20.8965179472414;0.200469970703125;0.00102783203125;5.34999998649255;536;100 mA
20.9065179472161;0.200469970703125;0.0010443115234375;5.3599999864673;537;100 mA
20.9165179471909;0.200531005859375;0.00095855712890625;5.36999998644205;538;100 mA
20.9265179471656;0.20062255859375;0.00105072021484375;5.37999998641681;539;100 mA
20.9365179471404;0.200439453125;0.000992736816406251;5.38999998639156;540;100 mA
20.9465179471151;0.200439453125;0.0009674072265625;5.39999998636631;541;100 mA
20.9565179470899;0.200531005859375;0.00105010986328125;5.40999998634106;542;100 mA
20.9665179470646;0.200439453125;0.000965576171875;5.41999998631582;543;100 mA
20.9765179470394;0.200408935546875;0.001036376953125;5.42999998629057;544;100 mA
20.9865179470141;0.200592041015625;0.00103424072265625;5.43999998626532;545;100 mA
20.9965179469889;0.200653076171875;0.00093536376953125;5.44999998624007;546;100 mA
21.0065179469636;0.20062255859375;0.00100494384765625;5.45999998621483;547;100 mA
21.0165179469384;0.200592041015625;0.0009503173828125;5.46999998618958;548;100 mA
21.0265179469131;0.20062255859375;0.00095550537109375;5.47999998616433;549;100 mA
21.0365179468879;0.200531005859375;0.001019287109375;5.48999998613908;550;100 mA
21.0465179468627;0.200439453125;0.000953369140625;5.49999998611383;551;100 mA
21.0565179468374;0.200531005859375;0.00099456787109375;5.50999998608859;552;100 mA
21.0665179468122;0.200439453125;0.0010113525390625;5.51999998606334;553;100 mA
21.0765179467869;0.20037841796875;0.00094879150390625;5.52999998603809;554;100 mA
21.0865179467617;0.200653076171875;0.001015625;5.53999998601284;555;100 mA
21.0965179467364;0.200531005859375;0.0009735107421875;5.5499999859876;556;100 mA
21.1065179467112;0.200469970703125;0.00095184326171875;5.55999998596235;557;100 mA
21.1165179466859;0.20050048828125;0.00104248046875;5.5699999859371;558;100 mA
21.1265179466607;0.20050048828125;0.000977478027343751;5.57999998591185;559;100 mA
21.1365179466354;0.200439453125;0.00101104736328125;5.58999998588661;560;100 mA
21.1465179466102;0.200592041015625;0.00102630615234375;5.59999998586136;561;100 mA
21.1565179465849;0.20068359375;0.00097320556640625;5.60999998583611;562;100 mA
21.1665179465597;0.200592041015625;0.00102630615234375;5.61999998581086;563;100 mA
21.1765179465344;0.2005615234375;0.0010064697265625;5.62999998578562;564;100 mA
21.1865179465092;0.20062255859375;0.000971069335937499;5.63999998576037;565;100 mA
21.1965179464839;0.20050048828125;0.00106597900390625;5.64999998573512;566;100 mA
21.2065179464587;0.200439453125;0.000988159179687501;5.65999998570987;567;100 mA
21.2165179464334;0.20050048828125;0.00103179931640625;5.66999998568463;568;100 mA
21.2265179464082;0.20037841796875;0.0010369873046875;5.67999998565938;569;100 mA
21.2365179463829;0.200439453125;0.00096099853515625;5.68999998563413;570;100 mA
21.2465179463577;0.20062255859375;0.001025390625;5.69999998560888;571;100 mA
21.2565179463325;0.20050048828125;0.00100830078125;5.70999998558364;572;100 mA
21.2665179463072;0.200439453125;0.000959167480468751;5.71999998555839;573;100 mA
21.276517946282;0.200469970703125;0.00106964111328125;5.72999998553314;574;100 mA
21.2865179462567;0.200531005859375;0.00098602294921875;5.73999998550789;575;100 mA
21.2965179462315;0.200439453125;0.001031494140625;5.74999998548265;576;100 mA
21.3065179462062;0.200531005859375;0.0010491943359375;5.7599999854574;577;100 mA
21.316517946181;0.20062255859375;0.00096923828125;5.76999998543215;578;100 mA
21.3265179461557;0.200592041015625;0.0010614013671875;5.7799999854069;579;100 mA
21.3365179461305;0.20062255859375;0.00100494384765625;5.78999998538166;580;100 mA
21.3465179461052;0.200653076171875;0.000969543457031249;5.79999998535641;581;100 mA
21.35651794608;0.20050048828125;0.0010601806640625;5.80999998533116;582;100 mA
21.3665179460547;0.200439453125;0.0009808349609375;5.81999998530591;583;100 mA
21.3765179460295;0.200469970703125;0.00103973388671875;5.82999998528066;584;100 mA
21.3865179460042;0.200408935546875;0.0010400390625;5.83999998525542;585;100 mA
21.396517945979;0.200439453125;0.00096466064453125;5.84999998523017;586;100 mA
21.4065179459537;0.20068359375;0.001038818359375;5.85999998520492;587;100 mA
21.4165179459285;0.200469970703125;0.00099456787109375;5.86999998517967;588;100 mA
21.4265179459032;0.200469970703125;0.000974426269531251;5.87999998515443;589;100 mA
21.436517945878;0.20050048828125;0.0010528564453125;5.88999998512918;590;100 mA
21.4465179458527;0.200531005859375;0.000982666015625;5.89999998510393;591;100 mA
21.4565179458275;0.200439453125;0.00103179931640625;5.90999998507868;592;100 mA
21.4665179458023;0.200592041015625;0.001031494140625;5.91999998505344;593;100 mA
21.476517945777;0.20068359375;0.000983581542968751;5.92999998502819;594;100 mA
21.4865179457518;0.200592041015625;0.0010357666015625;5.93999998500294;595;100 mA
21.4965179457265;0.20062255859375;0.000995483398437499;5.94999998497769;596;100 mA
21.5065179457013;0.20068359375;0.0009808349609375;5.95999998495245;597;100 mA
21.516517945676;0.20050048828125;0.001048583984375;5.9699999849272;598;100 mA
21.5265179456508;0.200439453125;0.000989379882812499;5.97999998490195;599;100 mA
21.5365179456255;0.200592041015625;0.00104095458984375;5.9899999848767;600;100 mA
21.5465179456003;0.200408935546875;0.00102630615234375;5.99999998485146;601;100 mA
21.556517945575;0.200469970703125;0.00096282958984375;6.00999998482621;602;100 mA
21.5665179455498;0.20068359375;0.00101165771484375;6.01999998480096;603;100 mA
21.5765179455245;0.200469970703125;0.0010064697265625;6.02999998477571;604;100 mA
21.5865179454993;0.20037841796875;0.0009588623046875;6.03999998475047;605;100 mA
21.596517945474;0.200531005859375;0.00103240966796875;6.04999998472522;606;100 mA
21.6065179454488;0.200531005859375;0.000968322753906251;6.05999998469997;607;100 mA
21.6165179454235;0.200439453125;0.00100555419921875;6.06999998467472;608;100 mA
21.6265179453983;0.200531005859375;0.00104736328125;6.07999998464948;609;100 mA
21.636517945373;0.20062255859375;0.000946655273437499;6.08999998462423;610;100 mA
21.6465179453478;0.200592041015625;0.001019287109375;6.09999998459898;611;100 mA
21.6565179453225;0.20062255859375;0.0010101318359375;6.10999998457373;612;100 mA
21.6665179452973;0.20062255859375;0.00095489501953125;6.11999998454849;613;100 mA
21.6765179452721;0.20050048828125;0.00105682373046875;6.12999998452324;614;100 mA
21.6865179452468;0.20050048828125;0.00098114013671875;6.13999998449799;615;100 mA
21.6965179452216;0.20050048828125;0.001026611328125;6.14999998447274;616;100 mA
21.7065179451963;0.200408935546875;0.00104339599609375;6.1599999844475;617;100 mA
21.7165179451711;0.200439453125;0.0009661865234375;6.16999998442225;618;100 mA
21.7265179451458;0.200653076171875;0.0010345458984375;6.179999984397;619;100 mA
21.7365179451206;0.200469970703125;0.000988159179687501;6.18999998437175;620;100 mA
21.7465179450953;0.200408935546875;0.0009674072265625;6.1999999843465;621;100 mA
21.7565179450701;0.20050048828125;0.00105682373046875;6.20999998432126;622;100 mA
21.7665179450448;0.200439453125;0.000969848632812501;6.21999998429601;623;100 mA
21.7765179450196;0.200408935546875;0.00103057861328125;6.22999998427076;624;100 mA
21.7865179449943;0.2005615234375;0.0010504150390625;6.23999998424551;625;100 mA
21.7965179449691;0.20062255859375;0.0009478759765625;6.24999998422027;626;100 mA
21.8065179449438;0.20062255859375;0.001026611328125;6.25999998419502;627;100 mA
21.8165179449186;0.200531005859375;0.0010052490234375;6.26999998416977;628;100 mA
21.8265179448933;0.20062255859375;0.000987854003906249;6.27999998414452;629;100 mA
21.8365179448681;0.20050048828125;0.0010467529296875;6.28999998411928;630;100 mA
21.8465179448428;0.200439453125;0.0009869384765625;6.29999998409403;631;100 mA
21.8565179448176;0.200469970703125;0.0010418701171875;6.30999998406878;632;100 mA
21.8665179447923;0.200439453125;0.001048583984375;6.31999998404353;633;100 mA
21.8765179447671;0.200439453125;0.00098388671875;6.32999998401829;634;100 mA
21.8865179447419;0.20062255859375;0.00104034423828125;6.33999998399304;635;100 mA
21.8965179447166;0.200469970703125;0.001005859375;6.34999998396779;636;100 mA
21.9065179446914;0.200408935546875;0.00099456787109375;6.35999998394254;637;100 mA
21.9165179446661;0.200531005859375;0.00105255126953125;6.3699999839173;638;100 mA
21.9265179446409;0.20050048828125;0.0009991455078125;6.37999998389205;639;100 mA
21.9365179446156;0.200469970703125;0.00103668212890625;6.3899999838668;640;100 mA
21.9465179445904;0.200531005859375;0.00105865478515625;6.39999998384155;641;100 mA
21.9565179445651;0.200653076171875;0.00097564697265625;6.40999998381631;642;100 mA
21.9665179445399;0.200592041015625;0.0010284423828125;6.41999998379106;643;100 mA
21.9765179445146;0.200592041015625;0.0010162353515625;6.42999998376581;644;100 mA
21.9865179444894;0.2005615234375;0.00097381591796875;6.43999998374056;645;100 mA
21.9965179444641;0.200439453125;0.0010504150390625;6.44999998371532;646;100 mA
22.0065179444389;0.200408935546875;0.00099365234375;6.45999998369007;647;100 mA
22.0165179444136;0.20050048828125;0.00103118896484375;6.46999998366482;648;100 mA
22.0265179443884;0.200469970703125;0.00105072021484375;6.47999998363957;649;100 mA
22.0365179443631;0.20050048828125;0.000960693359375001;6.48999998361433;650;100 mA
22.0465179443379;0.20062255859375;0.00103179931640625;6.49999998358908;651;100 mA
22.0565179443126;0.20050048828125;0.000991210937500001;6.50999998356383;652;100 mA
22.0665179442874;0.200439453125;0.000964965820312499;6.51999998353858;653;100 mA
22.0765179442622;0.200469970703125;0.001060791015625;6.52999998351333;654;100 mA
22.0865179442369;0.200469970703125;0.0009906005859375;6.53999998348809;655;100 mA
22.0965179442117;0.200469970703125;0.00101959228515625;6.54999998346284;656;100 mA
22.1065179441864;0.2005615234375;0.0010369873046875;6.55999998343759;657;100 mA
22.1165179441612;0.200653076171875;0.000958251953125;6.56999998341234;658;100 mA
22.1265179441359;0.20062255859375;0.0010272216796875;6.5799999833871;659;100 mA
22.1365179441107;0.200592041015625;0.000987854003906249;6.58999998336185;660;100 mA
22.1465179440854;0.200653076171875;0.00096466064453125;6.5999999833366;661;100 mA
22.1565179440602;0.200469970703125;0.00105682373046875;6.60999998331135;662;100 mA
22.1665179440349;0.200439453125;0.000985107421875001;6.61999998328611;663;100 mA
22.1765179440097;0.200531005859375;0.001026611328125;6.62999998326086;664;100 mA
22.1865179439844;0.200439453125;0.001053466796875;6.63999998323561;665;100 mA
22.1965179439592;0.200531005859375;0.00096466064453125;6.64999998321036;666;100 mA
22.2065179439339;0.20068359375;0.0010321044921875;6.65999998318512;667;100 mA
22.2165179439087;0.200469970703125;0.000988159179687501;6.66999998315987;668;100 mA
22.2265179438834;0.20037841796875;0.0009613037109375;6.67999998313462;669;100 mA
22.2365179438582;0.200531005859375;0.0010455322265625;6.68999998310937;670;100 mA
22.2465179438329;0.2005615234375;0.0009783935546875;6.69999998308413;671;100 mA
22.2565179438077;0.200408935546875;0.00104095458984375;6.70999998305888;672;100 mA
22.2665179437824;0.2005615234375;0.00103912353515625;6.71999998303363;673;100 mA
22.2765179437572;0.200653076171875;0.000987548828125;6.72999998300838;674;100 mA
22.286517943732;0.20062255859375;0.00103851318359375;6.73999998298314;675;100 mA
22.2965179437067;0.20062255859375;0.00101776123046875;6.74999998295789;676;100 mA
22.3065179436815;0.200592041015625;0.00099212646484375;6.75999998293264;677;100 mA
22.3165179436562;0.20050048828125;0.00110504150390625;6.76999998290739;678;100 mA
22.326517943631;0.20037841796875;0.0009832763671875;6.77999998288215;679;100 mA
22.3365179436057;0.20050048828125;0.00103485107421875;6.7899999828569;680;100 mA
22.3465179435805;0.200469970703125;0.00104400634765625;6.79999998283165;681;100 mA
22.3565179435552;0.20050048828125;0.0009844970703125;6.8099999828064;682;100 mA
22.36651794353;0.200653076171875;0.001026611328125;6.81999998278116;683;100 mA
22.3765179435047;0.200469970703125;0.001015625;6.82999998275591;684;100 mA
22.3865179434795;0.200439453125;0.00096466064453125;6.83999998273066;685;100 mA
22.3965179434542;0.20050048828125;0.00104827880859375;6.84999998270541;686;100 mA
22.406517943429;0.200469970703125;0.0009906005859375;6.85999998268016;687;100 mA
22.4165179434037;0.200408935546875;0.00102508544921875;6.86999998265492;688;100 mA
22.4265179433785;0.200592041015625;0.00105377197265625;6.87999998262967;689;100 mA
22.4365179433532;0.200653076171875;0.0009674072265625;6.88999998260442;690;100 mA
22.446517943328;0.20062255859375;0.00104217529296875;6.89999998257917;691;100 mA
22.4565179433027;0.200592041015625;0.0010089111328125;6.90999998255393;692;100 mA
22.4665179432775;0.200653076171875;0.00097869873046875;6.91999998252868;693;100 mA
22.4765179432522;0.200531005859375;0.00106842041015625;6.92999998250343;694;100 mA
22.486517943227;0.200408935546875;0.00101776123046875;6.93999998247818;695;100 mA
22.4965179432018;0.2005615234375;0.00103424072265625;6.94999998245294;696;100 mA
22.5065179431765;0.200469970703125;0.0010650634765625;6.95999998242769;697;100 mA
22.5165179431513;0.200347900390625;0.000977478027343751;6.96999998240244;698;100 mA
22.526517943126;0.20062255859375;0.0010577392578125;6.97999998237719;699;100 mA
22.5365179431008;0.200531005859375;0.00098114013671875;6.98999998235195;700;100 mA
