Time (s);WE(1).Potential (V);WE(1).Current (A);Corrected time (s);Index;Current range;Overload
45.691931884639;-0.90087890625;-0.38031005859375;0;1;100 mA;Current overload
45.7019318846137;-0.899658203125;-0.266693115234375;0.00999999997475243;2;100 mA;
45.7119318845885;-0.9002685546875;-0.217864990234375;0.0199999999495049;3;100 mA;
45.7219318845632;-0.89935302734375;-0.18634033203125;0.0299999999242573;4;100 mA;
45.731931884538;-0.899658203125;-0.165985107421875;0.0399999998990097;5;100 mA;
45.7419318845127;-0.89935302734375;-0.151123046875;0.0499999998737621;6;100 mA;
45.7519318844875;-0.89874267578125;-0.1392822265625;0.0599999998485146;7;100 mA;
45.7619318844622;-0.89935302734375;-0.1314697265625;0.069999999823267;8;100 mA;
45.771931884437;-0.89935302734375;-0.123626708984375;0.0799999997980194;9;100 mA;
45.7819318844117;-0.899658203125;-0.117340087890625;0.0899999997727718;10;100 mA;
45.7919318843865;-0.89935302734375;-0.112945556640625;0.0999999997475243;11;100 mA;
45.8019318843612;-0.89996337890625;-0.107879638671875;0.109999999722277;12;100 mA;
45.811931884336;-0.89935302734375;-0.10443115234375;0.119999999697029;13;100 mA;
45.8219318843107;-0.89935302734375;-0.10113525390625;0.129999999671782;14;100 mA;
45.8319318842855;-0.8984375;-0.097869873046875;0.139999999646534;15;100 mA;
45.8419318842602;-0.89935302734375;-0.096282958984375;0.149999999621286;16;100 mA;
45.851931884235;-0.89935302734375;-0.0936279296875;0.159999999596039;17;100 mA;
45.8619318842098;-0.8990478515625;-0.091827392578125;0.169999999570791;18;100 mA;
45.8719318841845;-0.899658203125;-0.090606689453125;0.179999999545544;19;100 mA;
45.8819318841593;-0.899658203125;-0.088592529296875;0.189999999520296;20;100 mA;
45.891931884134;-0.89935302734375;-0.087738037109375;0.199999999495049;21;100 mA;
45.9019318841088;-0.899658203125;-0.08636474609375;0.209999999469801;22;100 mA;
45.9119318840835;-0.89813232421875;-0.084686279296875;0.219999999444553;23;100 mA;
45.9219318840583;-0.89935302734375;-0.08441162109375;0.229999999419306;24;100 mA;
45.931931884033;-0.89996337890625;-0.083160400390625;0.239999999394058;25;100 mA;
45.9419318840078;-0.899658203125;-0.08233642578125;0.249999999368811;26;100 mA;
45.9519318839825;-0.89996337890625;-0.082061767578125;0.259999999343563;27;100 mA;
45.9619318839573;-0.89935302734375;-0.080841064453125;0.269999999318316;28;100 mA;
45.971931883932;-0.89935302734375;-0.080841064453125;0.279999999293068;29;100 mA;
45.9819318839068;-0.8990478515625;-0.080352783203125;0.28999999926782;30;100 mA;
45.9919318838815;-0.8984375;-0.079559326171875;0.299999999242573;31;100 mA;
46.0019318838563;-0.89935302734375;-0.07965087890625;0.309999999217325;32;100 mA;
46.011931883831;-0.8990478515625;-0.07879638671875;0.319999999192078;33;100 mA;
46.0219318838058;-0.89935302734375;-0.078399658203125;0.32999999916683;34;100 mA;
46.0319318837805;-0.9002685546875;-0.078521728515625;0.339999999141583;35;100 mA;
46.0419318837553;-0.89935302734375;-0.077301025390625;0.349999999116335;36;100 mA;
46.05193188373;-0.899658203125;-0.077392578125;0.359999999091087;37;100 mA;
46.0619318837048;-0.89935302734375;-0.0770263671875;0.36999999906584;38;100 mA;
46.0719318836796;-0.89874267578125;-0.07635498046875;0.379999999040592;39;100 mA;
46.0819318836543;-0.89935302734375;-0.076568603515625;0.389999999015345;40;100 mA;
46.0919318836291;-0.89935302734375;-0.07568359375;0.399999998990097;41;100 mA;
46.1019318836038;-0.8990478515625;-0.07550048828125;0.40999999896485;42;100 mA;
46.1119318835786;-0.899658203125;-0.07598876953125;0.419999998939602;43;100 mA;
46.1219318835533;-0.8990478515625;-0.075103759765625;0.429999998914354;44;100 mA;
46.1319318835281;-0.8990478515625;-0.07562255859375;0.439999998889107;45;100 mA;
46.1419318835028;-0.89935302734375;-0.075592041015625;0.449999998863859;46;100 mA;
46.1519318834776;-0.8984375;-0.075286865234375;0.459999998838612;47;100 mA;
46.1619318834523;-0.8990478515625;-0.07598876953125;0.469999998813364;48;100 mA;
46.1719318834271;-0.89935302734375;-0.07537841796875;0.479999998788116;49;100 mA;
46.1819318834018;-0.89935302734375;-0.075531005859375;0.489999998762869;50;100 mA;
46.1919318833766;-0.89935302734375;-0.07611083984375;0.499999998737621;51;100 mA;
46.2019318833513;-0.89935302734375;-0.075347900390625;0.509999998712374;52;100 mA;
46.2119318833261;-0.89935302734375;-0.07550048828125;0.519999998687126;53;100 mA;
46.2219318833008;-0.899658203125;-0.0751953125;0.529999998661879;54;100 mA;
46.2319318832756;-0.8984375;-0.07464599609375;0.539999998636631;55;100 mA;
46.2419318832503;-0.89935302734375;-0.0750732421875;0.549999998611383;56;100 mA;
46.2519318832251;-0.89996337890625;-0.0740966796875;0.559999998586136;57;100 mA;
46.2619318831998;-0.8990478515625;-0.07379150390625;0.569999998560888;58;100 mA;
46.2719318831746;-0.899658203125;-0.074249267578125;0.579999998535641;59;100 mA;
46.2819318831494;-0.89935302734375;-0.07354736328125;0.589999998510393;60;100 mA;
46.2919318831241;-0.8990478515625;-0.07379150390625;0.599999998485146;61;100 mA;
46.3019318830989;-0.89874267578125;-0.073455810546875;0.609999998459898;62;100 mA;
46.3119318830736;-0.89874267578125;-0.07305908203125;0.61999999843465;63;100 mA;
46.3219318830484;-0.8990478515625;-0.07379150390625;0.629999998409403;64;100 mA;
46.3319318830231;-0.899658203125;-0.07318115234375;0.639999998384155;65;100 mA;
46.3419318829979;-0.8990478515625;-0.073150634765625;0.649999998358908;66;100 mA;
46.3519318829726;-0.899658203125;-0.07354736328125;0.65999999833366;67;100 mA;
46.3619318829474;-0.8990478515625;-0.0728759765625;0.669999998308413;68;100 mA;
46.3719318829221;-0.89935302734375;-0.07318115234375;0.679999998283165;69;100 mA;
46.3819318828969;-0.899658203125;-0.072967529296875;0.689999998257917;70;100 mA;
46.3919318828716;-0.89874267578125;-0.072540283203125;0.69999999823267;71;100 mA;
46.4019318828464;-0.8990478515625;-0.0732421875;0.709999998207422;72;100 mA;
46.4119318828211;-0.899658203125;-0.0726318359375;0.719999998182175;73;100 mA;
46.4219318827959;-0.89935302734375;-0.07244873046875;0.729999998156927;74;100 mA;
46.4319318827706;-0.89996337890625;-0.072662353515625;0.73999999813168;75;100 mA;
46.4419318827454;-0.89935302734375;-0.0718994140625;0.749999998106432;76;100 mA;
46.4519318827201;-0.89935302734375;-0.072235107421875;0.759999998081184;77;100 mA;
46.4619318826949;-0.899658203125;-0.071929931640625;0.769999998055937;78;100 mA;
46.4719318826697;-0.8984375;-0.071319580078125;0.779999998030689;79;100 mA;
46.4819318826444;-0.8990478515625;-0.0718994140625;0.789999998005442;80;100 mA;
46.4919318826192;-0.899658203125;-0.071380615234375;0.799999997980194;81;100 mA;
46.5019318825939;-0.8990478515625;-0.071533203125;0.809999997954947;82;100 mA;
46.5119318825687;-0.89935302734375;-0.071868896484375;0.819999997929699;83;100 mA;
46.5219318825434;-0.89935302734375;-0.071136474609375;0.829999997904451;84;100 mA;
46.5319318825182;-0.89935302734375;-0.07171630859375;0.839999997879204;85;100 mA;
46.5419318824929;-0.89935302734375;-0.07171630859375;0.849999997853956;86;100 mA;
46.5519318824677;-0.89874267578125;-0.0712890625;0.859999997828709;87;100 mA;
46.5619318824424;-0.89996337890625;-0.071868896484375;0.869999997803461;88;100 mA;
46.5719318824172;-0.89996337890625;-0.071380615234375;0.879999997778214;89;100 mA;
46.5819318823919;-0.89935302734375;-0.0712890625;0.889999997752966;90;100 mA;
46.5919318823667;-0.899658203125;-0.07177734375;0.899999997727718;91;100 mA;
46.6019318823414;-0.899658203125;-0.071014404296875;0.909999997702471;92;100 mA;
46.6119318823162;-0.899658203125;-0.071533203125;0.919999997677223;93;100 mA;
46.6219318822909;-0.8990478515625;-0.0716552734375;0.929999997651976;94;100 mA;
46.6319318822657;-0.8984375;-0.071380615234375;0.939999997626728;95;100 mA;
46.6419318822404;-0.89935302734375;-0.071746826171875;0.949999997601481;96;100 mA;
46.6519318822152;-0.8990478515625;-0.0709228515625;0.959999997576233;97;100 mA;
46.6619318821899;-0.899658203125;-0.070831298828125;0.969999997550985;98;100 mA;
46.6719318821647;-0.9002685546875;-0.0712890625;0.979999997525738;99;100 mA;
46.6819318821395;-0.8990478515625;-0.070404052734375;0.98999999750049;100;100 mA;
46.6919318821142;-0.89935302734375;-0.0706787109375;0.999999997475243;101;100 mA;
46.701931882089;-0.899658203125;-0.07061767578125;1.00999999745;102;100 mA;
46.7119318820637;-0.8990478515625;-0.070404052734375;1.01999999742475;103;100 mA;
46.7219318820385;-0.899658203125;-0.071136474609375;1.0299999973995;104;100 mA;
46.7319318820132;-0.89935302734375;-0.070465087890625;1.03999999737425;105;100 mA;
46.741931881988;-0.89935302734375;-0.070587158203125;1.049999997349;106;100 mA;
46.7519318819627;-0.899658203125;-0.0714111328125;1.05999999732376;107;100 mA;
46.7619318819375;-0.899658203125;-0.071014404296875;1.06999999729851;108;100 mA;
46.7719318819122;-0.89935302734375;-0.071441650390625;1.07999999727326;109;100 mA;
46.781931881887;-0.899658203125;-0.071380615234375;1.08999999724801;110;100 mA;
46.7919318818617;-0.89813232421875;-0.0711669921875;1.09999999722277;111;100 mA;
46.8019318818365;-0.8990478515625;-0.072052001953125;1.10999999719752;112;100 mA;
46.8119318818112;-0.89935302734375;-0.071441650390625;1.11999999717227;113;100 mA;
46.821931881786;-0.8990478515625;-0.071502685546875;1.12999999714702;114;100 mA;
46.8319318817607;-0.899658203125;-0.07220458984375;1.13999999712178;115;100 mA;
46.8419318817355;-0.89935302734375;-0.071929931640625;1.14999999709653;116;100 mA;
46.8519318817102;-0.89996337890625;-0.072601318359375;1.15999999707128;117;100 mA;
46.861931881685;-0.899658203125;-0.072601318359375;1.16999999704603;118;100 mA;
46.8719318816597;-0.8984375;-0.072540283203125;1.17999999702079;119;100 mA;
46.8819318816345;-0.89935302734375;-0.073486328125;1.18999999699554;120;100 mA;
46.8919318816093;-0.89935302734375;-0.07305908203125;1.19999999697029;121;100 mA;
46.901931881584;-0.8990478515625;-0.07305908203125;1.20999999694504;122;100 mA;
46.9119318815588;-0.899658203125;-0.073486328125;1.2199999969198;123;100 mA;
46.9219318815335;-0.899658203125;-0.07305908203125;1.22999999689455;124;100 mA;
46.9319318815083;-0.89874267578125;-0.073760986328125;1.2399999968693;125;100 mA;
46.941931881483;-0.8990478515625;-0.07379150390625;1.24999999684405;126;100 mA;
46.9519318814578;-0.89813232421875;-0.07342529296875;1.25999999681881;127;100 mA;
46.9619318814325;-0.8990478515625;-0.07421875;1.26999999679356;128;100 mA;
46.9719318814073;-0.89996337890625;-0.07379150390625;1.27999999676831;129;100 mA;
46.981931881382;-0.89935302734375;-0.073638916015625;1.28999999674306;130;100 mA;
46.9919318813568;-0.89996337890625;-0.07391357421875;1.29999999671782;131;100 mA;
47.0019318813315;-0.89935302734375;-0.07318115234375;1.30999999669257;132;100 mA;
47.0119318813063;-0.89935302734375;-0.0736083984375;1.31999999666732;133;100 mA;
47.021931881281;-0.899658203125;-0.0733642578125;1.32999999664207;134;100 mA;
47.0319318812558;-0.89813232421875;-0.0726318359375;1.33999999661683;135;100 mA;
47.0419318812305;-0.89935302734375;-0.0731201171875;1.34999999659158;136;100 mA;
47.0519318812053;-0.899658203125;-0.07257080078125;1.35999999656633;137;100 mA;
47.06193188118;-0.89935302734375;-0.072418212890625;1.36999999654108;138;100 mA;
47.0719318811548;-0.899658203125;-0.07269287109375;1.37999999651583;139;100 mA;
47.0819318811295;-0.89996337890625;-0.071746826171875;1.38999999649059;140;100 mA;
47.0919318811043;-0.8990478515625;-0.072235107421875;1.39999999646534;141;100 mA;
47.1019318810791;-0.89935302734375;-0.0723876953125;1.40999999644009;142;100 mA;
47.1119318810538;-0.89874267578125;-0.072113037109375;1.41999999641484;143;100 mA;
47.1219318810286;-0.899658203125;-0.072662353515625;1.4299999963896;144;100 mA;
47.1319318810033;-0.899658203125;-0.072021484375;1.43999999636435;145;100 mA;
47.1419318809781;-0.89935302734375;-0.07208251953125;1.4499999963391;146;100 mA;
47.1519318809528;-0.899658203125;-0.0726318359375;1.45999999631385;147;100 mA;
47.1619318809276;-0.89874267578125;-0.0716552734375;1.46999999628861;148;100 mA;
47.1719318809023;-0.89935302734375;-0.0718994140625;1.47999999626336;149;100 mA;
47.1819318808771;-0.89996337890625;-0.07171630859375;1.48999999623811;150;100 mA;
47.1919318808518;-0.8990478515625;-0.0711669921875;1.49999999621286;151;100 mA;
47.2019318808266;-0.89935302734375;-0.071502685546875;1.50999999618762;152;100 mA;
47.2119318808013;-0.89935302734375;-0.070526123046875;1.51999999616237;153;100 mA;
47.2219318807761;-0.899658203125;-0.070465087890625;1.52999999613712;154;100 mA;
47.2319318807508;-0.8990478515625;-0.071044921875;1.53999999611187;155;100 mA;
47.2419318807256;-0.89874267578125;-0.070343017578125;1.54999999608663;156;100 mA;
47.2519318807003;-0.8990478515625;-0.070770263671875;1.55999999606138;157;100 mA;
47.2619318806751;-0.899658203125;-0.0706787109375;1.56999999603613;158;100 mA;
47.2719318806498;-0.89874267578125;-0.070526123046875;1.57999999601088;159;100 mA;
47.2819318806246;-0.8990478515625;-0.07135009765625;1.58999999598564;160;100 mA;
47.2919318805993;-0.89935302734375;-0.070831298828125;1.59999999596039;161;100 mA;
47.3019318805741;-0.899658203125;-0.0711669921875;1.60999999593514;162;100 mA;
47.3119318805489;-0.899658203125;-0.07196044921875;1.61999999590989;163;100 mA;
47.3219318805236;-0.8990478515625;-0.07147216796875;1.62999999588465;164;100 mA;
47.3319318804984;-0.89874267578125;-0.071929931640625;1.6399999958594;165;100 mA;
47.3419318804731;-0.89935302734375;-0.071746826171875;1.64999999583415;166;100 mA;
47.3519318804479;-0.8990478515625;-0.07159423828125;1.6599999958089;167;100 mA;
47.3619318804226;-0.899658203125;-0.072662353515625;1.66999999578366;168;100 mA;
47.3719318803974;-0.89935302734375;-0.07244873046875;1.67999999575841;169;100 mA;
47.3819318803721;-0.89874267578125;-0.0726318359375;1.68999999573316;170;100 mA;
47.3919318803469;-0.89935302734375;-0.07305908203125;1.69999999570791;171;100 mA;
47.4019318803216;-0.8990478515625;-0.07269287109375;1.70999999568267;172;100 mA;
47.4119318802964;-0.89935302734375;-0.073272705078125;1.71999999565742;173;100 mA;
47.4219318802711;-0.89935302734375;-0.07305908203125;1.72999999563217;174;100 mA;
47.4319318802459;-0.89874267578125;-0.07275390625;1.73999999560692;175;100 mA;
47.4419318802206;-0.89935302734375;-0.073394775390625;1.74999999558167;176;100 mA;
47.4519318801954;-0.89935302734375;-0.072967529296875;1.75999999555643;177;100 mA;
47.4619318801701;-0.89996337890625;-0.07293701171875;1.76999999553118;178;100 mA;
47.4719318801449;-0.89996337890625;-0.073211669921875;1.77999999550593;179;100 mA;
47.4819318801196;-0.89935302734375;-0.072418212890625;1.78999999548068;180;100 mA;
47.4919318800944;-0.8990478515625;-0.07293701171875;1.79999999545544;181;100 mA;
47.5019318800692;-0.8990478515625;-0.07281494140625;1.80999999543019;182;100 mA;
47.5119318800439;-0.899658203125;-0.072052001953125;1.81999999540494;183;100 mA;
47.5219318800187;-0.89935302734375;-0.072479248046875;1.82999999537969;184;100 mA;
47.5319318799934;-0.899658203125;-0.0718994140625;1.83999999535445;185;100 mA;
47.5419318799682;-0.89996337890625;-0.071807861328125;1.8499999953292;186;100 mA;
47.5519318799429;-0.89935302734375;-0.0721435546875;1.85999999530395;187;100 mA;
47.5619318799177;-0.89935302734375;-0.071197509765625;1.8699999952787;188;100 mA;
47.5719318798924;-0.89874267578125;-0.0716552734375;1.87999999525346;189;100 mA;
47.5819318798672;-0.89935302734375;-0.071502685546875;1.88999999522821;190;100 mA;
47.5919318798419;-0.89874267578125;-0.0709228515625;1.89999999520296;191;100 mA;
47.6019318798167;-0.89996337890625;-0.071533203125;1.90999999517771;192;100 mA;
47.6119318797914;-0.899658203125;-0.070892333984375;1.91999999515247;193;100 mA;
47.6219318797662;-0.89935302734375;-0.070892333984375;1.92999999512722;194;100 mA;
47.6319318797409;-0.89996337890625;-0.071197509765625;1.93999999510197;195;100 mA;
47.6419318797157;-0.9002685546875;-0.070343017578125;1.94999999507672;196;100 mA;
47.6519318796904;-0.89935302734375;-0.070831298828125;1.95999999505148;197;100 mA;
47.6619318796652;-0.89935302734375;-0.07098388671875;1.96999999502623;198;100 mA;
47.6719318796399;-0.89874267578125;-0.070648193359375;1.97999999500098;199;100 mA;
47.6819318796147;-0.899658203125;-0.07135009765625;1.98999999497573;200;100 mA;
47.6919318795894;-0.89874267578125;-0.070648193359375;1.99999999495049;201;100 mA;
47.7019318795642;-0.89935302734375;-0.070648193359375;2.00999999492524;202;100 mA;
47.711931879539;-0.8990478515625;-0.071319580078125;2.01999999489999;203;100 mA;
47.7219318795137;-0.89935302734375;-0.0706787109375;2.02999999487474;204;100 mA;
47.7319318794885;-0.899658203125;-0.071044921875;2.0399999948495;205;100 mA;
47.7419318794632;-0.89935302734375;-0.07098388671875;2.04999999482425;206;100 mA;
47.751931879438;-0.8984375;-0.07073974609375;2.059999994799;207;100 mA;
47.7619318794127;-0.8990478515625;-0.071258544921875;2.06999999477375;208;100 mA;
47.7719318793875;-0.89996337890625;-0.070556640625;2.0799999947485;209;100 mA;
47.7819318793622;-0.899658203125;-0.07049560546875;2.08999999472326;210;100 mA;
47.791931879337;-0.899658203125;-0.07080078125;2.09999999469801;211;100 mA;
47.8019318793117;-0.89996337890625;-0.07012939453125;2.10999999467276;212;100 mA;
47.8119318792865;-0.899658203125;-0.07037353515625;2.11999999464751;213;100 mA;
47.8219318792612;-0.89935302734375;-0.07012939453125;2.12999999462227;214;100 mA;
47.831931879236;-0.89874267578125;-0.069732666015625;2.13999999459702;215;100 mA;
47.8419318792107;-0.89996337890625;-0.070465087890625;2.14999999457177;216;100 mA;
47.8519318791855;-0.8990478515625;-0.069793701171875;2.15999999454652;217;100 mA;
47.8619318791602;-0.89935302734375;-0.069732666015625;2.16999999452128;218;100 mA;
47.871931879135;-0.89935302734375;-0.0701904296875;2.17999999449603;219;100 mA;
47.8819318791097;-0.89874267578125;-0.069854736328125;2.18999999447078;220;100 mA;
47.8919318790845;-0.8990478515625;-0.070343017578125;2.19999999444553;221;100 mA;
47.9019318790592;-0.89996337890625;-0.0701904296875;2.20999999442029;222;100 mA;
47.911931879034;-0.89874267578125;-0.070037841796875;2.21999999439504;223;100 mA;
47.9219318790088;-0.89935302734375;-0.071014404296875;2.22999999436979;224;100 mA;
47.9319318789835;-0.89996337890625;-0.0706787109375;2.23999999434454;225;100 mA;
47.9419318789583;-0.8990478515625;-0.07061767578125;2.2499999943193;226;100 mA;
47.951931878933;-0.89935302734375;-0.070831298828125;2.25999999429405;227;100 mA;
47.9619318789078;-0.899658203125;-0.07012939453125;2.2699999942688;228;100 mA;
47.9719318788825;-0.89996337890625;-0.070281982421875;2.27999999424355;229;100 mA;
47.9819318788573;-0.89935302734375;-0.0699462890625;2.28999999421831;230;100 mA;
47.991931878832;-0.89813232421875;-0.069183349609375;2.29999999419306;231;100 mA;
48.0019318788068;-0.899658203125;-0.069549560546875;2.30999999416781;232;100 mA;
48.0119318787815;-0.899658203125;-0.069122314453125;2.31999999414256;233;100 mA;
48.0219318787563;-0.899658203125;-0.069000244140625;2.32999999411732;234;100 mA;
48.031931878731;-0.8990478515625;-0.06915283203125;2.33999999409207;235;100 mA;
48.0419318787058;-0.899658203125;-0.068511962890625;2.34999999406682;236;100 mA;
48.0519318786805;-0.8990478515625;-0.069000244140625;2.35999999404157;237;100 mA;
48.0619318786553;-0.8990478515625;-0.068878173828125;2.36999999401633;238;100 mA;
48.07193187863;-0.8984375;-0.068389892578125;2.37999999399108;239;100 mA;
48.0819318786048;-0.899658203125;-0.0689697265625;2.38999999396583;240;100 mA;
48.0919318785795;-0.89935302734375;-0.068328857421875;2.39999999394058;241;100 mA;
48.1019318785543;-0.8990478515625;-0.068206787109375;2.40999999391533;242;100 mA;
48.111931878529;-0.89935302734375;-0.06854248046875;2.41999999389009;243;100 mA;
48.1219318785038;-0.899658203125;-0.06756591796875;2.42999999386484;244;100 mA;
48.1319318784786;-0.899658203125;-0.06793212890625;2.43999999383959;245;100 mA;
48.1419318784533;-0.89935302734375;-0.06787109375;2.44999999381434;246;100 mA;
48.1519318784281;-0.8990478515625;-0.0673828125;2.4599999937891;247;100 mA;
48.1619318784028;-0.8990478515625;-0.0677490234375;2.46999999376385;248;100 mA;
48.1719318783776;-0.89935302734375;-0.067138671875;2.4799999937386;249;100 mA;
48.1819318783523;-0.899658203125;-0.06732177734375;2.48999999371335;250;100 mA;
48.1919318783271;-0.8990478515625;-0.0679931640625;2.49999999368811;251;100 mA;
48.2019318783018;-0.899658203125;-0.067230224609375;2.50999999366286;252;100 mA;
48.2119318782766;-0.89935302734375;-0.06787109375;2.51999999363761;253;100 mA;
48.2219318782513;-0.89874267578125;-0.068084716796875;2.52999999361236;254;100 mA;
48.2319318782261;-0.8990478515625;-0.068145751953125;2.53999999358712;255;100 mA;
48.2419318782008;-0.8990478515625;-0.069183349609375;2.54999999356187;256;100 mA;
48.2519318781756;-0.89935302734375;-0.068817138671875;2.55999999353662;257;100 mA;
48.2619318781503;-0.89935302734375;-0.069122314453125;2.56999999351137;258;100 mA;
48.2719318781251;-0.899658203125;-0.069915771484375;2.57999999348613;259;100 mA;
48.2819318780998;-0.89935302734375;-0.0693359375;2.58999999346088;260;100 mA;
48.2919318780746;-0.8990478515625;-0.069915771484375;2.59999999343563;261;100 mA;
48.3019318780493;-0.8990478515625;-0.069976806640625;2.60999999341038;262;100 mA;
48.3119318780241;-0.899658203125;-0.06982421875;2.61999999338514;263;100 mA;
48.3219318779988;-0.899658203125;-0.07073974609375;2.62999999335989;264;100 mA;
48.3319318779736;-0.8990478515625;-0.070159912109375;2.63999999333464;265;100 mA;
48.3419318779484;-0.89935302734375;-0.070343017578125;2.64999999330939;266;100 mA;
48.3519318779231;-0.899658203125;-0.071044921875;2.65999999328415;267;100 mA;
48.3619318778979;-0.89935302734375;-0.070587158203125;2.6699999932589;268;100 mA;
48.3719318778726;-0.89935302734375;-0.071075439453125;2.67999999323365;269;100 mA;
48.3819318778474;-0.89935302734375;-0.070831298828125;2.6899999932084;270;100 mA;
48.3919318778221;-0.8990478515625;-0.07061767578125;2.69999999318316;271;100 mA;
48.4019318777969;-0.89935302734375;-0.071502685546875;2.70999999315791;272;100 mA;
48.4119318777716;-0.89935302734375;-0.0709228515625;2.71999999313266;273;100 mA;
48.4219318777464;-0.899658203125;-0.0709228515625;2.72999999310741;274;100 mA;
48.4319318777211;-0.899658203125;-0.07135009765625;2.73999999308217;275;100 mA;
48.4419318776959;-0.89935302734375;-0.07073974609375;2.74999999305692;276;100 mA;
48.4519318776706;-0.89935302734375;-0.0712890625;2.75999999303167;277;100 mA;
48.4619318776454;-0.8990478515625;-0.07098388671875;2.76999999300642;278;100 mA;
48.4719318776201;-0.89935302734375;-0.07037353515625;2.77999999298117;279;100 mA;
48.4819318775949;-0.89935302734375;-0.071014404296875;2.78999999295593;280;100 mA;
48.4919318775696;-0.899658203125;-0.07037353515625;2.79999999293068;281;100 mA;
48.5019318775444;-0.89935302734375;-0.070098876953125;2.80999999290543;282;100 mA;
48.5119318775191;-0.899658203125;-0.0701904296875;2.81999999288018;283;100 mA;
48.5219318774939;-0.89935302734375;-0.0692138671875;2.82999999285494;284;100 mA;
48.5319318774687;-0.89935302734375;-0.069580078125;2.83999999282969;285;100 mA;
48.5419318774434;-0.89935302734375;-0.069488525390625;2.84999999280444;286;100 mA;
48.5519318774182;-0.8990478515625;-0.0689697265625;2.85999999277919;287;100 mA;
48.5619318773929;-0.89935302734375;-0.06964111328125;2.86999999275395;288;100 mA;
48.5719318773677;-0.899658203125;-0.069183349609375;2.8799999927287;289;100 mA;
48.5819318773424;-0.899658203125;-0.06915283203125;2.88999999270345;290;100 mA;
48.5919318773172;-0.899658203125;-0.069610595703125;2.8999999926782;291;100 mA;
48.6019318772919;-0.89935302734375;-0.06890869140625;2.90999999265296;292;100 mA;
48.6119318772667;-0.89996337890625;-0.06951904296875;2.91999999262771;293;100 mA;
48.6219318772414;-0.8990478515625;-0.069580078125;2.92999999260246;294;100 mA;
48.6319318772162;-0.89813232421875;-0.069000244140625;2.93999999257721;295;100 mA;
48.6419318771909;-0.89935302734375;-0.0697021484375;2.94999999255197;296;100 mA;
48.6519318771657;-0.89935302734375;-0.069244384765625;2.95999999252672;297;100 mA;
48.6619318771404;-0.89935302734375;-0.0693359375;2.96999999250147;298;100 mA;
48.6719318771152;-0.899658203125;-0.069915771484375;2.97999999247622;299;100 mA;
48.6819318770899;-0.899658203125;-0.0692138671875;2.98999999245098;300;100 mA;
48.6919318770647;-0.89935302734375;-0.06976318359375;2.99999999242573;301;100 mA;
48.7019318770394;-0.89935302734375;-0.069793701171875;3.00999999240048;302;100 mA;
48.7119318770142;-0.899658203125;-0.069580078125;3.01999999237523;303;100 mA;
48.7219318769889;-0.899658203125;-0.070220947265625;3.02999999234999;304;100 mA;
48.7319318769637;-0.89996337890625;-0.0694580078125;3.03999999232474;305;100 mA;
48.7419318769385;-0.8990478515625;-0.069427490234375;3.04999999229949;306;100 mA;
48.7519318769132;-0.89996337890625;-0.069793701171875;3.05999999227424;307;100 mA;
48.761931876888;-0.89935302734375;-0.06890869140625;3.069999992249;308;100 mA;
48.7719318768627;-0.89935302734375;-0.069183349609375;3.07999999222375;309;100 mA;
48.7819318768375;-0.89874267578125;-0.069000244140625;3.0899999921985;310;100 mA;
48.7919318768122;-0.899658203125;-0.06866455078125;3.09999999217325;311;100 mA;
48.801931876787;-0.89935302734375;-0.069305419921875;3.109999992148;312;100 mA;
48.8119318767617;-0.89874267578125;-0.0684814453125;3.11999999212276;313;100 mA;
48.8219318767365;-0.89935302734375;-0.06854248046875;3.12999999209751;314;100 mA;
48.8319318767112;-0.8990478515625;-0.06927490234375;3.13999999207226;315;100 mA;
48.841931876686;-0.8990478515625;-0.068695068359375;3.14999999204701;316;100 mA;
48.8519318766607;-0.899658203125;-0.069122314453125;3.15999999202177;317;100 mA;
48.8619318766355;-0.89935302734375;-0.06890869140625;3.16999999199652;318;100 mA;
48.8719318766102;-0.89935302734375;-0.068878173828125;3.17999999197127;319;100 mA;
48.881931876585;-0.89935302734375;-0.07000732421875;3.18999999194602;320;100 mA;
48.8919318765597;-0.89935302734375;-0.06964111328125;3.19999999192078;321;100 mA;
48.9019318765345;-0.89935302734375;-0.069793701171875;3.20999999189553;322;100 mA;
48.9119318765092;-0.899658203125;-0.070343017578125;3.21999999187028;323;100 mA;
48.921931876484;-0.8990478515625;-0.0699462890625;3.22999999184503;324;100 mA;
48.9319318764587;-0.899658203125;-0.070404052734375;3.23999999181979;325;100 mA;
48.9419318764335;-0.89935302734375;-0.07012939453125;3.24999999179454;326;100 mA;
48.9519318764083;-0.89874267578125;-0.06982421875;3.25999999176929;327;100 mA;
48.961931876383;-0.899658203125;-0.07061767578125;3.26999999174404;328;100 mA;
48.9719318763578;-0.89935302734375;-0.070098876953125;3.2799999917188;329;100 mA;
48.9819318763325;-0.89935302734375;-0.070068359375;3.28999999169355;330;100 mA;
48.9919318763073;-0.89935302734375;-0.0703125;3.2999999916683;331;100 mA;
49.001931876282;-0.8990478515625;-0.06982421875;3.30999999164305;332;100 mA;
49.0119318762568;-0.8990478515625;-0.07061767578125;3.31999999161781;333;100 mA;
49.0219318762315;-0.89935302734375;-0.07061767578125;3.32999999159256;334;100 mA;
49.0319318762063;-0.8990478515625;-0.07025146484375;3.33999999156731;335;100 mA;
49.041931876181;-0.89935302734375;-0.07110595703125;3.34999999154206;336;100 mA;
49.0519318761558;-0.89935302734375;-0.070892333984375;3.35999999151682;337;100 mA;
49.0619318761305;-0.899658203125;-0.07122802734375;3.36999999149157;338;100 mA;
49.0719318761053;-0.89935302734375;-0.071746826171875;3.37999999146632;339;100 mA;
49.08193187608;-0.89935302734375;-0.071258544921875;3.38999999144107;340;100 mA;
49.0919318760548;-0.89874267578125;-0.07208251953125;3.39999999141583;341;100 mA;
49.1019318760295;-0.8990478515625;-0.07232666015625;3.40999999139058;342;100 mA;
49.1119318760043;-0.8990478515625;-0.072174072265625;3.41999999136533;343;100 mA;
49.121931875979;-0.89935302734375;-0.07305908203125;3.42999999134008;344;100 mA;
49.1319318759538;-0.89874267578125;-0.07269287109375;3.43999999131483;345;100 mA;
49.1419318759285;-0.89935302734375;-0.072906494140625;3.44999999128959;346;100 mA;
49.1519318759033;-0.8990478515625;-0.073486328125;3.45999999126434;347;100 mA;
49.1619318758781;-0.89935302734375;-0.0726318359375;3.46999999123909;348;100 mA;
49.1719318758528;-0.89874267578125;-0.07318115234375;3.47999999121384;349;100 mA;
49.1819318758276;-0.89935302734375;-0.073089599609375;3.4899999911886;350;100 mA;
49.1919318758023;-0.89874267578125;-0.072723388671875;3.49999999116335;351;100 mA;
49.2019318757771;-0.89935302734375;-0.073333740234375;3.5099999911381;352;100 mA;
49.2119318757518;-0.899658203125;-0.072540283203125;3.51999999111285;353;100 mA;
49.2219318757266;-0.899658203125;-0.072784423828125;3.52999999108761;354;100 mA;
49.2319318757013;-0.89874267578125;-0.07342529296875;3.53999999106236;355;100 mA;
49.2419318756761;-0.899658203125;-0.072723388671875;3.54999999103711;356;100 mA;
49.2519318756508;-0.89935302734375;-0.073272705078125;3.55999999101186;357;100 mA;
49.2619318756256;-0.89935302734375;-0.073333740234375;3.56999999098662;358;100 mA;
49.2719318756003;-0.89874267578125;-0.073089599609375;3.57999999096137;359;100 mA;
49.2819318755751;-0.8990478515625;-0.073822021484375;3.58999999093612;360;100 mA;
49.2919318755498;-0.89935302734375;-0.073211669921875;3.59999999091087;361;100 mA;
49.3019318755246;-0.899658203125;-0.073394775390625;3.60999999088563;362;100 mA;
49.3119318754993;-0.8990478515625;-0.073944091796875;3.61999999086038;363;100 mA;
49.3219318754741;-0.8990478515625;-0.07330322265625;3.62999999083513;364;100 mA;
49.3319318754488;-0.899658203125;-0.073699951171875;3.63999999080988;365;100 mA;
49.3419318754236;-0.8990478515625;-0.073272705078125;3.64999999078464;366;100 mA;
49.3519318753983;-0.89935302734375;-0.072906494140625;3.65999999075939;367;100 mA;
49.3619318753731;-0.89935302734375;-0.073455810546875;3.66999999073414;368;100 mA;
49.3719318753479;-0.89874267578125;-0.072479248046875;3.67999999070889;369;100 mA;
49.3819318753226;-0.89935302734375;-0.072296142578125;3.68999999068365;370;100 mA;
49.3919318752974;-0.899658203125;-0.072601318359375;3.6999999906584;371;100 mA;
49.4019318752721;-0.899658203125;-0.072021484375;3.70999999063315;372;100 mA;
49.4119318752469;-0.89935302734375;-0.072509765625;3.7199999906079;373;100 mA;
49.4219318752216;-0.8990478515625;-0.07232666015625;3.72999999058266;374;100 mA;
49.4319318751964;-0.8990478515625;-0.071990966796875;3.73999999055741;375;100 mA;
49.4419318751711;-0.8990478515625;-0.072845458984375;3.74999999053216;376;100 mA;
49.4519318751459;-0.899658203125;-0.072357177734375;3.75999999050691;377;100 mA;
49.4619318751206;-0.899658203125;-0.0723876953125;3.76999999048167;378;100 mA;
49.4719318750954;-0.899658203125;-0.0728759765625;3.77999999045642;379;100 mA;
49.4819318750701;-0.8990478515625;-0.0723876953125;3.78999999043117;380;100 mA;
49.4919318750449;-0.899658203125;-0.072998046875;3.79999999040592;381;100 mA;
49.5019318750196;-0.89935302734375;-0.0728759765625;3.80999999038067;382;100 mA;
49.5119318749944;-0.8990478515625;-0.0723876953125;3.81999999035543;383;100 mA;
49.5219318749691;-0.899658203125;-0.0731201171875;3.82999999033018;384;100 mA;
49.5319318749439;-0.89935302734375;-0.072509765625;3.83999999030493;385;100 mA;
49.5419318749186;-0.899658203125;-0.0723876953125;3.84999999027968;386;100 mA;
49.5519318748934;-0.899658203125;-0.0726318359375;3.85999999025444;387;100 mA;
49.5619318748682;-0.899658203125;-0.071685791015625;3.86999999022919;388;100 mA;
49.5719318748429;-0.89996337890625;-0.0721435546875;3.87999999020394;389;100 mA;
49.5819318748177;-0.8990478515625;-0.071807861328125;3.88999999017869;390;100 mA;
49.5919318747924;-0.89874267578125;-0.071075439453125;3.89999999015345;391;100 mA;
49.6019318747672;-0.899658203125;-0.071533203125;3.9099999901282;392;100 mA;
49.6119318747419;-0.8990478515625;-0.070892333984375;3.91999999010295;393;100 mA;
49.6219318747167;-0.8990478515625;-0.0709228515625;3.9299999900777;394;100 mA;
49.6319318746914;-0.899658203125;-0.071258544921875;3.93999999005246;395;100 mA;
49.6419318746662;-0.89935302734375;-0.07025146484375;3.94999999002721;396;100 mA;
49.6519318746409;-0.89935302734375;-0.07073974609375;3.95999999000196;397;100 mA;
49.6619318746157;-0.899658203125;-0.070587158203125;3.96999998997671;398;100 mA;
49.6719318745904;-0.8990478515625;-0.070068359375;3.97999998995147;399;100 mA;
49.6819318745652;-0.899658203125;-0.070709228515625;3.98999998992622;400;100 mA;
49.6919318745399;-0.9002685546875;-0.07012939453125;3.99999998990097;401;100 mA;
49.7019318745147;-0.89935302734375;-0.070281982421875;4.00999998987572;402;100 mA;
49.7119318744894;-0.899658203125;-0.071075439453125;4.01999998985048;403;100 mA;
49.7219318744642;-0.89935302734375;-0.0703125;4.02999998982523;404;100 mA;
49.7319318744389;-0.899658203125;-0.070892333984375;4.03999998979998;405;100 mA;
49.7419318744137;-0.8990478515625;-0.07098388671875;4.04999998977473;406;100 mA;
49.7519318743884;-0.89935302734375;-0.070648193359375;4.05999998974949;407;100 mA;
49.7619318743632;-0.89935302734375;-0.07135009765625;4.06999998972424;408;100 mA;
49.771931874338;-0.89935302734375;-0.070465087890625;4.07999998969899;409;100 mA;
49.7819318743127;-0.89935302734375;-0.070556640625;4.08999998967374;410;100 mA;
49.7919318742875;-0.899658203125;-0.071044921875;4.0999999896485;411;100 mA;
49.8019318742622;-0.8990478515625;-0.07012939453125;4.10999998962325;412;100 mA;
49.811931874237;-0.899658203125;-0.070526123046875;4.119999989598;413;100 mA;
49.8219318742117;-0.89935302734375;-0.070587158203125;4.12999998957275;414;100 mA;
49.8319318741865;-0.8990478515625;-0.0704345703125;4.1399999895475;415;100 mA;
49.8419318741612;-0.89935302734375;-0.071319580078125;4.14999998952226;416;100 mA;
49.851931874136;-0.8990478515625;-0.070709228515625;4.15999998949701;417;100 mA;
49.8619318741107;-0.899658203125;-0.07086181640625;4.16999998947176;418;100 mA;
49.8719318740855;-0.89935302734375;-0.071685791015625;4.17999998944651;419;100 mA;
49.8819318740602;-0.899658203125;-0.071319580078125;4.18999998942127;420;100 mA;
49.891931874035;-0.8990478515625;-0.0718994140625;4.19999998939602;421;100 mA;
49.9019318740097;-0.89935302734375;-0.07177734375;4.20999998937077;422;100 mA;
49.9119318739845;-0.8990478515625;-0.071563720703125;4.21999998934552;423;100 mA;
49.9219318739592;-0.89935302734375;-0.072418212890625;4.22999998932028;424;100 mA;
49.931931873934;-0.8990478515625;-0.071929931640625;4.23999998929503;425;100 mA;
49.9419318739087;-0.899658203125;-0.072021484375;4.24999998926978;426;100 mA;
49.9519318738835;-0.8990478515625;-0.072479248046875;4.25999998924453;427;100 mA;
49.9619318738582;-0.89874267578125;-0.071746826171875;4.26999998921929;428;100 mA;
49.971931873833;-0.89874267578125;-0.072052001953125;4.27999998919404;429;100 mA;
49.9819318738078;-0.89996337890625;-0.07159423828125;4.28999998916879;430;100 mA;
49.9919318737825;-0.899658203125;-0.070831298828125;4.29999998914354;431;100 mA;
50.0019318737573;-0.899658203125;-0.071441650390625;4.3099999891183;432;100 mA;
50.011931873732;-0.899658203125;-0.070709228515625;4.31999998909305;433;100 mA;
50.0219318737068;-0.8990478515625;-0.070556640625;4.3299999890678;434;100 mA;
50.0319318736815;-0.899658203125;-0.071014404296875;4.33999998904255;435;100 mA;
50.0419318736563;-0.89996337890625;-0.07049560546875;4.34999998901731;436;100 mA;
50.051931873631;-0.89935302734375;-0.0712890625;4.35999998899206;437;100 mA;
50.0619318736058;-0.89996337890625;-0.071441650390625;4.36999998896681;438;100 mA;
50.0719318735805;-0.89935302734375;-0.071044921875;4.37999998894156;439;100 mA;
50.0819318735553;-0.8990478515625;-0.071746826171875;4.38999998891632;440;100 mA;
50.09193187353;-0.89874267578125;-0.0712890625;4.39999998889107;441;100 mA;
50.1019318735048;-0.89935302734375;-0.071441650390625;4.40999998886582;442;100 mA;
50.1119318734795;-0.89996337890625;-0.07183837890625;4.41999998884057;443;100 mA;
50.1219318734543;-0.89874267578125;-0.071075439453125;4.42999998881533;444;100 mA;
50.131931873429;-0.89935302734375;-0.07183837890625;4.43999998879008;445;100 mA;
50.1419318734038;-0.899658203125;-0.071807861328125;4.44999998876483;446;100 mA;
50.1519318733785;-0.899658203125;-0.07135009765625;4.45999998873958;447;100 mA;
50.1619318733533;-0.89935302734375;-0.07208251953125;4.46999998871433;448;100 mA;
50.171931873328;-0.8990478515625;-0.0712890625;4.47999998868909;449;100 mA;
50.1819318733028;-0.899658203125;-0.071044921875;4.48999998866384;450;100 mA;
50.1919318732776;-0.8990478515625;-0.0711669921875;4.49999998863859;451;100 mA;
50.2019318732523;-0.89935302734375;-0.070068359375;4.50999998861334;452;100 mA;
50.2119318732271;-0.8990478515625;-0.070587158203125;4.5199999885881;453;100 mA;
50.2219318732018;-0.89935302734375;-0.070526123046875;4.52999998856285;454;100 mA;
50.2319318731766;-0.899658203125;-0.06982421875;4.5399999885376;455;100 mA;
50.2419318731513;-0.89935302734375;-0.07025146484375;4.54999998851235;456;100 mA;
50.2519318731261;-0.899658203125;-0.069549560546875;4.55999998848711;457;100 mA;
50.2619318731008;-0.899658203125;-0.069610595703125;4.56999998846186;458;100 mA;
50.2719318730756;-0.899658203125;-0.070465087890625;4.57999998843661;459;100 mA;
50.2819318730503;-0.89935302734375;-0.069671630859375;4.58999998841136;460;100 mA;
50.2919318730251;-0.89935302734375;-0.070220947265625;4.59999998838612;461;100 mA;
50.3019318729998;-0.8990478515625;-0.07049560546875;4.60999998836087;462;100 mA;
50.3119318729746;-0.89935302734375;-0.070343017578125;4.61999998833562;463;100 mA;
50.3219318729493;-0.899658203125;-0.07122802734375;4.62999998831037;464;100 mA;
50.3319318729241;-0.89935302734375;-0.07049560546875;4.63999998828513;465;100 mA;
50.3419318728988;-0.89935302734375;-0.07086181640625;4.64999998825988;466;100 mA;
50.3519318728736;-0.899658203125;-0.071868896484375;4.65999998823463;467;100 mA;
50.3619318728483;-0.8990478515625;-0.071380615234375;4.66999998820938;468;100 mA;
50.3719318728231;-0.89996337890625;-0.071807861328125;4.67999998818414;469;100 mA;
50.3819318727978;-0.8990478515625;-0.071746826171875;4.68999998815889;470;100 mA;
50.3919318727726;-0.899658203125;-0.071319580078125;4.69999998813364;471;100 mA;
50.4019318727474;-0.89935302734375;-0.072174072265625;4.70999998810839;472;100 mA;
50.4119318727221;-0.8990478515625;-0.0714111328125;4.71999998808315;473;100 mA;
50.4219318726969;-0.8990478515625;-0.07110595703125;4.7299999880579;474;100 mA;
50.4319318726716;-0.89935302734375;-0.071990966796875;4.73999998803265;475;100 mA;
50.4419318726464;-0.89935302734375;-0.07147216796875;4.7499999880074;476;100 mA;
50.4519318726211;-0.89935302734375;-0.071868896484375;4.75999998798216;477;100 mA;
50.4619318725959;-0.89935302734375;-0.071624755859375;4.76999998795691;478;100 mA;
50.4719318725706;-0.89935302734375;-0.0712890625;4.77999998793166;479;100 mA;
50.4819318725454;-0.899658203125;-0.0721435546875;4.78999998790641;480;100 mA;
50.4919318725201;-0.89996337890625;-0.071563720703125;4.79999998788116;481;100 mA;
50.5019318724949;-0.89996337890625;-0.071502685546875;4.80999998785592;482;100 mA;
50.5119318724696;-0.89935302734375;-0.071868896484375;4.81999998783067;483;100 mA;
50.5219318724444;-0.9002685546875;-0.07122802734375;4.82999998780542;484;100 mA;
50.5319318724191;-0.899658203125;-0.07171630859375;4.83999998778017;485;100 mA;
50.5419318723939;-0.89935302734375;-0.0712890625;4.84999998775493;486;100 mA;
50.5519318723686;-0.8990478515625;-0.070587158203125;4.85999998772968;487;100 mA;
50.5619318723434;-0.899658203125;-0.0714111328125;4.86999998770443;488;100 mA;
50.5719318723181;-0.8990478515625;-0.070953369140625;4.87999998767918;489;100 mA;
50.5819318722929;-0.89935302734375;-0.0709228515625;4.88999998765394;490;100 mA;
50.5919318722677;-0.8990478515625;-0.07110595703125;4.89999998762869;491;100 mA;
50.6019318722424;-0.89935302734375;-0.0704345703125;4.90999998760344;492;100 mA;
50.6119318722172;-0.89935302734375;-0.07086181640625;4.91999998757819;493;100 mA;
50.6219318721919;-0.89935302734375;-0.070770263671875;4.92999998755295;494;100 mA;
50.6319318721667;-0.89935302734375;-0.070159912109375;4.9399999875277;495;100 mA;
50.6419318721414;-0.89935302734375;-0.070404052734375;4.94999998750245;496;100 mA;
50.6519318721162;-0.899658203125;-0.06982421875;4.9599999874772;497;100 mA;
50.6619318720909;-0.89935302734375;-0.069732666015625;4.96999998745196;498;100 mA;
50.6719318720657;-0.89874267578125;-0.070037841796875;4.97999998742671;499;100 mA;
50.6819318720404;-0.89935302734375;-0.069305419921875;4.98999998740146;500;100 mA;
50.6919318720152;-0.8990478515625;-0.0697021484375;4.99999998737621;501;100 mA;
50.7019318719899;-0.8990478515625;-0.069915771484375;5.00999998735097;502;100 mA;
50.7119318719647;-0.899658203125;-0.069488525390625;5.01999998732572;503;100 mA;
50.7219318719394;-0.899658203125;-0.069854736328125;5.02999998730047;504;100 mA;
50.7319318719142;-0.8990478515625;-0.06915283203125;5.03999998727522;505;100 mA;
50.7419318718889;-0.8990478515625;-0.06927490234375;5.04999998724998;506;100 mA;
50.7519318718637;-0.89935302734375;-0.06976318359375;5.05999998722473;507;100 mA;
50.7619318718384;-0.8990478515625;-0.069000244140625;5.06999998719948;508;100 mA;
50.7719318718132;-0.89935302734375;-0.0694580078125;5.07999998717423;509;100 mA;
50.7819318717879;-0.89935302734375;-0.069610595703125;5.08999998714899;510;100 mA;
50.7919318717627;-0.89996337890625;-0.069366455078125;5.09999998712374;511;100 mA;
50.8019318717375;-0.89935302734375;-0.07012939453125;5.10999998709849;512;100 mA;
50.8119318717122;-0.89935302734375;-0.069610595703125;5.11999998707324;513;100 mA;
50.821931871687;-0.89935302734375;-0.0699462890625;5.129999987048;514;100 mA;
50.8319318716617;-0.89935302734375;-0.070770263671875;5.13999998702275;515;100 mA;
50.8419318716365;-0.899658203125;-0.070037841796875;5.1499999869975;516;100 mA;
50.8519318716112;-0.89935302734375;-0.07061767578125;5.15999998697225;517;100 mA;
50.861931871586;-0.89935302734375;-0.070465087890625;5.169999986947;518;100 mA;
50.8719318715607;-0.8990478515625;-0.070220947265625;5.17999998692176;519;100 mA;
50.8819318715355;-0.899658203125;-0.0711669921875;5.18999998689651;520;100 mA;
50.8919318715102;-0.8990478515625;-0.0704345703125;5.19999998687126;521;100 mA;
50.901931871485;-0.899658203125;-0.070648193359375;5.20999998684601;522;100 mA;
50.9119318714597;-0.89996337890625;-0.071136474609375;5.21999998682077;523;100 mA;
50.9219318714345;-0.89935302734375;-0.070892333984375;5.22999998679552;524;100 mA;
50.9319318714092;-0.89935302734375;-0.07159423828125;5.23999998677027;525;100 mA;
50.941931871384;-0.89996337890625;-0.07159423828125;5.24999998674502;526;100 mA;
50.9519318713587;-0.89935302734375;-0.071563720703125;5.25999998671978;527;100 mA;
50.9619318713335;-0.89935302734375;-0.072784423828125;5.26999998669453;528;100 mA;
50.9719318713082;-0.89996337890625;-0.07232666015625;5.27999998666928;529;100 mA;
50.981931871283;-0.9002685546875;-0.072296142578125;5.28999998664403;530;100 mA;
50.9919318712577;-0.8990478515625;-0.072540283203125;5.29999998661879;531;100 mA;
51.0019318712325;-0.89996337890625;-0.071868896484375;5.30999998659354;532;100 mA;
51.0119318712073;-0.89935302734375;-0.072357177734375;5.31999998656829;533;100 mA;
51.021931871182;-0.899658203125;-0.072052001953125;5.32999998654304;534;100 mA;
51.0319318711568;-0.899658203125;-0.071746826171875;5.3399999865178;535;100 mA;
51.0419318711315;-0.899658203125;-0.07257080078125;5.34999998649255;536;100 mA;
51.0519318711063;-0.89935302734375;-0.071990966796875;5.3599999864673;537;100 mA;
51.061931871081;-0.899658203125;-0.07183837890625;5.36999998644205;538;100 mA;
51.0719318710558;-0.89935302734375;-0.072021484375;5.37999998641681;539;100 mA;
51.0819318710305;-0.899658203125;-0.071258544921875;5.38999998639156;540;100 mA;
51.0919318710053;-0.899658203125;-0.071685791015625;5.39999998636631;541;100 mA;
51.10193187098;-0.899658203125;-0.071380615234375;5.40999998634106;542;100 mA;
51.1119318709548;-0.899658203125;-0.070648193359375;5.41999998631582;543;100 mA;
51.1219318709295;-0.89935302734375;-0.071075439453125;5.42999998629057;544;100 mA;
51.1319318709043;-0.9002685546875;-0.070648193359375;5.43999998626532;545;100 mA;
51.141931870879;-0.899658203125;-0.070709228515625;5.44999998624007;546;100 mA;
51.1519318708538;-0.89874267578125;-0.070953369140625;5.45999998621483;547;100 mA;
51.1619318708285;-0.899658203125;-0.0703125;5.46999998618958;548;100 mA;
51.1719318708033;-0.89935302734375;-0.07098388671875;5.47999998616433;549;100 mA;
51.181931870778;-0.89935302734375;-0.071136474609375;5.48999998613908;550;100 mA;
51.1919318707528;-0.89935302734375;-0.070648193359375;5.49999998611383;551;100 mA;
51.2019318707275;-0.899658203125;-0.07122802734375;5.50999998608859;552;100 mA;
51.2119318707023;-0.89935302734375;-0.070556640625;5.51999998606334;553;100 mA;
51.2219318706771;-0.89935302734375;-0.070526123046875;5.52999998603809;554;100 mA;
51.2319318706518;-0.89935302734375;-0.071197509765625;5.53999998601284;555;100 mA;
51.2419318706266;-0.89996337890625;-0.070343017578125;5.5499999859876;556;100 mA;
51.2519318706013;-0.899658203125;-0.070892333984375;5.55999998596235;557;100 mA;
51.2619318705761;-0.89935302734375;-0.071075439453125;5.5699999859371;558;100 mA;
51.2719318705508;-0.899658203125;-0.070770263671875;5.57999998591185;559;100 mA;
51.2819318705256;-0.89935302734375;-0.071533203125;5.58999998588661;560;100 mA;
51.2919318705003;-0.8990478515625;-0.070709228515625;5.59999998586136;561;100 mA;
51.3019318704751;-0.89935302734375;-0.07080078125;5.60999998583611;562;100 mA;
51.3119318704498;-0.89935302734375;-0.07122802734375;5.61999998581086;563;100 mA;
51.3219318704246;-0.899658203125;-0.070465087890625;5.62999998578562;564;100 mA;
51.3319318703993;-0.89935302734375;-0.070831298828125;5.63999998576037;565;100 mA;
51.3419318703741;-0.89935302734375;-0.0706787109375;5.64999998573512;566;100 mA;
51.3519318703488;-0.899658203125;-0.070465087890625;5.65999998570987;567;100 mA;
51.3619318703236;-0.899658203125;-0.07122802734375;5.66999998568463;568;100 mA;
51.3719318702983;-0.89935302734375;-0.070526123046875;5.67999998565938;569;100 mA;
51.3819318702731;-0.89935302734375;-0.07061767578125;5.68999998563413;570;100 mA;
51.3919318702478;-0.89935302734375;-0.07135009765625;5.69999998560888;571;100 mA;
51.4019318702226;-0.8990478515625;-0.070709228515625;5.70999998558364;572;100 mA;
51.4119318701973;-0.89935302734375;-0.070953369140625;5.71999998555839;573;100 mA;
51.4219318701721;-0.89935302734375;-0.070556640625;5.72999998553314;574;100 mA;
51.4319318701469;-0.8990478515625;-0.070068359375;5.73999998550789;575;100 mA;
51.4419318701216;-0.899658203125;-0.07073974609375;5.74999998548265;576;100 mA;
51.4519318700964;-0.89996337890625;-0.069915771484375;5.7599999854574;577;100 mA;
51.4619318700711;-0.89935302734375;-0.06976318359375;5.76999998543215;578;100 mA;
51.4719318700459;-0.899658203125;-0.070159912109375;5.7799999854069;579;100 mA;
51.4819318700206;-0.9002685546875;-0.069610595703125;5.78999998538166;580;100 mA;
51.4919318699954;-0.8990478515625;-0.069976806640625;5.79999998535641;581;100 mA;
51.5019318699701;-0.8990478515625;-0.06988525390625;5.80999998533116;582;100 mA;
51.5119318699449;-0.8990478515625;-0.069488525390625;5.81999998530591;583;100 mA;
51.5219318699196;-0.89935302734375;-0.07012939453125;5.82999998528066;584;100 mA;
51.5319318698944;-0.89874267578125;-0.0694580078125;5.83999998525542;585;100 mA;
51.5419318698691;-0.899658203125;-0.06927490234375;5.84999998523017;586;100 mA;
51.5519318698439;-0.89874267578125;-0.069580078125;5.85999998520492;587;100 mA;
51.5619318698186;-0.8990478515625;-0.069244384765625;5.86999998517967;588;100 mA;
51.5719318697934;-0.899658203125;-0.069671630859375;5.87999998515443;589;100 mA;
51.5819318697681;-0.89935302734375;-0.0697021484375;5.88999998512918;590;100 mA;
51.5919318697429;-0.8990478515625;-0.0693359375;5.89999998510393;591;100 mA;
51.6019318697176;-0.8990478515625;-0.07037353515625;5.90999998507868;592;100 mA;
51.6119318696924;-0.89935302734375;-0.070281982421875;5.91999998505344;593;100 mA;
51.6219318696672;-0.89996337890625;-0.070587158203125;5.92999998502819;594;100 mA;
51.6319318696419;-0.89935302734375;-0.0711669921875;5.93999998500294;595;100 mA;
51.6419318696167;-0.89935302734375;-0.070648193359375;5.94999998497769;596;100 mA;
51.6519318695914;-0.899658203125;-0.071380615234375;5.95999998495245;597;100 mA;
51.6619318695662;-0.8990478515625;-0.07135009765625;5.9699999849272;598;100 mA;
51.6719318695409;-0.89935302734375;-0.07073974609375;5.97999998490195;599;100 mA;
51.6819318695157;-0.899658203125;-0.0712890625;5.9899999848767;600;100 mA;
51.6919318694904;-0.89935302734375;-0.07061767578125;5.99999998485146;601;100 mA;
51.7019318694652;-0.89935302734375;-0.070343017578125;6.00999998482621;602;100 mA;
51.7119318694399;-0.8990478515625;-0.070587158203125;6.01999998480096;603;100 mA;
51.7219318694147;-0.89935302734375;-0.06976318359375;6.02999998477571;604;100 mA;
51.7319318693894;-0.89874267578125;-0.07025146484375;6.03999998475047;605;100 mA;
51.7419318693642;-0.8990478515625;-0.0703125;6.04999998472522;606;100 mA;
51.7519318693389;-0.89935302734375;-0.069915771484375;6.05999998469997;607;100 mA;
51.7619318693137;-0.89935302734375;-0.070465087890625;6.06999998467472;608;100 mA;
51.7719318692884;-0.8990478515625;-0.07000732421875;6.07999998464948;609;100 mA;
51.7819318692632;-0.899658203125;-0.0701904296875;6.08999998462423;610;100 mA;
51.7919318692379;-0.89935302734375;-0.071014404296875;6.09999998459898;611;100 mA;
51.8019318692127;-0.89935302734375;-0.07049560546875;6.10999998457373;612;100 mA;
51.8119318691874;-0.8990478515625;-0.0712890625;6.11999998454849;613;100 mA;
51.8219318691622;-0.8990478515625;-0.071533203125;6.12999998452324;614;100 mA;
51.831931869137;-0.899658203125;-0.071380615234375;6.13999998449799;615;100 mA;
51.8419318691117;-0.8990478515625;-0.07208251953125;6.14999998447274;616;100 mA;
51.8519318690865;-0.89874267578125;-0.071502685546875;6.1599999844475;617;100 mA;
51.8619318690612;-0.89996337890625;-0.071746826171875;6.16999998442225;618;100 mA;
51.871931869036;-0.89935302734375;-0.072662353515625;6.179999984397;619;100 mA;
51.8819318690107;-0.89874267578125;-0.072021484375;6.18999998437175;620;100 mA;
51.8919318689855;-0.89874267578125;-0.072479248046875;6.1999999843465;621;100 mA;
51.9019318689602;-0.89935302734375;-0.072509765625;6.20999998432126;622;100 mA;
51.911931868935;-0.899658203125;-0.07244873046875;6.21999998429601;623;100 mA;
51.9219318689097;-0.89935302734375;-0.073333740234375;6.22999998427076;624;100 mA;
51.9319318688845;-0.9002685546875;-0.072784423828125;6.23999998424551;625;100 mA;
51.9419318688592;-0.89935302734375;-0.07305908203125;6.24999998422027;626;100 mA;
51.951931868834;-0.89874267578125;-0.07379150390625;6.25999998419502;627;100 mA;
51.9619318688087;-0.89996337890625;-0.07318115234375;6.26999998416977;628;100 mA;
51.9719318687835;-0.899658203125;-0.073394775390625;6.27999998414452;629;100 mA;
51.9819318687582;-0.89996337890625;-0.073150634765625;6.28999998411928;630;100 mA;
51.991931868733;-0.899658203125;-0.072479248046875;6.29999998409403;631;100 mA;
52.0019318687077;-0.899658203125;-0.07318115234375;6.30999998406878;632;100 mA;
52.0119318686825;-0.8990478515625;-0.072357177734375;6.31999998404353;633;100 mA;
52.0219318686572;-0.8990478515625;-0.072052001953125;6.32999998401829;634;100 mA;
52.031931868632;-0.899658203125;-0.072296142578125;6.33999998399304;635;100 mA;
52.0419318686068;-0.89874267578125;-0.07171630859375;6.34999998396779;636;100 mA;
52.0519318685815;-0.89935302734375;-0.072265625;6.35999998394254;637;100 mA;
52.0619318685563;-0.8990478515625;-0.072113037109375;6.3699999839173;638;100 mA;
52.071931868531;-0.89935302734375;-0.071685791015625;6.37999998389205;639;100 mA;
52.0819318685058;-0.8990478515625;-0.07269287109375;6.3899999838668;640;100 mA;
52.0919318684805;-0.89935302734375;-0.0723876953125;6.39999998384155;641;100 mA;
52.1019318684553;-0.899658203125;-0.072479248046875;6.40999998381631;642;100 mA;
52.11193186843;-0.899658203125;-0.0728759765625;6.41999998379106;643;100 mA;
52.1219318684048;-0.89935302734375;-0.0723876953125;6.42999998376581;644;100 mA;
52.1319318683795;-0.89935302734375;-0.0728759765625;6.43999998374056;645;100 mA;
52.1419318683543;-0.8990478515625;-0.07257080078125;6.44999998371532;646;100 mA;
52.151931868329;-0.89935302734375;-0.07183837890625;6.45999998369007;647;100 mA;
52.1619318683038;-0.9002685546875;-0.07220458984375;6.46999998366482;648;100 mA;
52.1719318682785;-0.89935302734375;-0.072021484375;6.47999998363957;649;100 mA;
52.1819318682533;-0.89935302734375;-0.07220458984375;6.48999998361433;650;100 mA;
52.191931868228;-0.89935302734375;-0.072601318359375;6.49999998358908;651;100 mA;
52.2019318682028;-0.89935302734375;-0.07177734375;6.50999998356383;652;100 mA;
52.2119318681775;-0.8984375;-0.072418212890625;6.51999998353858;653;100 mA;
52.2219318681523;-0.8990478515625;-0.07244873046875;6.52999998351333;654;100 mA;
52.231931868127;-0.89935302734375;-0.071929931640625;6.53999998348809;655;100 mA;
52.2419318681018;-0.89935302734375;-0.072113037109375;6.54999998346284;656;100 mA;
52.2519318680766;-0.899658203125;-0.071441650390625;6.55999998343759;657;100 mA;
52.2619318680513;-0.89935302734375;-0.071319580078125;6.56999998341234;658;100 mA;
52.2719318680261;-0.89935302734375;-0.071563720703125;6.5799999833871;659;100 mA;
52.2819318680008;-0.89996337890625;-0.070556640625;6.58999998336185;660;100 mA;
52.2919318679756;-0.8990478515625;-0.07086181640625;6.5999999833366;661;100 mA;
52.3019318679503;-0.899658203125;-0.07073974609375;6.60999998331135;662;100 mA;
52.3119318679251;-0.89935302734375;-0.070343017578125;6.61999998328611;663;100 mA;
52.3219318678998;-0.89996337890625;-0.07080078125;6.62999998326086;664;100 mA;
52.3319318678746;-0.8990478515625;-0.069976806640625;6.63999998323561;665;100 mA;
52.3419318678493;-0.89935302734375;-0.0699462890625;6.64999998321036;666;100 mA;
52.3519318678241;-0.899658203125;-0.070556640625;6.65999998318512;667;100 mA;
52.3619318677988;-0.8990478515625;-0.069732666015625;6.66999998315987;668;100 mA;
52.3719318677736;-0.8990478515625;-0.070159912109375;6.67999998313462;669;100 mA;
52.3819318677483;-0.899658203125;-0.0701904296875;6.68999998310937;670;100 mA;
52.3919318677231;-0.899658203125;-0.06988525390625;6.69999998308413;671;100 mA;
52.4019318676978;-0.8990478515625;-0.07061767578125;6.70999998305888;672;100 mA;
52.4119318676726;-0.899658203125;-0.069976806640625;6.71999998303363;673;100 mA;
52.4219318676473;-0.89935302734375;-0.070037841796875;6.72999998300838;674;100 mA;
52.4319318676221;-0.8990478515625;-0.070648193359375;6.73999998298314;675;100 mA;
52.4419318675968;-0.8990478515625;-0.06976318359375;6.74999998295789;676;100 mA;
52.4519318675716;-0.899658203125;-0.070281982421875;6.75999998293264;677;100 mA;
52.4619318675464;-0.899658203125;-0.070068359375;6.76999998290739;678;100 mA;
52.4719318675211;-0.8990478515625;-0.069580078125;6.77999998288215;679;100 mA;
52.4819318674959;-0.899658203125;-0.070068359375;6.7899999828569;680;100 mA;
52.4919318674706;-0.8990478515625;-0.06951904296875;6.79999998283165;681;100 mA;
52.5019318674454;-0.89935302734375;-0.069580078125;6.8099999828064;682;100 mA;
52.5119318674201;-0.8990478515625;-0.07025146484375;6.81999998278116;683;100 mA;
52.5219318673949;-0.8990478515625;-0.070037841796875;6.82999998275591;684;100 mA;
52.5319318673696;-0.89935302734375;-0.070526123046875;6.83999998273066;685;100 mA;
52.5419318673444;-0.89935302734375;-0.070343017578125;6.84999998270541;686;100 mA;
52.5519318673191;-0.89935302734375;-0.070037841796875;6.85999998268016;687;100 mA;
52.5619318672939;-0.89935302734375;-0.07080078125;6.86999998265492;688;100 mA;
52.5719318672686;-0.89935302734375;-0.070465087890625;6.87999998262967;689;100 mA;
52.5819318672434;-0.89935302734375;-0.070465087890625;6.88999998260442;690;100 mA;
52.5919318672181;-0.89935302734375;-0.07049560546875;6.89999998257917;691;100 mA;
52.6019318671929;-0.89935302734375;-0.070343017578125;6.90999998255393;692;100 mA;
52.6119318671676;-0.8990478515625;-0.070831298828125;6.91999998252868;693;100 mA;
52.6219318671424;-0.8990478515625;-0.070770263671875;6.92999998250343;694;100 mA;
52.6319318671171;-0.89935302734375;-0.0704345703125;6.93999998247818;695;100 mA;
52.6419318670919;-0.89935302734375;-0.07122802734375;6.94999998245294;696;100 mA;
52.6519318670667;-0.89874267578125;-0.0709228515625;6.95999998242769;697;100 mA;
52.6619318670414;-0.8990478515625;-0.071075439453125;6.96999998240244;698;100 mA;
52.6719318670162;-0.89935302734375;-0.07135009765625;6.97999998237719;699;100 mA;
52.6819318669909;-0.8990478515625;-0.070556640625;6.98999998235195;700;100 mA;
