Time (s);WE(1).Potential (V);WE(1).Current (A);Corrected time (s);Index;Current range;Overload
68.5944438268157;-1.002197265625;-0.3829345703125;0;1;100 mA;Current overload
68.6044438267904;-1.00006103515625;-0.2667236328125;0.00999999997475243;2;100 mA;
68.6144438267652;-0.99945068359375;-0.21563720703125;0.0199999999495049;3;100 mA;
68.6244438267399;-0.9991455078125;-0.1873779296875;0.0299999999242573;4;100 mA;
68.6344438267147;-0.99945068359375;-0.16607666015625;0.0399999998990097;5;100 mA;
68.6444438266894;-1.0003662109375;-0.1513671875;0.0499999998737621;6;100 mA;
68.6544438266642;-0.9991455078125;-0.14013671875;0.0599999998485146;7;100 mA;
68.6644438266389;-1.00006103515625;-0.130706787109375;0.069999999823267;8;100 mA;
68.6744438266137;-0.9991455078125;-0.124237060546875;0.0799999997980194;9;100 mA;
68.6844438265884;-0.99945068359375;-0.11785888671875;0.0899999997727718;10;100 mA;
68.6944438265632;-0.99945068359375;-0.112396240234375;0.0999999997475243;11;100 mA;
68.704443826538;-0.99945068359375;-0.1087646484375;0.109999999722277;12;100 mA;
68.7144438265127;-0.99945068359375;-0.1044921875;0.119999999697029;13;100 mA;
68.7244438264875;-0.99945068359375;-0.101409912109375;0.129999999671782;14;100 mA;
68.7344438264622;-0.99945068359375;-0.098785400390625;0.139999999646534;15;100 mA;
68.744443826437;-0.9991455078125;-0.095794677734375;0.149999999621286;16;100 mA;
68.7544438264117;-1.00006103515625;-0.094329833984375;0.159999999596039;17;100 mA;
68.7644438263865;-0.9991455078125;-0.092010498046875;0.169999999570791;18;100 mA;
68.7744438263612;-0.99945068359375;-0.09039306640625;0.179999999545544;19;100 mA;
68.784443826336;-0.99945068359375;-0.089508056640625;0.189999999520296;20;100 mA;
68.7944438263107;-0.99945068359375;-0.087646484375;0.199999999495049;21;100 mA;
68.8044438262855;-0.99853515625;-0.086761474609375;0.209999999469801;22;100 mA;
68.8144438262602;-0.9991455078125;-0.086090087890625;0.219999999444553;23;100 mA;
68.824443826235;-0.99945068359375;-0.08453369140625;0.229999999419306;24;100 mA;
68.8344438262097;-0.9991455078125;-0.084442138671875;0.239999999394058;25;100 mA;
68.8444438261845;-0.9991455078125;-0.083404541015625;0.249999999368811;26;100 mA;
68.8544438261592;-0.999755859375;-0.08251953125;0.259999999343563;27;100 mA;
68.864443826134;-0.99945068359375;-0.082061767578125;0.269999999318316;28;100 mA;
68.8744438261087;-0.99884033203125;-0.080902099609375;0.279999999293068;29;100 mA;
68.8844438260835;-0.9991455078125;-0.0804443359375;0.28999999926782;30;100 mA;
68.8944438260583;-0.999755859375;-0.080169677734375;0.299999999242573;31;100 mA;
68.904443826033;-0.99945068359375;-0.07891845703125;0.309999999217325;32;100 mA;
68.9144438260078;-0.9991455078125;-0.078704833984375;0.319999999192078;33;100 mA;
68.9244438259825;-1.00006103515625;-0.078033447265625;0.32999999916683;34;100 mA;
68.9344438259573;-0.9991455078125;-0.0772705078125;0.339999999141583;35;100 mA;
68.944443825932;-0.999755859375;-0.07769775390625;0.349999999116335;36;100 mA;
68.9544438259068;-0.999755859375;-0.076751708984375;0.359999999091087;37;100 mA;
68.9644438258815;-0.99945068359375;-0.076904296875;0.36999999906584;38;100 mA;
68.9744438258563;-0.999755859375;-0.077056884765625;0.379999999040592;39;100 mA;
68.984443825831;-1.00006103515625;-0.07659912109375;0.389999999015345;40;100 mA;
68.9944438258058;-0.9991455078125;-0.07684326171875;0.399999998990097;41;100 mA;
69.0044438257805;-0.9991455078125;-0.076080322265625;0.40999999896485;42;100 mA;
69.0144438257553;-0.99945068359375;-0.07550048828125;0.419999998939602;43;100 mA;
69.02444382573;-0.999755859375;-0.076202392578125;0.429999998914354;44;100 mA;
69.0344438257048;-0.9991455078125;-0.075042724609375;0.439999998889107;45;100 mA;
69.0444438256795;-0.99945068359375;-0.074859619140625;0.449999998863859;46;100 mA;
69.0544438256543;-0.99945068359375;-0.074859619140625;0.459999998838612;47;100 mA;
69.064443825629;-0.999755859375;-0.073944091796875;0.469999998813364;48;100 mA;
69.0744438256038;-0.99945068359375;-0.07415771484375;0.479999998788116;49;100 mA;
69.0844438255785;-1.0003662109375;-0.07366943359375;0.489999998762869;50;100 mA;
69.0944438255533;-0.99945068359375;-0.07318115234375;0.499999998737621;51;100 mA;
69.1044438255281;-0.999755859375;-0.073699951171875;0.509999998712374;52;100 mA;
69.1144438255028;-1.00006103515625;-0.07281494140625;0.519999998687126;53;100 mA;
69.1244438254776;-0.99884033203125;-0.07275390625;0.529999998661879;54;100 mA;
69.1344438254523;-0.99945068359375;-0.07293701171875;0.539999998636631;55;100 mA;
69.1444438254271;-0.999755859375;-0.072265625;0.549999998611383;56;100 mA;
69.1544438254018;-0.9991455078125;-0.072662353515625;0.559999998586136;57;100 mA;
69.1644438253766;-0.9991455078125;-0.072113037109375;0.569999998560888;58;100 mA;
69.1744438253513;-0.999755859375;-0.07183837890625;0.579999998535641;59;100 mA;
69.1844438253261;-0.999755859375;-0.072662353515625;0.589999998510393;60;100 mA;
69.1944438253008;-0.9991455078125;-0.072235107421875;0.599999998485146;61;100 mA;
69.2044438252756;-0.99945068359375;-0.07232666015625;0.609999998459898;62;100 mA;
69.2144438252503;-0.999755859375;-0.072601318359375;0.61999999843465;63;100 mA;
69.2244438252251;-0.99945068359375;-0.071990966796875;0.629999998409403;64;100 mA;
69.2344438251998;-0.999755859375;-0.0726318359375;0.639999998384155;65;100 mA;
69.2444438251746;-0.999755859375;-0.072479248046875;0.649999998358908;66;100 mA;
69.2544438251493;-0.999755859375;-0.072052001953125;0.65999999833366;67;100 mA;
69.2644438251241;-0.999755859375;-0.07257080078125;0.669999998308413;68;100 mA;
69.2744438250988;-0.9991455078125;-0.0718994140625;0.679999998283165;69;100 mA;
69.2844438250736;-0.99945068359375;-0.07177734375;0.689999998257917;70;100 mA;
69.2944438250483;-0.99945068359375;-0.07171630859375;0.69999999823267;71;100 mA;
69.3044438250231;-0.9991455078125;-0.070831298828125;0.709999998207422;72;100 mA;
69.3144438249979;-0.99945068359375;-0.071136474609375;0.719999998182175;73;100 mA;
69.3244438249726;-0.999755859375;-0.0709228515625;0.729999998156927;74;100 mA;
69.3344438249474;-0.99945068359375;-0.070465087890625;0.73999999813168;75;100 mA;
69.3444438249221;-0.99945068359375;-0.071136474609375;0.749999998106432;76;100 mA;
69.3544438248969;-0.99945068359375;-0.070831298828125;0.759999998081184;77;100 mA;
69.3644438248716;-0.9991455078125;-0.07122802734375;0.769999998055937;78;100 mA;
69.3744438248464;-0.9991455078125;-0.071868896484375;0.779999998030689;79;100 mA;
69.3844438248211;-0.99945068359375;-0.071533203125;0.789999998005442;80;100 mA;
69.3944438247959;-0.99945068359375;-0.07232666015625;0.799999997980194;81;100 mA;
69.4044438247706;-0.999755859375;-0.07257080078125;0.809999997954947;82;100 mA;
69.4144438247454;-0.9991455078125;-0.072601318359375;0.819999997929699;83;100 mA;
69.4244438247201;-0.99884033203125;-0.0733642578125;0.829999997904451;84;100 mA;
69.4344438246949;-0.99945068359375;-0.072662353515625;0.839999997879204;85;100 mA;
69.4444438246696;-0.9991455078125;-0.072784423828125;0.849999997853956;86;100 mA;
69.4544438246444;-0.99884033203125;-0.073394775390625;0.859999997828709;87;100 mA;
69.4644438246191;-0.999755859375;-0.072784423828125;0.869999997803461;88;100 mA;
69.4744438245939;-0.99884033203125;-0.07330322265625;0.879999997778214;89;100 mA;
69.4844438245686;-0.9991455078125;-0.072998046875;0.889999997752966;90;100 mA;
69.4944438245434;-0.99945068359375;-0.07269287109375;0.899999997727718;91;100 mA;
69.5044438245181;-0.9991455078125;-0.0731201171875;0.909999997702471;92;100 mA;
69.5144438244929;-0.9991455078125;-0.072174072265625;0.919999997677223;93;100 mA;
69.5244438244677;-0.9991455078125;-0.0721435546875;0.929999997651976;94;100 mA;
69.5344438244424;-0.999755859375;-0.07244873046875;0.939999997626728;95;100 mA;
69.5444438244172;-0.99945068359375;-0.07177734375;0.949999997601481;96;100 mA;
69.5544438243919;-0.999755859375;-0.072174072265625;0.959999997576233;97;100 mA;
69.5644438243667;-0.999755859375;-0.071746826171875;0.969999997550985;98;100 mA;
69.5744438243414;-1.00006103515625;-0.0714111328125;0.979999997525738;99;100 mA;
69.5844438243162;-0.999755859375;-0.07232666015625;0.98999999750049;100;100 mA;
69.5944438242909;-0.99884033203125;-0.0718994140625;0.999999997475243;101;100 mA;
69.6044438242657;-0.99945068359375;-0.071990966796875;1.00999999745;102;100 mA;
69.6144438242404;-0.99945068359375;-0.072296142578125;1.01999999742475;103;100 mA;
69.6244438242152;-0.999755859375;-0.0721435546875;1.0299999973995;104;100 mA;
69.6344438241899;-0.99945068359375;-0.072662353515625;1.03999999737425;105;100 mA;
69.6444438241647;-0.99945068359375;-0.072540283203125;1.049999997349;106;100 mA;
69.6544438241394;-0.99945068359375;-0.07257080078125;1.05999999732376;107;100 mA;
69.6644438241142;-0.9991455078125;-0.073333740234375;1.06999999729851;108;100 mA;
69.6744438240889;-0.9991455078125;-0.072906494140625;1.07999999727326;109;100 mA;
69.6844438240637;-0.9991455078125;-0.07305908203125;1.08999999724801;110;100 mA;
69.6944438240384;-0.99945068359375;-0.0732421875;1.09999999722277;111;100 mA;
69.7044438240132;-0.99945068359375;-0.072967529296875;1.10999999719752;112;100 mA;
69.7144438239879;-0.99945068359375;-0.073394775390625;1.11999999717227;113;100 mA;
69.7244438239627;-0.999755859375;-0.073089599609375;1.12999999714702;114;100 mA;
69.7344438239375;-0.99945068359375;-0.072723388671875;1.13999999712178;115;100 mA;
69.7444438239122;-0.99945068359375;-0.073211669921875;1.14999999709653;116;100 mA;
69.754443823887;-0.99945068359375;-0.07275390625;1.15999999707128;117;100 mA;
69.7644438238617;-0.9991455078125;-0.07281494140625;1.16999999704603;118;100 mA;
69.7744438238365;-0.99945068359375;-0.072998046875;1.17999999702079;119;100 mA;
69.7844438238112;-0.99884033203125;-0.072723388671875;1.18999999699554;120;100 mA;
69.794443823786;-0.99884033203125;-0.073516845703125;1.19999999697029;121;100 mA;
69.8044438237607;-0.999755859375;-0.07342529296875;1.20999999694504;122;100 mA;
69.8144438237355;-0.9991455078125;-0.07318115234375;1.2199999969198;123;100 mA;
69.8244438237102;-0.9991455078125;-0.07354736328125;1.22999999689455;124;100 mA;
69.834443823685;-1.00006103515625;-0.072967529296875;1.2399999968693;125;100 mA;
69.8444438236597;-0.999755859375;-0.073028564453125;1.24999999684405;126;100 mA;
69.8544438236345;-0.99945068359375;-0.07293701171875;1.25999999681881;127;100 mA;
69.8644438236092;-0.99945068359375;-0.07220458984375;1.26999999679356;128;100 mA;
69.874443823584;-0.99945068359375;-0.072357177734375;1.27999999676831;129;100 mA;
69.8844438235587;-0.99884033203125;-0.072174072265625;1.28999999674306;130;100 mA;
69.8944438235335;-0.99945068359375;-0.07171630859375;1.29999999671782;131;100 mA;
69.9044438235082;-1.00006103515625;-0.071807861328125;1.30999999669257;132;100 mA;
69.914443823483;-0.9991455078125;-0.071044921875;1.31999999666732;133;100 mA;
69.9244438234578;-0.9991455078125;-0.0711669921875;1.32999999664207;134;100 mA;
69.9344438234325;-0.9991455078125;-0.071533203125;1.33999999661683;135;100 mA;
69.9444438234073;-0.99945068359375;-0.070892333984375;1.34999999659158;136;100 mA;
69.954443823382;-0.99945068359375;-0.0711669921875;1.35999999656633;137;100 mA;
69.9644438233568;-1.00006103515625;-0.07098388671875;1.36999999654108;138;100 mA;
69.9744438233315;-0.99945068359375;-0.070831298828125;1.37999999651583;139;100 mA;
69.9844438233063;-0.999755859375;-0.0716552734375;1.38999999649059;140;100 mA;
69.994443823281;-0.999755859375;-0.07098388671875;1.39999999646534;141;100 mA;
70.0044438232558;-0.9991455078125;-0.071533203125;1.40999999644009;142;100 mA;
70.0144438232305;-0.9991455078125;-0.071868896484375;1.41999999641484;143;100 mA;
70.0244438232053;-0.99945068359375;-0.0716552734375;1.4299999963896;144;100 mA;
70.03444382318;-0.99945068359375;-0.072235107421875;1.43999999636435;145;100 mA;
70.0444438231548;-0.9991455078125;-0.07196044921875;1.4499999963391;146;100 mA;
70.0544438231295;-0.9991455078125;-0.0718994140625;1.45999999631385;147;100 mA;
70.0644438231043;-0.999755859375;-0.072662353515625;1.46999999628861;148;100 mA;
70.074443823079;-0.999755859375;-0.071929931640625;1.47999999626336;149;100 mA;
70.0844438230538;-0.9991455078125;-0.072113037109375;1.48999999623811;150;100 mA;
70.0944438230285;-0.99945068359375;-0.072601318359375;1.49999999621286;151;100 mA;
70.1044438230033;-0.99945068359375;-0.072021484375;1.50999999618762;152;100 mA;
70.114443822978;-0.99945068359375;-0.072479248046875;1.51999999616237;153;100 mA;
70.1244438229528;-1.00006103515625;-0.072021484375;1.52999999613712;154;100 mA;
70.1344438229276;-0.999755859375;-0.071868896484375;1.53999999611187;155;100 mA;
70.1444438229023;-0.99945068359375;-0.07275390625;1.54999999608663;156;100 mA;
70.1544438228771;-0.99945068359375;-0.07196044921875;1.55999999606138;157;100 mA;
70.1644438228518;-0.99945068359375;-0.07177734375;1.56999999603613;158;100 mA;
70.1744438228266;-0.99884033203125;-0.071807861328125;1.57999999601088;159;100 mA;
70.1844438228013;-1.00006103515625;-0.071075439453125;1.58999999598564;160;100 mA;
70.1944438227761;-0.999755859375;-0.07171630859375;1.59999999596039;161;100 mA;
70.2044438227508;-0.99945068359375;-0.07135009765625;1.60999999593514;162;100 mA;
70.2144438227256;-1.0003662109375;-0.07098388671875;1.61999999590989;163;100 mA;
70.2244438227003;-0.9991455078125;-0.071746826171875;1.62999999588465;164;100 mA;
70.2344438226751;-0.99945068359375;-0.071624755859375;1.6399999958594;165;100 mA;
70.2444438226498;-0.99945068359375;-0.07183837890625;1.64999999583415;166;100 mA;
70.2544438226246;-0.9991455078125;-0.072174072265625;1.6599999958089;167;100 mA;
70.2644438225993;-0.9991455078125;-0.071533203125;1.66999999578366;168;100 mA;
70.2744438225741;-0.9991455078125;-0.07220458984375;1.67999999575841;169;100 mA;
70.2844438225488;-0.99945068359375;-0.071929931640625;1.68999999573316;170;100 mA;
70.2944438225236;-0.99945068359375;-0.0714111328125;1.69999999570791;171;100 mA;
70.3044438224983;-0.99945068359375;-0.07208251953125;1.70999999568267;172;100 mA;
70.3144438224731;-0.99945068359375;-0.07147216796875;1.71999999565742;173;100 mA;
70.3244438224478;-0.99945068359375;-0.071441650390625;1.72999999563217;174;100 mA;
70.3344438224226;-0.999755859375;-0.071380615234375;1.73999999560692;175;100 mA;
70.3444438223974;-0.99945068359375;-0.070526123046875;1.74999999558167;176;100 mA;
70.3544438223721;-0.9991455078125;-0.071044921875;1.75999999555643;177;100 mA;
70.3644438223469;-0.99945068359375;-0.070831298828125;1.76999999553118;178;100 mA;
70.3744438223216;-0.999755859375;-0.0704345703125;1.77999999550593;179;100 mA;
70.3844438222964;-0.99884033203125;-0.070953369140625;1.78999999548068;180;100 mA;
70.3944438222711;-0.999755859375;-0.0701904296875;1.79999999545544;181;100 mA;
70.4044438222459;-0.99884033203125;-0.070343017578125;1.80999999543019;182;100 mA;
70.4144438222206;-0.99945068359375;-0.070556640625;1.81999999540494;183;100 mA;
70.4244438221954;-0.99945068359375;-0.06988525390625;1.82999999537969;184;100 mA;
70.4344438221701;-0.999755859375;-0.070281982421875;1.83999999535445;185;100 mA;
70.4444438221449;-1.00006103515625;-0.069854736328125;1.8499999953292;186;100 mA;
70.4544438221196;-0.999755859375;-0.06927490234375;1.85999999530395;187;100 mA;
70.4644438220944;-0.9991455078125;-0.069671630859375;1.8699999952787;188;100 mA;
70.4744438220691;-0.9991455078125;-0.068817138671875;1.87999999525346;189;100 mA;
70.4844438220439;-0.9991455078125;-0.06884765625;1.88999999522821;190;100 mA;
70.4944438220186;-0.99884033203125;-0.0693359375;1.89999999520296;191;100 mA;
70.5044438219934;-0.99945068359375;-0.068603515625;1.90999999517771;192;100 mA;
70.5144438219681;-0.9991455078125;-0.069000244140625;1.91999999515247;193;100 mA;
70.5244438219429;-1.00006103515625;-0.068756103515625;1.92999999512722;194;100 mA;
70.5344438219176;-0.99945068359375;-0.068572998046875;1.93999999510197;195;100 mA;
70.5444438218924;-0.9991455078125;-0.069305419921875;1.94999999507672;196;100 mA;
70.5544438218672;-0.9991455078125;-0.0687255859375;1.95999999505148;197;100 mA;
70.5644438218419;-0.99945068359375;-0.068817138671875;1.96999999502623;198;100 mA;
70.5744438218167;-0.99945068359375;-0.06939697265625;1.97999999500098;199;100 mA;
70.5844438217914;-0.999755859375;-0.0687255859375;1.98999999497573;200;100 mA;
70.5944438217662;-1.00006103515625;-0.0693359375;1.99999999495049;201;100 mA;
70.6044438217409;-0.9991455078125;-0.06903076171875;2.00999999492524;202;100 mA;
70.6144438217157;-0.99945068359375;-0.068634033203125;2.01999999489999;203;100 mA;
70.6244438216904;-0.99945068359375;-0.06927490234375;2.02999999487474;204;100 mA;
70.6344438216652;-0.9991455078125;-0.068511962890625;2.0399999948495;205;100 mA;
70.6444438216399;-0.9991455078125;-0.068695068359375;2.04999999482425;206;100 mA;
70.6544438216147;-0.999755859375;-0.0692138671875;2.059999994799;207;100 mA;
70.6644438215894;-0.99884033203125;-0.06903076171875;2.06999999477375;208;100 mA;
70.6744438215642;-0.9991455078125;-0.06982421875;2.0799999947485;209;100 mA;
70.6844438215389;-0.999755859375;-0.069610595703125;2.08999999472326;210;100 mA;
70.6944438215137;-0.999755859375;-0.06939697265625;2.09999999469801;211;100 mA;
70.7044438214884;-0.99945068359375;-0.070281982421875;2.10999999467276;212;100 mA;
70.7144438214632;-0.99945068359375;-0.06988525390625;2.11999999464751;213;100 mA;
70.7244438214379;-0.99884033203125;-0.070037841796875;2.12999999462227;214;100 mA;
70.7344438214127;-0.99884033203125;-0.0704345703125;2.13999999459702;215;100 mA;
70.7444438213874;-0.999755859375;-0.07000732421875;2.14999999457177;216;100 mA;
70.7544438213622;-0.9991455078125;-0.070648193359375;2.15999999454652;217;100 mA;
70.764443821337;-0.9991455078125;-0.070556640625;2.16999999452128;218;100 mA;
70.7744438213117;-0.99945068359375;-0.07025146484375;2.17999999449603;219;100 mA;
70.7844438212865;-0.99884033203125;-0.07080078125;2.18999999447078;220;100 mA;
70.7944438212612;-0.99945068359375;-0.070404052734375;2.19999999444553;221;100 mA;
70.804443821236;-0.99945068359375;-0.070526123046875;2.20999999442029;222;100 mA;
70.8144438212107;-0.999755859375;-0.0706787109375;2.21999999439504;223;100 mA;
70.8244438211855;-0.99945068359375;-0.070068359375;2.22999999436979;224;100 mA;
70.8344438211602;-0.99945068359375;-0.070648193359375;2.23999999434454;225;100 mA;
70.844443821135;-0.99945068359375;-0.070343017578125;2.2499999943193;226;100 mA;
70.8544438211097;-0.999755859375;-0.07000732421875;2.25999999429405;227;100 mA;
70.8644438210845;-0.9991455078125;-0.07061767578125;2.2699999942688;228;100 mA;
70.8744438210592;-0.99945068359375;-0.070343017578125;2.27999999424355;229;100 mA;
70.884443821034;-0.99945068359375;-0.070709228515625;2.28999999421831;230;100 mA;
70.8944438210087;-0.99945068359375;-0.0711669921875;2.29999999419306;231;100 mA;
70.9044438209835;-0.9991455078125;-0.07061767578125;2.30999999416781;232;100 mA;
70.9144438209582;-0.9991455078125;-0.071380615234375;2.31999999414256;233;100 mA;
70.924443820933;-0.999755859375;-0.071533203125;2.32999999411732;234;100 mA;
70.9344438209077;-0.9991455078125;-0.071380615234375;2.33999999409207;235;100 mA;
70.9444438208825;-0.999755859375;-0.07183837890625;2.34999999406682;236;100 mA;
70.9544438208573;-0.9991455078125;-0.071258544921875;2.35999999404157;237;100 mA;
70.964443820832;-0.99945068359375;-0.071533203125;2.36999999401633;238;100 mA;
70.9744438208068;-0.999755859375;-0.07183837890625;2.37999999399108;239;100 mA;
70.9844438207815;-0.99884033203125;-0.071197509765625;2.38999999396583;240;100 mA;
70.9944438207563;-0.9991455078125;-0.071502685546875;2.39999999394058;241;100 mA;
71.004443820731;-0.99945068359375;-0.071197509765625;2.40999999391533;242;100 mA;
71.0144438207058;-0.999755859375;-0.07073974609375;2.41999999389009;243;100 mA;
71.0244438206805;-0.99945068359375;-0.071441650390625;2.42999999386484;244;100 mA;
71.0344438206553;-1.00006103515625;-0.070587158203125;2.43999999383959;245;100 mA;
71.04444382063;-0.9991455078125;-0.070648193359375;2.44999999381434;246;100 mA;
71.0544438206048;-0.99945068359375;-0.070953369140625;2.4599999937891;247;100 mA;
71.0644438205795;-0.99884033203125;-0.070159912109375;2.46999999376385;248;100 mA;
71.0744438205543;-0.9991455078125;-0.070526123046875;2.4799999937386;249;100 mA;
71.084443820529;-0.99945068359375;-0.070159912109375;2.48999999371335;250;100 mA;
71.0944438205038;-0.9991455078125;-0.069976806640625;2.49999999368811;251;100 mA;
71.1044438204785;-0.9991455078125;-0.07061767578125;2.50999999366286;252;100 mA;
71.1144438204533;-0.99945068359375;-0.06988525390625;2.51999999363761;253;100 mA;
71.124443820428;-0.99945068359375;-0.070220947265625;2.52999999361236;254;100 mA;
71.1344438204028;-0.9991455078125;-0.070587158203125;2.53999999358712;255;100 mA;
71.1444438203775;-1.0003662109375;-0.070281982421875;2.54999999356187;256;100 mA;
71.1544438203523;-1.00006103515625;-0.071014404296875;2.55999999353662;257;100 mA;
71.1644438203271;-0.999755859375;-0.0706787109375;2.56999999351137;258;100 mA;
71.1744438203018;-0.9991455078125;-0.0706787109375;2.57999999348613;259;100 mA;
71.1844438202766;-0.9991455078125;-0.07159423828125;2.58999999346088;260;100 mA;
71.1944438202513;-0.999755859375;-0.071075439453125;2.59999999343563;261;100 mA;
71.2044438202261;-0.999755859375;-0.071258544921875;2.60999999341038;262;100 mA;
71.2144438202008;-0.99945068359375;-0.071533203125;2.61999999338514;263;100 mA;
71.2244438201756;-0.9991455078125;-0.071136474609375;2.62999999335989;264;100 mA;
71.2344438201503;-0.99945068359375;-0.071563720703125;2.63999999333464;265;100 mA;
71.2444438201251;-0.99945068359375;-0.070953369140625;2.64999999330939;266;100 mA;
71.2544438200998;-0.999755859375;-0.07049560546875;2.65999999328415;267;100 mA;
71.2644438200746;-0.999755859375;-0.071258544921875;2.6699999932589;268;100 mA;
71.2744438200493;-0.99884033203125;-0.07073974609375;2.67999999323365;269;100 mA;
71.2844438200241;-0.99945068359375;-0.07086181640625;2.6899999932084;270;100 mA;
71.2944438199988;-0.999755859375;-0.071075439453125;2.69999999318316;271;100 mA;
71.3044438199736;-0.999755859375;-0.070709228515625;2.70999999315791;272;100 mA;
71.3144438199483;-0.99945068359375;-0.071441650390625;2.71999999313266;273;100 mA;
71.3244438199231;-0.99945068359375;-0.0714111328125;2.72999999310741;274;100 mA;
71.3344438198978;-0.99945068359375;-0.0711669921875;2.73999999308217;275;100 mA;
71.3444438198726;-0.999755859375;-0.071929931640625;2.74999999305692;276;100 mA;
71.3544438198473;-0.99945068359375;-0.0716552734375;2.75999999303167;277;100 mA;
71.3644438198221;-0.99945068359375;-0.07208251953125;2.76999999300642;278;100 mA;
71.3744438197969;-0.99945068359375;-0.072509765625;2.77999999298117;279;100 mA;
71.3844438197716;-0.999755859375;-0.072021484375;2.78999999295593;280;100 mA;
71.3944438197464;-0.99945068359375;-0.07293701171875;2.79999999293068;281;100 mA;
71.4044438197211;-0.99945068359375;-0.0728759765625;2.80999999290543;282;100 mA;
71.4144438196959;-1.0003662109375;-0.07257080078125;2.81999999288018;283;100 mA;
71.4244438196706;-0.9991455078125;-0.073089599609375;2.82999999285494;284;100 mA;
71.4344438196454;-0.99945068359375;-0.072357177734375;2.83999999282969;285;100 mA;
71.4444438196201;-0.999755859375;-0.0726318359375;2.84999999280444;286;100 mA;
71.4544438195949;-0.999755859375;-0.0731201171875;2.85999999277919;287;100 mA;
71.4644438195696;-0.999755859375;-0.072479248046875;2.86999999275395;288;100 mA;
71.4744438195444;-0.999755859375;-0.073272705078125;2.8799999927287;289;100 mA;
71.4844438195191;-0.999755859375;-0.073211669921875;2.88999999270345;290;100 mA;
71.4944438194939;-0.99945068359375;-0.073150634765625;2.8999999926782;291;100 mA;
71.5044438194686;-0.999755859375;-0.07373046875;2.90999999265296;292;100 mA;
71.5144438194434;-0.9991455078125;-0.0728759765625;2.91999999262771;293;100 mA;
71.5244438194181;-0.99945068359375;-0.0731201171875;2.92999999260246;294;100 mA;
71.5344438193929;-0.99945068359375;-0.0736083984375;2.93999999257721;295;100 mA;
71.5444438193676;-0.9991455078125;-0.072784423828125;2.94999999255197;296;100 mA;
71.5544438193424;-0.9991455078125;-0.073333740234375;2.95999999252672;297;100 mA;
71.5644438193171;-1.00006103515625;-0.073089599609375;2.96999999250147;298;100 mA;
71.5744438192919;-0.999755859375;-0.072998046875;2.97999999247622;299;100 mA;
71.5844438192667;-0.99945068359375;-0.07366943359375;2.98999999245098;300;100 mA;
71.5944438192414;-0.99945068359375;-0.072662353515625;2.99999999242573;301;100 mA;
71.6044438192162;-0.99945068359375;-0.072540283203125;3.00999999240048;302;100 mA;
71.6144438191909;-0.99945068359375;-0.072723388671875;3.01999999237523;303;100 mA;
71.6244438191657;-0.99945068359375;-0.071990966796875;3.02999999234999;304;100 mA;
71.6344438191404;-1.00006103515625;-0.0721435546875;3.03999999232474;305;100 mA;
71.6444438191152;-0.999755859375;-0.0714111328125;3.04999999229949;306;100 mA;
71.6544438190899;-0.99945068359375;-0.0709228515625;3.05999999227424;307;100 mA;
71.6644438190647;-0.99945068359375;-0.071624755859375;3.069999992249;308;100 mA;
71.6744438190394;-0.99945068359375;-0.0709228515625;3.07999999222375;309;100 mA;
71.6844438190142;-0.99945068359375;-0.07086181640625;3.0899999921985;310;100 mA;
71.6944438189889;-0.9991455078125;-0.0709228515625;3.09999999217325;311;100 mA;
71.7044438189637;-0.99945068359375;-0.070404052734375;3.109999992148;312;100 mA;
71.7144438189384;-0.9991455078125;-0.0709228515625;3.11999999212276;313;100 mA;
71.7244438189132;-0.999755859375;-0.070404052734375;3.12999999209751;314;100 mA;
71.7344438188879;-0.99945068359375;-0.070098876953125;3.13999999207226;315;100 mA;
71.7444438188627;-0.9991455078125;-0.07073974609375;3.14999999204701;316;100 mA;
71.7544438188374;-0.99945068359375;-0.070220947265625;3.15999999202177;317;100 mA;
71.7644438188122;-0.99945068359375;-0.0701904296875;3.16999999199652;318;100 mA;
71.7744438187869;-0.99884033203125;-0.07037353515625;3.17999999197127;319;100 mA;
71.7844438187617;-0.99945068359375;-0.069915771484375;3.18999999194602;320;100 mA;
71.7944438187365;-0.99945068359375;-0.070587158203125;3.19999999192078;321;100 mA;
71.8044438187112;-0.999755859375;-0.070465087890625;3.20999999189553;322;100 mA;
71.814443818686;-0.999755859375;-0.070159912109375;3.21999999187028;323;100 mA;
71.8244438186607;-0.99945068359375;-0.070892333984375;3.22999999184503;324;100 mA;
71.8344438186355;-0.9991455078125;-0.070556640625;3.23999999181979;325;100 mA;
71.8444438186102;-0.999755859375;-0.07073974609375;3.24999999179454;326;100 mA;
71.854443818585;-0.99945068359375;-0.07110595703125;3.25999999176929;327;100 mA;
71.8644438185597;-0.99945068359375;-0.0703125;3.26999999174404;328;100 mA;
71.8744438185345;-0.99945068359375;-0.07098388671875;3.2799999917188;329;100 mA;
71.8844438185092;-0.999755859375;-0.070770263671875;3.28999999169355;330;100 mA;
71.894443818484;-0.999755859375;-0.070343017578125;3.2999999916683;331;100 mA;
71.9044438184587;-0.999755859375;-0.07080078125;3.30999999164305;332;100 mA;
71.9144438184335;-0.99945068359375;-0.070281982421875;3.31999999161781;333;100 mA;
71.9244438184082;-0.99945068359375;-0.07037353515625;3.32999999159256;334;100 mA;
71.934443818383;-0.9991455078125;-0.070648193359375;3.33999999156731;335;100 mA;
71.9444438183577;-0.999755859375;-0.06976318359375;3.34999999154206;336;100 mA;
71.9544438183325;-0.99945068359375;-0.070465087890625;3.35999999151682;337;100 mA;
71.9644438183072;-0.99945068359375;-0.07061767578125;3.36999999149157;338;100 mA;
71.974443818282;-0.99945068359375;-0.070343017578125;3.37999999146632;339;100 mA;
71.9844438182568;-0.9991455078125;-0.071075439453125;3.38999999144107;340;100 mA;
71.9944438182315;-0.99945068359375;-0.070465087890625;3.39999999141583;341;100 mA;
72.0044438182063;-0.99945068359375;-0.07073974609375;3.40999999139058;342;100 mA;
72.014443818181;-0.999755859375;-0.07110595703125;3.41999999136533;343;100 mA;
72.0244438181558;-0.99945068359375;-0.070556640625;3.42999999134008;344;100 mA;
72.0344438181305;-0.999755859375;-0.070892333984375;3.43999999131483;345;100 mA;
72.0444438181053;-0.99945068359375;-0.070709228515625;3.44999999128959;346;100 mA;
72.05444381808;-0.9991455078125;-0.0704345703125;3.45999999126434;347;100 mA;
72.0644438180548;-1.00006103515625;-0.070953369140625;3.46999999123909;348;100 mA;
72.0744438180295;-1.0003662109375;-0.069976806640625;3.47999999121384;349;100 mA;
72.0844438180043;-0.99945068359375;-0.070159912109375;3.4899999911886;350;100 mA;
72.094443817979;-0.9991455078125;-0.07061767578125;3.49999999116335;351;100 mA;
72.1044438179538;-0.999755859375;-0.07012939453125;3.5099999911381;352;100 mA;
72.1144438179285;-0.99945068359375;-0.0706787109375;3.51999999111285;353;100 mA;
72.1244438179033;-0.999755859375;-0.070709228515625;3.52999999108761;354;100 mA;
72.134443817878;-0.99945068359375;-0.070892333984375;3.53999999106236;355;100 mA;
72.1444438178528;-0.9991455078125;-0.07208251953125;3.54999999103711;356;100 mA;
72.1544438178275;-0.9991455078125;-0.071746826171875;3.55999999101186;357;100 mA;
72.1644438178023;-0.99945068359375;-0.07220458984375;3.56999999098662;358;100 mA;
72.174443817777;-0.999755859375;-0.072906494140625;3.57999999096137;359;100 mA;
72.1844438177518;-0.99945068359375;-0.072784423828125;3.58999999093612;360;100 mA;
72.1944438177266;-1.00006103515625;-0.073486328125;3.59999999091087;361;100 mA;
72.2044438177013;-0.99945068359375;-0.073394775390625;3.60999999088563;362;100 mA;
72.2144438176761;-0.99945068359375;-0.0733642578125;3.61999999086038;363;100 mA;
72.2244438176508;-0.999755859375;-0.074432373046875;3.62999999083513;364;100 mA;
72.2344438176256;-0.999755859375;-0.07403564453125;3.63999999080988;365;100 mA;
72.2444438176003;-0.99945068359375;-0.074066162109375;3.64999999078464;366;100 mA;
72.2544438175751;-0.99884033203125;-0.07427978515625;3.65999999075939;367;100 mA;
72.2644438175498;-0.999755859375;-0.073822021484375;3.66999999073414;368;100 mA;
72.2744438175246;-0.9991455078125;-0.074310302734375;3.67999999070889;369;100 mA;
72.2844438174993;-0.99945068359375;-0.073760986328125;3.68999999068365;370;100 mA;
72.2944438174741;-0.999755859375;-0.073486328125;3.6999999906584;371;100 mA;
72.3044438174488;-0.9991455078125;-0.07427978515625;3.70999999063315;372;100 mA;
72.3144438174236;-0.99884033203125;-0.073822021484375;3.7199999906079;373;100 mA;
72.3244438173983;-0.999755859375;-0.0738525390625;3.72999999058266;374;100 mA;
72.3344438173731;-0.999755859375;-0.073883056640625;3.73999999055741;375;100 mA;
72.3444438173478;-0.999755859375;-0.07318115234375;3.74999999053216;376;100 mA;
72.3544438173226;-0.999755859375;-0.07373046875;3.75999999050691;377;100 mA;
72.3644438172973;-0.99945068359375;-0.07354736328125;3.76999999048167;378;100 mA;
72.3744438172721;-0.99945068359375;-0.073089599609375;3.77999999045642;379;100 mA;
72.3844438172468;-0.999755859375;-0.0736083984375;3.78999999043117;380;100 mA;
72.3944438172216;-0.99945068359375;-0.073028564453125;3.79999999040592;381;100 mA;
72.4044438171964;-0.9991455078125;-0.073211669921875;3.80999999038067;382;100 mA;
72.4144438171711;-0.99945068359375;-0.073272705078125;3.81999999035543;383;100 mA;
72.4244438171459;-0.99945068359375;-0.072662353515625;3.82999999033018;384;100 mA;
72.4344438171206;-0.99945068359375;-0.073333740234375;3.83999999030493;385;100 mA;
72.4444438170954;-0.99945068359375;-0.0732421875;3.84999999027968;386;100 mA;
72.4544438170701;-0.9991455078125;-0.07293701171875;3.85999999025444;387;100 mA;
72.4644438170449;-0.9991455078125;-0.07354736328125;3.86999999022919;388;100 mA;
72.4744438170196;-0.99945068359375;-0.07275390625;3.87999999020394;389;100 mA;
72.4844438169944;-1.00006103515625;-0.073028564453125;3.88999999017869;390;100 mA;
72.4944438169691;-1.00006103515625;-0.073333740234375;3.89999999015345;391;100 mA;
72.5044438169439;-0.9991455078125;-0.072601318359375;3.9099999901282;392;100 mA;
72.5144438169186;-0.9991455078125;-0.0732421875;3.91999999010295;393;100 mA;
72.5244438168934;-0.99945068359375;-0.072906494140625;3.9299999900777;394;100 mA;
72.5344438168681;-0.9991455078125;-0.072479248046875;3.93999999005246;395;100 mA;
72.5444438168429;-0.999755859375;-0.07318115234375;3.94999999002721;396;100 mA;
72.5544438168176;-0.99945068359375;-0.072235107421875;3.95999999000196;397;100 mA;
72.5644438167924;-0.9991455078125;-0.072235107421875;3.96999998997671;398;100 mA;
72.5744438167671;-0.9991455078125;-0.072967529296875;3.97999998995147;399;100 mA;
72.5844438167419;-0.99884033203125;-0.072113037109375;3.98999998992622;400;100 mA;
72.5944438167166;-0.99884033203125;-0.072601318359375;3.99999998990097;401;100 mA;
72.6044438166914;-0.9991455078125;-0.072296142578125;4.00999998987572;402;100 mA;
72.6144438166662;-0.9991455078125;-0.072021484375;4.01999998985048;403;100 mA;
72.6244438166409;-0.9991455078125;-0.072662353515625;4.02999998982523;404;100 mA;
72.6344438166157;-0.999755859375;-0.07171630859375;4.03999998979998;405;100 mA;
72.6444438165904;-0.99945068359375;-0.072021484375;4.04999998977473;406;100 mA;
72.6544438165652;-0.99945068359375;-0.07269287109375;4.05999998974949;407;100 mA;
72.6644438165399;-1.00006103515625;-0.072021484375;4.06999998972424;408;100 mA;
72.6744438165147;-0.99945068359375;-0.07269287109375;4.07999998969899;409;100 mA;
72.6844438164894;-0.999755859375;-0.072113037109375;4.08999998967374;410;100 mA;
72.6944438164642;-0.999755859375;-0.071685791015625;4.0999999896485;411;100 mA;
72.7044438164389;-0.999755859375;-0.072601318359375;4.10999998962325;412;100 mA;
72.7144438164137;-0.99945068359375;-0.071868896484375;4.119999989598;413;100 mA;
72.7244438163884;-0.99945068359375;-0.07171630859375;4.12999998957275;414;100 mA;
72.7344438163632;-0.9991455078125;-0.07196044921875;4.1399999895475;415;100 mA;
72.7444438163379;-0.999755859375;-0.0712890625;4.14999998952226;416;100 mA;
72.7544438163127;-0.99884033203125;-0.071746826171875;4.15999998949701;417;100 mA;
72.7644438162874;-0.99945068359375;-0.071441650390625;4.16999998947176;418;100 mA;
72.7744438162622;-0.9991455078125;-0.071044921875;4.17999998944651;419;100 mA;
72.7844438162369;-0.99884033203125;-0.071685791015625;4.18999998942127;420;100 mA;
72.7944438162117;-0.999755859375;-0.070892333984375;4.19999998939602;421;100 mA;
72.8044438161864;-0.99945068359375;-0.070770263671875;4.20999998937077;422;100 mA;
72.8144438161612;-0.9991455078125;-0.070953369140625;4.21999998934552;423;100 mA;
72.824443816136;-1.00006103515625;-0.07037353515625;4.22999998932028;424;100 mA;
72.8344438161107;-0.9991455078125;-0.070892333984375;4.23999998929503;425;100 mA;
72.8444438160855;-0.999755859375;-0.070556640625;4.24999998926978;426;100 mA;
72.8544438160602;-0.99945068359375;-0.070098876953125;4.25999998924453;427;100 mA;
72.864443816035;-0.99945068359375;-0.07080078125;4.26999998921929;428;100 mA;
72.8744438160097;-0.99945068359375;-0.07037353515625;4.27999998919404;429;100 mA;
72.8844438159845;-0.9991455078125;-0.070404052734375;4.28999998916879;430;100 mA;
72.8944438159592;-0.99945068359375;-0.07110595703125;4.29999998914354;431;100 mA;
72.904443815934;-0.99945068359375;-0.0704345703125;4.3099999891183;432;100 mA;
72.9144438159087;-0.99945068359375;-0.07135009765625;4.31999998909305;433;100 mA;
72.9244438158835;-0.99945068359375;-0.07135009765625;4.3299999890678;434;100 mA;
72.9344438158582;-0.9991455078125;-0.07098388671875;4.33999998904255;435;100 mA;
72.944443815833;-0.9991455078125;-0.07147216796875;4.34999998901731;436;100 mA;
72.9544438158077;-0.999755859375;-0.070709228515625;4.35999998899206;437;100 mA;
72.9644438157825;-0.99945068359375;-0.07049560546875;4.36999998896681;438;100 mA;
72.9744438157572;-0.99945068359375;-0.07086181640625;4.37999998894156;439;100 mA;
72.984443815732;-0.9991455078125;-0.06982421875;4.38999998891632;440;100 mA;
72.9944438157067;-0.99945068359375;-0.070404052734375;4.39999998889107;441;100 mA;
73.0044438156815;-0.99945068359375;-0.07012939453125;4.40999998886582;442;100 mA;
73.0144438156563;-0.999755859375;-0.069793701171875;4.41999998884057;443;100 mA;
73.024443815631;-0.99945068359375;-0.07025146484375;4.42999998881533;444;100 mA;
73.0344438156058;-0.9991455078125;-0.06939697265625;4.43999998879008;445;100 mA;
73.0444438155805;-0.9991455078125;-0.06964111328125;4.44999998876483;446;100 mA;
73.0544438155553;-0.999755859375;-0.07025146484375;4.45999998873958;447;100 mA;
73.06444381553;-0.99945068359375;-0.0693359375;4.46999998871433;448;100 mA;
73.0744438155048;-0.99945068359375;-0.069976806640625;4.47999998868909;449;100 mA;
73.0844438154795;-0.999755859375;-0.0699462890625;4.48999998866384;450;100 mA;
73.0944438154543;-0.99945068359375;-0.06964111328125;4.49999998863859;451;100 mA;
73.104443815429;-0.99884033203125;-0.07073974609375;4.50999998861334;452;100 mA;
73.1144438154038;-0.9991455078125;-0.0699462890625;4.5199999885881;453;100 mA;
73.1244438153785;-0.9991455078125;-0.070404052734375;4.52999998856285;454;100 mA;
73.1344438153533;-0.99945068359375;-0.071319580078125;4.5399999885376;455;100 mA;
73.144443815328;-0.9991455078125;-0.071075439453125;4.54999998851235;456;100 mA;
73.1544438153028;-0.99945068359375;-0.0716552734375;4.55999998848711;457;100 mA;
73.1644438152775;-0.999755859375;-0.07159423828125;4.56999998846186;458;100 mA;
73.1744438152523;-0.99945068359375;-0.07159423828125;4.57999998843661;459;100 mA;
73.184443815227;-0.99945068359375;-0.07330322265625;4.58999998841136;460;100 mA;
73.1944438152018;-0.999755859375;-0.07269287109375;4.59999998838612;461;100 mA;
73.2044438151765;-0.99945068359375;-0.0731201171875;4.60999998836087;462;100 mA;
73.2144438151513;-0.99945068359375;-0.073760986328125;4.61999998833562;463;100 mA;
73.2244438151261;-0.999755859375;-0.073486328125;4.62999998831037;464;100 mA;
73.2344438151008;-0.999755859375;-0.074249267578125;4.63999998828513;465;100 mA;
73.2444438150756;-0.99945068359375;-0.07391357421875;4.64999998825988;466;100 mA;
73.2544438150503;-0.99945068359375;-0.0736083984375;4.65999998823463;467;100 mA;
73.2644438150251;-0.9991455078125;-0.07452392578125;4.66999998820938;468;100 mA;
73.2744438149998;-0.9991455078125;-0.07391357421875;4.67999998818414;469;100 mA;
73.2844438149746;-0.999755859375;-0.073760986328125;4.68999998815889;470;100 mA;
73.2944438149493;-0.999755859375;-0.0740966796875;4.69999998813364;471;100 mA;
73.3044438149241;-0.999755859375;-0.073699951171875;4.70999998810839;472;100 mA;
73.3144438148988;-0.99945068359375;-0.07440185546875;4.71999998808315;473;100 mA;
73.3244438148736;-0.99945068359375;-0.07415771484375;4.7299999880579;474;100 mA;
73.3344438148483;-0.99945068359375;-0.073699951171875;4.73999998803265;475;100 mA;
73.3444438148231;-0.9991455078125;-0.074493408203125;4.7499999880074;476;100 mA;
73.3544438147978;-0.99945068359375;-0.073944091796875;4.75999998798216;477;100 mA;
73.3644438147726;-0.9991455078125;-0.073944091796875;4.76999998795691;478;100 mA;
73.3744438147473;-0.999755859375;-0.07415771484375;4.77999998793166;479;100 mA;
73.3844438147221;-0.99945068359375;-0.073455810546875;4.78999998790641;480;100 mA;
73.3944438146968;-0.999755859375;-0.07415771484375;4.79999998788116;481;100 mA;
73.4044438146716;-1.00006103515625;-0.07415771484375;4.80999998785592;482;100 mA;
73.4144438146463;-0.99884033203125;-0.0738525390625;4.81999998783067;483;100 mA;
73.4244438146211;-0.9991455078125;-0.074554443359375;4.82999998780542;484;100 mA;
73.4344438145959;-0.99945068359375;-0.074005126953125;4.83999998778017;485;100 mA;
73.4444438145706;-0.999755859375;-0.07391357421875;4.84999998775493;486;100 mA;
73.4544438145454;-0.999755859375;-0.073974609375;4.85999998772968;487;100 mA;
73.4644438145201;-0.99945068359375;-0.07293701171875;4.86999998770443;488;100 mA;
73.4744438144949;-0.99945068359375;-0.073394775390625;4.87999998767918;489;100 mA;
73.4844438144696;-0.999755859375;-0.073211669921875;4.88999998765394;490;100 mA;
73.4944438144444;-0.999755859375;-0.07257080078125;4.89999998762869;491;100 mA;
73.5044438144191;-0.99945068359375;-0.073028564453125;4.90999998760344;492;100 mA;
73.5144438143939;-0.999755859375;-0.0721435546875;4.91999998757819;493;100 mA;
73.5244438143686;-1.00006103515625;-0.072265625;4.92999998755295;494;100 mA;
73.5344438143434;-0.9991455078125;-0.07257080078125;4.9399999875277;495;100 mA;
73.5444438143181;-0.99945068359375;-0.0716552734375;4.94999998750245;496;100 mA;
73.5544438142929;-0.99945068359375;-0.072052001953125;4.9599999874772;497;100 mA;
73.5644438142676;-0.9991455078125;-0.072052001953125;4.96999998745196;498;100 mA;
73.5744438142424;-0.9991455078125;-0.07183837890625;4.97999998742671;499;100 mA;
73.5844438142171;-0.9991455078125;-0.072479248046875;4.98999998740146;500;100 mA;
73.5944438141919;-0.99945068359375;-0.07183837890625;4.99999998737621;501;100 mA;
73.6044438141666;-0.9991455078125;-0.07208251953125;5.00999998735097;502;100 mA;
73.6144438141414;-0.99945068359375;-0.072479248046875;5.01999998732572;503;100 mA;
73.6244438141161;-0.99945068359375;-0.071990966796875;5.02999998730047;504;100 mA;
73.6344438140909;-0.9991455078125;-0.07232666015625;5.03999998727522;505;100 mA;
73.6444438140657;-0.9991455078125;-0.07208251953125;5.04999998724998;506;100 mA;
73.6544438140404;-0.999755859375;-0.07208251953125;5.05999998722473;507;100 mA;
73.6644438140152;-0.99945068359375;-0.072845458984375;5.06999998719948;508;100 mA;
73.6744438139899;-0.99945068359375;-0.072418212890625;5.07999998717423;509;100 mA;
73.6844438139647;-0.999755859375;-0.072723388671875;5.08999998714899;510;100 mA;
73.6944438139394;-0.999755859375;-0.07318115234375;5.09999998712374;511;100 mA;
73.7044438139142;-0.99945068359375;-0.072662353515625;5.10999998709849;512;100 mA;
73.7144438138889;-0.999755859375;-0.0731201171875;5.11999998707324;513;100 mA;
73.7244438138637;-0.9991455078125;-0.072662353515625;5.129999987048;514;100 mA;
73.7344438138384;-0.99945068359375;-0.07208251953125;5.13999998702275;515;100 mA;
73.7444438138132;-0.99945068359375;-0.07269287109375;5.1499999869975;516;100 mA;
73.7544438137879;-0.999755859375;-0.071929931640625;5.15999998697225;517;100 mA;
73.7644438137627;-0.99945068359375;-0.0716552734375;5.169999986947;518;100 mA;
73.7744438137374;-0.9991455078125;-0.071807861328125;5.17999998692176;519;100 mA;
73.7844438137122;-0.9991455078125;-0.071319580078125;5.18999998689651;520;100 mA;
73.7944438136869;-0.99945068359375;-0.071807861328125;5.19999998687126;521;100 mA;
73.8044438136617;-0.99945068359375;-0.071563720703125;5.20999998684601;522;100 mA;
73.8144438136364;-0.9991455078125;-0.07122802734375;5.21999998682077;523;100 mA;
73.8244438136112;-0.99945068359375;-0.0718994140625;5.22999998679552;524;100 mA;
73.8344438135859;-0.99884033203125;-0.071502685546875;5.23999998677027;525;100 mA;
73.8444438135607;-0.99945068359375;-0.07159423828125;5.24999998674502;526;100 mA;
73.8544438135355;-0.99945068359375;-0.07177734375;5.25999998671978;527;100 mA;
73.8644438135102;-0.99945068359375;-0.07122802734375;5.26999998669453;528;100 mA;
73.874443813485;-0.9991455078125;-0.07177734375;5.27999998666928;529;100 mA;
73.8844438134597;-1.00006103515625;-0.071685791015625;5.28999998664403;530;100 mA;
73.8944438134345;-0.99945068359375;-0.071197509765625;5.29999998661879;531;100 mA;
73.9044438134092;-0.999755859375;-0.07183837890625;5.30999998659354;532;100 mA;
73.914443813384;-0.9991455078125;-0.07147216796875;5.31999998656829;533;100 mA;
73.9244438133587;-0.999755859375;-0.071563720703125;5.32999998654304;534;100 mA;
73.9344438133335;-0.9991455078125;-0.07183837890625;5.3399999865178;535;100 mA;
73.9444438133082;-0.9991455078125;-0.071197509765625;5.34999998649255;536;100 mA;
73.954443813283;-0.9991455078125;-0.0718994140625;5.3599999864673;537;100 mA;
73.9644438132577;-0.999755859375;-0.071990966796875;5.36999998644205;538;100 mA;
73.9744438132325;-0.999755859375;-0.071685791015625;5.37999998641681;539;100 mA;
73.9844438132072;-0.999755859375;-0.072174072265625;5.38999998639156;540;100 mA;
73.994443813182;-0.99945068359375;-0.071746826171875;5.39999998636631;541;100 mA;
74.0044438131567;-0.99945068359375;-0.07196044921875;5.40999998634106;542;100 mA;
74.0144438131315;-0.99945068359375;-0.072357177734375;5.41999998631582;543;100 mA;
74.0244438131062;-0.99945068359375;-0.071929931640625;5.42999998629057;544;100 mA;
74.034443813081;-0.9991455078125;-0.072418212890625;5.43999998626532;545;100 mA;
74.0444438130558;-0.999755859375;-0.072418212890625;5.44999998624007;546;100 mA;
74.0544438130305;-0.99945068359375;-0.072418212890625;5.45999998621483;547;100 mA;
74.0644438130053;-0.99945068359375;-0.07330322265625;5.46999998618958;548;100 mA;
74.07444381298;-0.99945068359375;-0.072662353515625;5.47999998616433;549;100 mA;
74.0844438129548;-0.9991455078125;-0.073028564453125;5.48999998613908;550;100 mA;
74.0944438129295;-0.999755859375;-0.0738525390625;5.49999998611383;551;100 mA;
74.1044438129043;-0.9991455078125;-0.07342529296875;5.50999998608859;552;100 mA;
74.114443812879;-0.999755859375;-0.074249267578125;5.51999998606334;553;100 mA;
74.1244438128538;-0.999755859375;-0.074127197265625;5.52999998603809;554;100 mA;
74.1344438128285;-0.99945068359375;-0.0740966796875;5.53999998601284;555;100 mA;
74.1444438128033;-0.9991455078125;-0.07525634765625;5.5499999859876;556;100 mA;
74.154443812778;-0.999755859375;-0.07470703125;5.55999998596235;557;100 mA;
74.1644438127528;-0.9991455078125;-0.074981689453125;5.5699999859371;558;100 mA;
74.1744438127275;-0.9991455078125;-0.075592041015625;5.57999998591185;559;100 mA;
74.1844438127023;-0.99945068359375;-0.07489013671875;5.58999998588661;560;100 mA;
74.194443812677;-0.99945068359375;-0.075347900390625;5.59999998586136;561;100 mA;
74.2044438126518;-0.99945068359375;-0.074859619140625;5.60999998583611;562;100 mA;
74.2144438126265;-0.999755859375;-0.07470703125;5.61999998581086;563;100 mA;
74.2244438126013;-0.99945068359375;-0.07562255859375;5.62999998578562;564;100 mA;
74.234443812576;-0.9991455078125;-0.074798583984375;5.63999998576037;565;100 mA;
74.2444438125508;-0.9991455078125;-0.074615478515625;5.64999998573512;566;100 mA;
74.2544438125256;-0.9991455078125;-0.074798583984375;5.65999998570987;567;100 mA;
74.2644438125003;-0.99945068359375;-0.07421875;5.66999998568463;568;100 mA;
74.2744438124751;-0.999755859375;-0.07476806640625;5.67999998565938;569;100 mA;
74.2844438124498;-0.99945068359375;-0.074127197265625;5.68999998563413;570;100 mA;
74.2944438124246;-0.99945068359375;-0.073516845703125;5.69999998560888;571;100 mA;
74.3044438123993;-0.99945068359375;-0.074066162109375;5.70999998558364;572;100 mA;
74.3144438123741;-0.99945068359375;-0.073272705078125;5.71999998555839;573;100 mA;
74.3244438123488;-0.99945068359375;-0.0731201171875;5.72999998553314;574;100 mA;
74.3344438123236;-0.99945068359375;-0.073333740234375;5.73999998550789;575;100 mA;
74.3444438122983;-0.999755859375;-0.072479248046875;5.74999998548265;576;100 mA;
74.3544438122731;-0.999755859375;-0.073150634765625;5.7599999854574;577;100 mA;
74.3644438122478;-0.99945068359375;-0.072967529296875;5.76999998543215;578;100 mA;
74.3744438122226;-0.99945068359375;-0.07244873046875;5.7799999854069;579;100 mA;
74.3844438121973;-0.999755859375;-0.073089599609375;5.78999998538166;580;100 mA;
74.3944438121721;-0.99884033203125;-0.07257080078125;5.79999998535641;581;100 mA;
74.4044438121468;-0.99884033203125;-0.072601318359375;5.80999998533116;582;100 mA;
74.4144438121216;-0.99945068359375;-0.0728759765625;5.81999998530591;583;100 mA;
74.4244438120963;-0.9991455078125;-0.07208251953125;5.82999998528066;584;100 mA;
74.4344438120711;-0.99945068359375;-0.072723388671875;5.83999998525542;585;100 mA;
74.4444438120458;-0.99945068359375;-0.072357177734375;5.84999998523017;586;100 mA;
74.4544438120206;-1.00006103515625;-0.071929931640625;5.85999998520492;587;100 mA;
74.4644438119954;-0.99945068359375;-0.07232666015625;5.86999998517967;588;100 mA;
74.4744438119701;-0.999755859375;-0.07171630859375;5.87999998515443;589;100 mA;
74.4844438119449;-0.999755859375;-0.072021484375;5.88999998512918;590;100 mA;
74.4944438119196;-0.999755859375;-0.072479248046875;5.89999998510393;591;100 mA;
74.5044438118944;-0.99945068359375;-0.071746826171875;5.90999998507868;592;100 mA;
74.5144438118691;-0.99945068359375;-0.072601318359375;5.91999998505344;593;100 mA;
74.5244438118439;-0.9991455078125;-0.07257080078125;5.92999998502819;594;100 mA;
74.5344438118186;-0.9991455078125;-0.072357177734375;5.93999998500294;595;100 mA;
74.5444438117934;-0.999755859375;-0.073211669921875;5.94999998497769;596;100 mA;
74.5544438117681;-0.99884033203125;-0.07257080078125;5.95999998495245;597;100 mA;
74.5644438117429;-0.99945068359375;-0.072845458984375;5.9699999849272;598;100 mA;
74.5744438117176;-0.9991455078125;-0.073638916015625;5.97999998490195;599;100 mA;
74.5844438116924;-0.9991455078125;-0.072784423828125;5.9899999848767;600;100 mA;
74.5944438116671;-0.9991455078125;-0.07330322265625;5.99999998485146;601;100 mA;
74.6044438116419;-0.999755859375;-0.073211669921875;6.00999998482621;602;100 mA;
74.6144438116166;-0.9991455078125;-0.072998046875;6.01999998480096;603;100 mA;
74.6244438115914;-0.99945068359375;-0.073883056640625;6.02999998477571;604;100 mA;
74.6344438115661;-0.99945068359375;-0.07305908203125;6.03999998475047;605;100 mA;
74.6444438115409;-0.99945068359375;-0.073333740234375;6.04999998472522;606;100 mA;
74.6544438115156;-0.99945068359375;-0.074127197265625;6.05999998469997;607;100 mA;
74.6644438114904;-0.999755859375;-0.07354736328125;6.06999998467472;608;100 mA;
74.6744438114652;-0.99884033203125;-0.0738525390625;6.07999998464948;609;100 mA;
74.6844438114399;-0.99945068359375;-0.07342529296875;6.08999998462423;610;100 mA;
74.6944438114147;-0.9991455078125;-0.072906494140625;6.09999998459898;611;100 mA;
74.7044438113894;-0.99945068359375;-0.0738525390625;6.10999998457373;612;100 mA;
74.7144438113642;-0.9991455078125;-0.072967529296875;6.11999998454849;613;100 mA;
74.7244438113389;-0.9991455078125;-0.072967529296875;6.12999998452324;614;100 mA;
74.7344438113137;-0.999755859375;-0.07373046875;6.13999998449799;615;100 mA;
74.7444438112884;-0.999755859375;-0.073333740234375;6.14999998447274;616;100 mA;
74.7544438112632;-0.999755859375;-0.073883056640625;6.1599999844475;617;100 mA;
74.7644438112379;-0.99945068359375;-0.07373046875;6.16999998442225;618;100 mA;
74.7744438112127;-0.999755859375;-0.073394775390625;6.179999984397;619;100 mA;
74.7844438111874;-0.9991455078125;-0.074462890625;6.18999998437175;620;100 mA;
74.7944438111622;-0.999755859375;-0.073944091796875;6.1999999843465;621;100 mA;
74.8044438111369;-0.999755859375;-0.073944091796875;6.20999998432126;622;100 mA;
74.8144438111117;-0.99945068359375;-0.074310302734375;6.21999998429601;623;100 mA;
74.8244438110864;-1.00006103515625;-0.074066162109375;6.22999998427076;624;100 mA;
74.8344438110612;-0.99945068359375;-0.074737548828125;6.23999998424551;625;100 mA;
74.8444438110359;-0.9991455078125;-0.07452392578125;6.24999998422027;626;100 mA;
74.8544438110107;-0.99945068359375;-0.074249267578125;6.25999998419502;627;100 mA;
74.8644438109854;-0.9991455078125;-0.07513427734375;6.26999998416977;628;100 mA;
74.8744438109602;-0.9991455078125;-0.0748291015625;6.27999998414452;629;100 mA;
74.884443810935;-0.99945068359375;-0.07489013671875;6.28999998411928;630;100 mA;
74.8944438109097;-0.999755859375;-0.075225830078125;6.29999998409403;631;100 mA;
74.9044438108845;-0.999755859375;-0.074676513671875;6.30999998406878;632;100 mA;
74.9144438108592;-0.9991455078125;-0.07562255859375;6.31999998404353;633;100 mA;
74.924443810834;-0.99945068359375;-0.0755615234375;6.32999998401829;634;100 mA;
74.9344438108087;-0.999755859375;-0.074920654296875;6.33999998399304;635;100 mA;
74.9444438107835;-0.999755859375;-0.075439453125;6.34999998396779;636;100 mA;
74.9544438107582;-0.99945068359375;-0.074951171875;6.35999998394254;637;100 mA;
74.964443810733;-0.9991455078125;-0.074859619140625;6.3699999839173;638;100 mA;
74.9744438107077;-0.99945068359375;-0.074951171875;6.37999998389205;639;100 mA;
74.9844438106825;-0.999755859375;-0.073944091796875;6.3899999838668;640;100 mA;
74.9944438106572;-0.999755859375;-0.074462890625;6.39999998384155;641;100 mA;
75.004443810632;-0.9991455078125;-0.074249267578125;6.40999998381631;642;100 mA;
75.0144438106067;-1.00006103515625;-0.07373046875;6.41999998379106;643;100 mA;
75.0244438105815;-0.99884033203125;-0.074066162109375;6.42999998376581;644;100 mA;
75.0344438105562;-0.9991455078125;-0.0733642578125;6.43999998374056;645;100 mA;
75.044443810531;-0.999755859375;-0.073577880859375;6.44999998371532;646;100 mA;
75.0544438105057;-0.999755859375;-0.0740966796875;6.45999998369007;647;100 mA;
75.0644438104805;-0.99945068359375;-0.073516845703125;6.46999998366482;648;100 mA;
75.0744438104553;-0.999755859375;-0.074127197265625;6.47999998363957;649;100 mA;
75.08444381043;-0.999755859375;-0.074066162109375;6.48999998361433;650;100 mA;
75.0944438104048;-0.9991455078125;-0.07403564453125;6.49999998358908;651;100 mA;
75.1044438103795;-0.99945068359375;-0.0748291015625;6.50999998356383;652;100 mA;
75.1144438103543;-0.999755859375;-0.0740966796875;6.51999998353858;653;100 mA;
75.124443810329;-0.99945068359375;-0.074310302734375;6.52999998351333;654;100 mA;
75.1344438103038;-0.9991455078125;-0.0751953125;6.53999998348809;655;100 mA;
75.1444438102785;-0.99945068359375;-0.074432373046875;6.54999998346284;656;100 mA;
75.1544438102533;-0.99945068359375;-0.075042724609375;6.55999998343759;657;100 mA;
75.164443810228;-0.999755859375;-0.074951171875;6.56999998341234;658;100 mA;
75.1744438102028;-0.999755859375;-0.07489013671875;6.5799999833871;659;100 mA;
75.1844438101775;-0.99884033203125;-0.075653076171875;6.58999998336185;660;100 mA;
75.1944438101523;-0.99945068359375;-0.074920654296875;6.5999999833366;661;100 mA;
75.204443810127;-0.999755859375;-0.0750732421875;6.60999998331135;662;100 mA;
75.2144438101018;-0.999755859375;-0.075775146484375;6.61999998328611;663;100 mA;
75.2244438100765;-0.9991455078125;-0.075225830078125;6.62999998326086;664;100 mA;
75.2344438100513;-0.9991455078125;-0.07574462890625;6.63999998323561;665;100 mA;
75.244443810026;-0.99945068359375;-0.075347900390625;6.64999998321036;666;100 mA;
75.2544438100008;-0.999755859375;-0.0748291015625;6.65999998318512;667;100 mA;
75.2644438099755;-0.9991455078125;-0.075531005859375;6.66999998315987;668;100 mA;
75.2744438099503;-0.9991455078125;-0.074615478515625;6.67999998313462;669;100 mA;
75.2844438099251;-0.99945068359375;-0.074249267578125;6.68999998310937;670;100 mA;
75.2944438098998;-0.99945068359375;-0.0745849609375;6.69999998308413;671;100 mA;
75.3044438098746;-0.9991455078125;-0.07391357421875;6.70999998305888;672;100 mA;
75.3144438098493;-0.999755859375;-0.074127197265625;6.71999998303363;673;100 mA;
75.3244438098241;-0.99945068359375;-0.073486328125;6.72999998300838;674;100 mA;
75.3344438097988;-0.99884033203125;-0.0728759765625;6.73999998298314;675;100 mA;
75.3444438097736;-0.9991455078125;-0.07354736328125;6.74999998295789;676;100 mA;
75.3544438097483;-0.9991455078125;-0.07269287109375;6.75999998293264;677;100 mA;
75.3644438097231;-0.999755859375;-0.0723876953125;6.76999998290739;678;100 mA;
75.3744438096978;-1.00006103515625;-0.072479248046875;6.77999998288215;679;100 mA;
75.3844438096726;-0.9991455078125;-0.071807861328125;6.7899999828569;680;100 mA;
75.3944438096473;-0.99945068359375;-0.072113037109375;6.79999998283165;681;100 mA;
75.4044438096221;-0.9991455078125;-0.0718994140625;6.8099999828064;682;100 mA;
75.4144438095968;-0.999755859375;-0.071258544921875;6.81999998278116;683;100 mA;
75.4244438095716;-0.999755859375;-0.071929931640625;6.82999998275591;684;100 mA;
75.4344438095463;-1.00006103515625;-0.071502685546875;6.83999998273066;685;100 mA;
75.4444438095211;-0.9991455078125;-0.071502685546875;6.84999998270541;686;100 mA;
75.4544438094958;-0.99945068359375;-0.0718994140625;6.85999998268016;687;100 mA;
75.4644438094706;-0.999755859375;-0.07135009765625;6.86999998265492;688;100 mA;
75.4744438094453;-0.9991455078125;-0.071685791015625;6.87999998262967;689;100 mA;
75.4844438094201;-0.9991455078125;-0.07183837890625;6.88999998260442;690;100 mA;
75.4944438093949;-0.999755859375;-0.071197509765625;6.89999998257917;691;100 mA;
75.5044438093696;-0.999755859375;-0.07159423828125;6.90999998255393;692;100 mA;
75.5144438093444;-0.999755859375;-0.0709228515625;6.91999998252868;693;100 mA;
75.5244438093191;-0.99884033203125;-0.071014404296875;6.92999998250343;694;100 mA;
75.5344438092939;-1.00006103515625;-0.0712890625;6.93999998247818;695;100 mA;
75.5444438092686;-0.9991455078125;-0.070526123046875;6.94999998245294;696;100 mA;
75.5544438092434;-0.999755859375;-0.0709228515625;6.95999998242769;697;100 mA;
75.5644438092181;-1.0003662109375;-0.07080078125;6.96999998240244;698;100 mA;
75.5744438091929;-0.9991455078125;-0.070159912109375;6.97999998237719;699;100 mA;
75.5844438091676;-0.999755859375;-0.070526123046875;6.98999998235195;700;100 mA;
