Time (s);WE(1).Potential (V);WE(1).Current (A);Corrected time (s);Index;Current range;Overload
88.8278807757312;-0.750213623046875;-0.3641357421875;0;1;100 mA;Current overload
88.8378807757059;-0.7493896484375;-0.250762939453125;0.00999999997475243;2;100 mA;
88.8478807756807;-0.749420166015625;-0.20263671875;0.0199999999495049;3;100 mA;
88.8578807756554;-0.7493896484375;-0.17449951171875;0.0299999999242573;4;100 mA;
88.8678807756302;-0.74945068359375;-0.155609130859375;0.0399999998990097;5;100 mA;
88.8778807756049;-0.749481201171875;-0.14178466796875;0.0499999998737621;6;100 mA;
88.8878807755797;-0.749481201171875;-0.13104248046875;0.0599999998485146;7;100 mA;
88.8978807755544;-0.749481201171875;-0.1224365234375;0.069999999823267;8;100 mA;
88.9078807755292;-0.749481201171875;-0.115264892578125;0.0799999997980194;9;100 mA;
88.9178807755039;-0.74945068359375;-0.109222412109375;0.0899999997727718;10;100 mA;
88.9278807754787;-0.749481201171875;-0.10406494140625;0.0999999997475243;11;100 mA;
88.9378807754534;-0.74957275390625;-0.099517822265625;0.109999999722277;12;100 mA;
88.9478807754282;-0.749542236328125;-0.095550537109375;0.119999999697029;13;100 mA;
88.9578807754029;-0.749481201171875;-0.09197998046875;0.129999999671782;14;100 mA;
88.9678807753777;-0.749542236328125;-0.08880615234375;0.139999999646534;15;100 mA;
88.9778807753524;-0.749542236328125;-0.085906982421875;0.149999999621286;16;100 mA;
88.9878807753272;-0.749542236328125;-0.08331298828125;0.159999999596039;17;100 mA;
88.997880775302;-0.749542236328125;-0.080902099609375;0.169999999570791;18;100 mA;
89.0078807752767;-0.74957275390625;-0.078704833984375;0.179999999545544;19;100 mA;
89.0178807752515;-0.749603271484375;-0.076690673828125;0.189999999520296;20;100 mA;
89.0278807752262;-0.749542236328125;-0.074798583984375;0.199999999495049;21;100 mA;
89.037880775201;-0.7496337890625;-0.07305908203125;0.209999999469801;22;100 mA;
89.0478807751757;-0.74957275390625;-0.071441650390625;0.219999999444553;23;100 mA;
89.0578807751505;-0.749542236328125;-0.069915771484375;0.229999999419306;24;100 mA;
89.0678807751252;-0.74951171875;-0.0684814453125;0.239999999394058;25;100 mA;
89.0778807751;-0.7496337890625;-0.067138671875;0.249999999368811;26;100 mA;
89.0878807750747;-0.749542236328125;-0.06585693359375;0.259999999343563;27;100 mA;
89.0978807750495;-0.74957275390625;-0.064666748046875;0.269999999318316;28;100 mA;
89.1078807750242;-0.749664306640625;-0.063507080078125;0.279999999293068;29;100 mA;
89.117880774999;-0.74957275390625;-0.06243896484375;0.28999999926782;30;100 mA;
89.1278807749737;-0.749603271484375;-0.061431884765625;0.299999999242573;31;100 mA;
89.1378807749485;-0.749542236328125;-0.060455322265625;0.309999999217325;32;100 mA;
89.1478807749232;-0.74957275390625;-0.059539794921875;0.319999999192078;33;100 mA;
89.157880774898;-0.74969482421875;-0.05865478515625;0.32999999916683;34;100 mA;
89.1678807748727;-0.749603271484375;-0.05780029296875;0.339999999141583;35;100 mA;
89.1778807748475;-0.749603271484375;-0.0570068359375;0.349999999116335;36;100 mA;
89.1878807748222;-0.749603271484375;-0.05621337890625;0.359999999091087;37;100 mA;
89.197880774797;-0.749603271484375;-0.05548095703125;0.36999999906584;38;100 mA;
89.2078807747718;-0.749664306640625;-0.054779052734375;0.379999999040592;39;100 mA;
89.2178807747465;-0.749603271484375;-0.0540771484375;0.389999999015345;40;100 mA;
89.2278807747213;-0.74957275390625;-0.053436279296875;0.399999998990097;41;100 mA;
89.237880774696;-0.74957275390625;-0.05279541015625;0.40999999896485;42;100 mA;
89.2478807746708;-0.74957275390625;-0.05218505859375;0.419999998939602;43;100 mA;
89.2578807746455;-0.74951171875;-0.051605224609375;0.429999998914354;44;100 mA;
89.2678807746203;-0.749664306640625;-0.051055908203125;0.439999998889107;45;100 mA;
89.277880774595;-0.7496337890625;-0.05047607421875;0.449999998863859;46;100 mA;
89.2878807745698;-0.749542236328125;-0.049957275390625;0.459999998838612;47;100 mA;
89.2978807745445;-0.749603271484375;-0.0494476318359375;0.469999998813364;48;100 mA;
89.3078807745193;-0.749603271484375;-0.0489471435546875;0.479999998788116;49;100 mA;
89.317880774494;-0.749603271484375;-0.04847412109375;0.489999998762869;50;100 mA;
89.3278807744688;-0.7496337890625;-0.04801025390625;0.499999998737621;51;100 mA;
89.3378807744435;-0.7496337890625;-0.04755859375;0.509999998712374;52;100 mA;
89.3478807744183;-0.749603271484375;-0.0471282958984375;0.519999998687126;53;100 mA;
89.357880774393;-0.749603271484375;-0.0466949462890625;0.529999998661879;54;100 mA;
89.3678807743678;-0.74957275390625;-0.0462890625;0.539999998636631;55;100 mA;
89.3778807743425;-0.749603271484375;-0.0458831787109375;0.549999998611383;56;100 mA;
89.3878807743173;-0.749603271484375;-0.04549560546875;0.559999998586136;57;100 mA;
89.397880774292;-0.749664306640625;-0.0451263427734375;0.569999998560888;58;100 mA;
89.4078807742668;-0.749603271484375;-0.0447509765625;0.579999998535641;59;100 mA;
89.4178807742416;-0.7496337890625;-0.044403076171875;0.589999998510393;60;100 mA;
89.4278807742163;-0.749603271484375;-0.044061279296875;0.599999998485146;61;100 mA;
89.4378807741911;-0.74957275390625;-0.0437164306640625;0.609999998459898;62;100 mA;
89.4478807741658;-0.749603271484375;-0.04339599609375;0.61999999843465;63;100 mA;
89.4578807741406;-0.749603271484375;-0.04306640625;0.629999998409403;64;100 mA;
89.4678807741153;-0.74957275390625;-0.0427642822265625;0.639999998384155;65;100 mA;
89.4778807740901;-0.749603271484375;-0.042462158203125;0.649999998358908;66;100 mA;
89.4878807740648;-0.749603271484375;-0.042156982421875;0.65999999833366;67;100 mA;
89.4978807740396;-0.749603271484375;-0.041876220703125;0.669999998308413;68;100 mA;
89.5078807740143;-0.749664306640625;-0.041583251953125;0.679999998283165;69;100 mA;
89.5178807739891;-0.74957275390625;-0.04130859375;0.689999998257917;70;100 mA;
89.5278807739638;-0.749603271484375;-0.0410400390625;0.69999999823267;71;100 mA;
89.5378807739386;-0.7496337890625;-0.0407684326171875;0.709999998207422;72;100 mA;
89.5478807739133;-0.7496337890625;-0.0405181884765625;0.719999998182175;73;100 mA;
89.5578807738881;-0.74957275390625;-0.0402618408203125;0.729999998156927;74;100 mA;
89.5678807738628;-0.749603271484375;-0.0400177001953125;0.73999999813168;75;100 mA;
89.5778807738376;-0.749603271484375;-0.039776611328125;0.749999998106432;76;100 mA;
89.5878807738123;-0.749603271484375;-0.0395416259765625;0.759999998081184;77;100 mA;
89.5978807737871;-0.749603271484375;-0.0393157958984375;0.769999998055937;78;100 mA;
89.6078807737618;-0.749664306640625;-0.0390869140625;0.779999998030689;79;100 mA;
89.6178807737366;-0.749603271484375;-0.038873291015625;0.789999998005442;80;100 mA;
89.6278807737114;-0.74957275390625;-0.0386566162109375;0.799999997980194;81;100 mA;
89.6378807736861;-0.7496337890625;-0.03843994140625;0.809999997954947;82;100 mA;
89.6478807736609;-0.7496337890625;-0.0382354736328125;0.819999997929699;83;100 mA;
89.6578807736356;-0.7496337890625;-0.0380279541015625;0.829999997904451;84;100 mA;
89.6678807736104;-0.749603271484375;-0.03782958984375;0.839999997879204;85;100 mA;
89.6778807735851;-0.749603271484375;-0.0376312255859375;0.849999997853956;86;100 mA;
89.6878807735599;-0.749603271484375;-0.03743896484375;0.859999997828709;87;100 mA;
89.6978807735346;-0.749603271484375;-0.037255859375;0.869999997803461;88;100 mA;
89.7078807735094;-0.749603271484375;-0.0370574951171875;0.879999997778214;89;100 mA;
89.7178807734841;-0.749603271484375;-0.0368804931640625;0.889999997752966;90;100 mA;
89.7278807734589;-0.7496337890625;-0.03670654296875;0.899999997727718;91;100 mA;
89.7378807734336;-0.7496337890625;-0.0365264892578125;0.909999997702471;92;100 mA;
89.7478807734084;-0.749603271484375;-0.0363616943359375;0.919999997677223;93;100 mA;
89.7578807733831;-0.749603271484375;-0.036187744140625;0.929999997651976;94;100 mA;
89.7678807733579;-0.7496337890625;-0.0360198974609375;0.939999997626728;95;100 mA;
89.7778807733326;-0.749603271484375;-0.0358612060546875;0.949999997601481;96;100 mA;
89.7878807733074;-0.749664306640625;-0.035699462890625;0.959999997576233;97;100 mA;
89.7978807732821;-0.749664306640625;-0.035546875;0.969999997550985;98;100 mA;
89.8078807732569;-0.7496337890625;-0.0353759765625;0.979999997525738;99;100 mA;
89.8178807732316;-0.7496337890625;-0.0352264404296875;0.98999999750049;100;100 mA;
89.8278807732064;-0.74957275390625;-0.03507080078125;0.999999997475243;101;100 mA;
89.8378807731812;-0.749664306640625;-0.034912109375;1.00999999745;102;100 mA;
89.8478807731559;-0.74957275390625;-0.034771728515625;1.01999999742475;103;100 mA;
89.8578807731307;-0.7496337890625;-0.034619140625;1.0299999973995;104;100 mA;
89.8678807731054;-0.7496337890625;-0.034478759765625;1.03999999737425;105;100 mA;
89.8778807730802;-0.7496337890625;-0.034344482421875;1.049999997349;106;100 mA;
89.8878807730549;-0.749603271484375;-0.0342071533203125;1.05999999732376;107;100 mA;
89.8978807730297;-0.749664306640625;-0.0340728759765625;1.06999999729851;108;100 mA;
89.9078807730044;-0.7496337890625;-0.033935546875;1.07999999727326;109;100 mA;
89.9178807729792;-0.749603271484375;-0.0338043212890625;1.08999999724801;110;100 mA;
89.9278807729539;-0.749603271484375;-0.0336700439453125;1.09999999722277;111;100 mA;
89.9378807729287;-0.74957275390625;-0.0335357666015625;1.10999999719752;112;100 mA;
89.9478807729034;-0.7496337890625;-0.033416748046875;1.11999999717227;113;100 mA;
89.9578807728782;-0.74957275390625;-0.0332763671875;1.12999999714702;114;100 mA;
89.9678807728529;-0.749603271484375;-0.0331573486328125;1.13999999712178;115;100 mA;
89.9778807728277;-0.749603271484375;-0.0330352783203125;1.14999999709653;116;100 mA;
89.9878807728024;-0.749603271484375;-0.0329132080078125;1.15999999707128;117;100 mA;
89.9978807727772;-0.7496337890625;-0.03280029296875;1.16999999704603;118;100 mA;
90.0078807727519;-0.7496337890625;-0.03267822265625;1.17999999702079;119;100 mA;
90.0178807727267;-0.749603271484375;-0.0325653076171875;1.18999999699554;120;100 mA;
90.0278807727015;-0.7496337890625;-0.0324554443359375;1.19999999697029;121;100 mA;
90.0378807726762;-0.749603271484375;-0.0323394775390625;1.20999999694504;122;100 mA;
90.047880772651;-0.749664306640625;-0.0322418212890625;1.2199999969198;123;100 mA;
90.0578807726257;-0.749603271484375;-0.0321258544921875;1.22999999689455;124;100 mA;
90.0678807726005;-0.74957275390625;-0.032025146484375;1.2399999968693;125;100 mA;
90.0778807725752;-0.74957275390625;-0.0319244384765625;1.24999999684405;126;100 mA;
90.08788077255;-0.749664306640625;-0.03182373046875;1.25999999681881;127;100 mA;
90.0978807725247;-0.74957275390625;-0.03172607421875;1.26999999679356;128;100 mA;
90.1078807724995;-0.74957275390625;-0.0316192626953125;1.27999999676831;129;100 mA;
90.1178807724742;-0.749664306640625;-0.0315216064453125;1.28999999674306;130;100 mA;
90.127880772449;-0.749603271484375;-0.0314300537109375;1.29999999671782;131;100 mA;
90.1378807724237;-0.7496337890625;-0.031329345703125;1.30999999669257;132;100 mA;
90.1478807723985;-0.749603271484375;-0.0312469482421875;1.31999999666732;133;100 mA;
90.1578807723732;-0.749603271484375;-0.0311553955078125;1.32999999664207;134;100 mA;
90.167880772348;-0.749542236328125;-0.03106689453125;1.33999999661683;135;100 mA;
90.1778807723227;-0.749603271484375;-0.0309814453125;1.34999999659158;136;100 mA;
90.1878807722975;-0.74969482421875;-0.0308990478515625;1.35999999656633;137;100 mA;
90.1978807722722;-0.749603271484375;-0.030816650390625;1.36999999654108;138;100 mA;
90.207880772247;-0.7496337890625;-0.0307281494140625;1.37999999651583;139;100 mA;
90.2178807722217;-0.7496337890625;-0.0306488037109375;1.38999999649059;140;100 mA;
90.2278807721965;-0.7496337890625;-0.0305694580078125;1.39999999646534;141;100 mA;
90.2378807721713;-0.749603271484375;-0.0304931640625;1.40999999644009;142;100 mA;
90.247880772146;-0.7496337890625;-0.0304229736328125;1.41999999641484;143;100 mA;
90.2578807721208;-0.7496337890625;-0.03033447265625;1.4299999963896;144;100 mA;
90.2678807720955;-0.74957275390625;-0.03026123046875;1.43999999636435;145;100 mA;
90.2778807720703;-0.749603271484375;-0.0301910400390625;1.4499999963391;146;100 mA;
90.287880772045;-0.7496337890625;-0.0301177978515625;1.45999999631385;147;100 mA;
90.2978807720198;-0.7496337890625;-0.030047607421875;1.46999999628861;148;100 mA;
90.3078807719945;-0.7496337890625;-0.029974365234375;1.47999999626336;149;100 mA;
90.3178807719693;-0.7496337890625;-0.0299072265625;1.48999999623811;150;100 mA;
90.327880771944;-0.749603271484375;-0.0298431396484375;1.49999999621286;151;100 mA;
90.3378807719188;-0.74957275390625;-0.0297760009765625;1.50999999618762;152;100 mA;
90.3478807718935;-0.7496337890625;-0.02972412109375;1.51999999616237;153;100 mA;
90.3578807718683;-0.749664306640625;-0.02965087890625;1.52999999613712;154;100 mA;
90.367880771843;-0.7496337890625;-0.0295867919921875;1.53999999611187;155;100 mA;
90.3778807718178;-0.7496337890625;-0.0295257568359375;1.54999999608663;156;100 mA;
90.3878807717925;-0.7496337890625;-0.029461669921875;1.55999999606138;157;100 mA;
90.3978807717673;-0.749603271484375;-0.0294036865234375;1.56999999603613;158;100 mA;
90.407880771742;-0.749664306640625;-0.0293304443359375;1.57999999601088;159;100 mA;
90.4178807717168;-0.749664306640625;-0.0292724609375;1.58999999598564;160;100 mA;
90.4278807716915;-0.74969482421875;-0.029217529296875;1.59999999596039;161;100 mA;
90.4378807716663;-0.749603271484375;-0.029150390625;1.60999999593514;162;100 mA;
90.4478807716411;-0.74957275390625;-0.0290985107421875;1.61999999590989;163;100 mA;
90.4578807716158;-0.7496337890625;-0.029034423828125;1.62999999588465;164;100 mA;
90.4678807715906;-0.749725341796875;-0.028973388671875;1.6399999958594;165;100 mA;
90.4778807715653;-0.7496337890625;-0.02891845703125;1.64999999583415;166;100 mA;
90.4878807715401;-0.749603271484375;-0.0288543701171875;1.6599999958089;167;100 mA;
90.4978807715148;-0.749603271484375;-0.028802490234375;1.66999999578366;168;100 mA;
90.5078807714896;-0.749603271484375;-0.028729248046875;1.67999999575841;169;100 mA;
90.5178807714643;-0.7496337890625;-0.0286773681640625;1.68999999573316;170;100 mA;
90.5278807714391;-0.7496337890625;-0.0286102294921875;1.69999999570791;171;100 mA;
90.5378807714138;-0.749542236328125;-0.028546142578125;1.70999999568267;172;100 mA;
90.5478807713886;-0.749603271484375;-0.0284942626953125;1.71999999565742;173;100 mA;
90.5578807713633;-0.7496337890625;-0.028424072265625;1.72999999563217;174;100 mA;
90.5678807713381;-0.749603271484375;-0.0283721923828125;1.73999999560692;175;100 mA;
90.5778807713128;-0.749664306640625;-0.028314208984375;1.74999999558167;176;100 mA;
90.5878807712876;-0.7496337890625;-0.0282470703125;1.75999999555643;177;100 mA;
90.5978807712623;-0.74957275390625;-0.0281982421875;1.76999999553118;178;100 mA;
90.6078807712371;-0.749542236328125;-0.0281341552734375;1.77999999550593;179;100 mA;
90.6178807712118;-0.749542236328125;-0.028082275390625;1.78999999548068;180;100 mA;
90.6278807711866;-0.74969482421875;-0.028021240234375;1.79999999545544;181;100 mA;
90.6378807711613;-0.74957275390625;-0.02796630859375;1.80999999543019;182;100 mA;
90.6478807711361;-0.7496337890625;-0.0279083251953125;1.81999999540494;183;100 mA;
90.6578807711109;-0.74969482421875;-0.0278472900390625;1.82999999537969;184;100 mA;
90.6678807710856;-0.749664306640625;-0.0277923583984375;1.83999999535445;185;100 mA;
90.6778807710604;-0.74957275390625;-0.0277313232421875;1.8499999953292;186;100 mA;
90.6878807710351;-0.74957275390625;-0.02767333984375;1.85999999530395;187;100 mA;
90.6978807710099;-0.749603271484375;-0.0276214599609375;1.8699999952787;188;100 mA;
90.7078807709846;-0.749664306640625;-0.027557373046875;1.87999999525346;189;100 mA;
90.7178807709594;-0.74957275390625;-0.02750244140625;1.88999999522821;190;100 mA;
90.7278807709341;-0.7496337890625;-0.0274505615234375;1.89999999520296;191;100 mA;
90.7378807709089;-0.749664306640625;-0.027398681640625;1.90999999517771;192;100 mA;
90.7478807708836;-0.7496337890625;-0.027349853515625;1.91999999515247;193;100 mA;
90.7578807708584;-0.749664306640625;-0.027288818359375;1.92999999512722;194;100 mA;
90.7678807708331;-0.749725341796875;-0.0272430419921875;1.93999999510197;195;100 mA;
90.7778807708079;-0.749603271484375;-0.0272003173828125;1.94999999507672;196;100 mA;
90.7878807707826;-0.749664306640625;-0.027142333984375;1.95999999505148;197;100 mA;
90.7978807707574;-0.7496337890625;-0.0271026611328125;1.96999999502623;198;100 mA;
90.8078807707321;-0.74969482421875;-0.027044677734375;1.97999999500098;199;100 mA;
90.8178807707069;-0.749664306640625;-0.0269989013671875;1.98999999497573;200;100 mA;
90.8278807706816;-0.749603271484375;-0.026953125;1.99999999495049;201;100 mA;
90.8378807706564;-0.7496337890625;-0.026904296875;2.00999999492524;202;100 mA;
90.8478807706311;-0.7496337890625;-0.0268585205078125;2.01999999489999;203;100 mA;
90.8578807706059;-0.7496337890625;-0.0267974853515625;2.02999999487474;204;100 mA;
90.8678807705807;-0.749664306640625;-0.0267608642578125;2.0399999948495;205;100 mA;
90.8778807705554;-0.7496337890625;-0.026715087890625;2.04999999482425;206;100 mA;
90.8878807705302;-0.7496337890625;-0.0266632080078125;2.059999994799;207;100 mA;
90.8978807705049;-0.749603271484375;-0.02662353515625;2.06999999477375;208;100 mA;
90.9078807704797;-0.74957275390625;-0.02657470703125;2.0799999947485;209;100 mA;
90.9178807704544;-0.749603271484375;-0.0265350341796875;2.08999999472326;210;100 mA;
90.9278807704292;-0.74957275390625;-0.0264984130859375;2.09999999469801;211;100 mA;
90.9378807704039;-0.74969482421875;-0.0264495849609375;2.10999999467276;212;100 mA;
90.9478807703787;-0.749603271484375;-0.0264129638671875;2.11999999464751;213;100 mA;
90.9578807703534;-0.749664306640625;-0.0263641357421875;2.12999999462227;214;100 mA;
90.9678807703282;-0.749603271484375;-0.0263275146484375;2.13999999459702;215;100 mA;
90.9778807703029;-0.749603271484375;-0.0262847900390625;2.14999999457177;216;100 mA;
90.9878807702777;-0.7496337890625;-0.0262451171875;2.15999999454652;217;100 mA;
90.9978807702524;-0.749603271484375;-0.0262054443359375;2.16999999452128;218;100 mA;
91.0078807702272;-0.749603271484375;-0.0261566162109375;2.17999999449603;219;100 mA;
91.0178807702019;-0.749542236328125;-0.026123046875;2.18999999447078;220;100 mA;
91.0278807701767;-0.7496337890625;-0.0260833740234375;2.19999999444553;221;100 mA;
91.0378807701514;-0.74957275390625;-0.026043701171875;2.20999999442029;222;100 mA;
91.0478807701262;-0.749664306640625;-0.02601318359375;2.21999999439504;223;100 mA;
91.057880770101;-0.749603271484375;-0.0259674072265625;2.22999999436979;224;100 mA;
91.0678807700757;-0.749603271484375;-0.02593994140625;2.23999999434454;225;100 mA;
91.0778807700505;-0.749603271484375;-0.0259002685546875;2.2499999943193;226;100 mA;
91.0878807700252;-0.749603271484375;-0.0258636474609375;2.25999999429405;227;100 mA;
91.09788077;-0.749725341796875;-0.0258331298828125;2.2699999942688;228;100 mA;
91.1078807699747;-0.749664306640625;-0.0257904052734375;2.27999999424355;229;100 mA;
91.1178807699495;-0.7496337890625;-0.0257568359375;2.28999999421831;230;100 mA;
91.1278807699242;-0.7496337890625;-0.02572021484375;2.29999999419306;231;100 mA;
91.137880769899;-0.749664306640625;-0.02568359375;2.30999999416781;232;100 mA;
91.1478807698737;-0.749603271484375;-0.0256561279296875;2.31999999414256;233;100 mA;
91.1578807698485;-0.749664306640625;-0.0256103515625;2.32999999411732;234;100 mA;
91.1678807698232;-0.749664306640625;-0.0255767822265625;2.33999999409207;235;100 mA;
91.177880769798;-0.749603271484375;-0.02554931640625;2.34999999406682;236;100 mA;
91.1878807697727;-0.749603271484375;-0.0255126953125;2.35999999404157;237;100 mA;
91.1978807697475;-0.7496337890625;-0.0254852294921875;2.36999999401633;238;100 mA;
91.2078807697222;-0.749603271484375;-0.025445556640625;2.37999999399108;239;100 mA;
91.217880769697;-0.749542236328125;-0.0254241943359375;2.38999999396583;240;100 mA;
91.2278807696717;-0.749664306640625;-0.025390625;2.39999999394058;241;100 mA;
91.2378807696465;-0.74957275390625;-0.0253570556640625;2.40999999391533;242;100 mA;
91.2478807696212;-0.749664306640625;-0.02532958984375;2.41999999389009;243;100 mA;
91.257880769596;-0.7496337890625;-0.0252899169921875;2.42999999386484;244;100 mA;
91.2678807695708;-0.74957275390625;-0.025262451171875;2.43999999383959;245;100 mA;
91.2778807695455;-0.749542236328125;-0.0252349853515625;2.44999999381434;246;100 mA;
91.2878807695203;-0.7496337890625;-0.0251983642578125;2.4599999937891;247;100 mA;
91.297880769495;-0.749603271484375;-0.0251739501953125;2.46999999376385;248;100 mA;
91.3078807694698;-0.749603271484375;-0.0251373291015625;2.4799999937386;249;100 mA;
91.3178807694445;-0.7496337890625;-0.0251129150390625;2.48999999371335;250;100 mA;
91.3278807694193;-0.749603271484375;-0.02508544921875;2.49999999368811;251;100 mA;
91.337880769394;-0.749603271484375;-0.025054931640625;2.50999999366286;252;100 mA;
91.3478807693688;-0.7496337890625;-0.025030517578125;2.51999999363761;253;100 mA;
91.3578807693435;-0.749603271484375;-0.0249908447265625;2.52999999361236;254;100 mA;
91.3678807693183;-0.74957275390625;-0.0249725341796875;2.53999999358712;255;100 mA;
91.377880769293;-0.749664306640625;-0.0249420166015625;2.54999999356187;256;100 mA;
91.3878807692678;-0.74969482421875;-0.0249114990234375;2.55999999353662;257;100 mA;
91.3978807692425;-0.7496337890625;-0.02489013671875;2.56999999351137;258;100 mA;
91.4078807692173;-0.7496337890625;-0.0248504638671875;2.57999999348613;259;100 mA;
91.417880769192;-0.7496337890625;-0.0248291015625;2.58999999346088;260;100 mA;
91.4278807691668;-0.749603271484375;-0.0248046875;2.59999999343563;261;100 mA;
91.4378807691415;-0.74957275390625;-0.0247711181640625;2.60999999341038;262;100 mA;
91.4478807691163;-0.74957275390625;-0.024749755859375;2.61999999338514;263;100 mA;
91.457880769091;-0.7496337890625;-0.024713134765625;2.62999999335989;264;100 mA;
91.4678807690658;-0.749664306640625;-0.0246978759765625;2.63999999333464;265;100 mA;
91.4778807690406;-0.749603271484375;-0.02467041015625;2.64999999330939;266;100 mA;
91.4878807690153;-0.7496337890625;-0.0246429443359375;2.65999999328415;267;100 mA;
91.4978807689901;-0.749603271484375;-0.0246185302734375;2.6699999932589;268;100 mA;
91.5078807689648;-0.749725341796875;-0.0245849609375;2.67999999323365;269;100 mA;
91.5178807689396;-0.7496337890625;-0.02457275390625;2.6899999932084;270;100 mA;
91.5278807689143;-0.749603271484375;-0.0245452880859375;2.69999999318316;271;100 mA;
91.5378807688891;-0.749603271484375;-0.024517822265625;2.70999999315791;272;100 mA;
91.5478807688638;-0.7496337890625;-0.02449951171875;2.71999999313266;273;100 mA;
91.5578807688386;-0.749542236328125;-0.024468994140625;2.72999999310741;274;100 mA;
91.5678807688133;-0.74957275390625;-0.0244476318359375;2.73999999308217;275;100 mA;
91.5778807687881;-0.7496337890625;-0.0244293212890625;2.74999999305692;276;100 mA;
91.5878807687628;-0.749603271484375;-0.02440185546875;2.75999999303167;277;100 mA;
91.5978807687376;-0.7496337890625;-0.024383544921875;2.76999999300642;278;100 mA;
91.6078807687123;-0.7496337890625;-0.0243560791015625;2.77999999298117;279;100 mA;
91.6178807686871;-0.749664306640625;-0.0243408203125;2.78999999295593;280;100 mA;
91.6278807686618;-0.749664306640625;-0.024322509765625;2.79999999293068;281;100 mA;
91.6378807686366;-0.7496337890625;-0.024298095703125;2.80999999290543;282;100 mA;
91.6478807686113;-0.7496337890625;-0.024285888671875;2.81999999288018;283;100 mA;
91.6578807685861;-0.749603271484375;-0.024261474609375;2.82999999285494;284;100 mA;
91.6678807685608;-0.749664306640625;-0.0242431640625;2.83999999282969;285;100 mA;
91.6778807685356;-0.749603271484375;-0.0242279052734375;2.84999999280444;286;100 mA;
91.6878807685104;-0.74957275390625;-0.0242095947265625;2.85999999277919;287;100 mA;
91.6978807684851;-0.7496337890625;-0.0241943359375;2.86999999275395;288;100 mA;
91.7078807684599;-0.749664306640625;-0.0241729736328125;2.8799999927287;289;100 mA;
91.7178807684346;-0.749603271484375;-0.02415771484375;2.88999999270345;290;100 mA;
91.7278807684094;-0.749603271484375;-0.0241424560546875;2.8999999926782;291;100 mA;
91.7378807683841;-0.7496337890625;-0.0241241455078125;2.90999999265296;292;100 mA;
91.7478807683589;-0.7496337890625;-0.024114990234375;2.91999999262771;293;100 mA;
91.7578807683336;-0.7496337890625;-0.0240997314453125;2.92999999260246;294;100 mA;
91.7678807683084;-0.749664306640625;-0.0240875244140625;2.93999999257721;295;100 mA;
91.7778807682831;-0.7496337890625;-0.0240814208984375;2.94999999255197;296;100 mA;
91.7878807682579;-0.7496337890625;-0.0240631103515625;2.95999999252672;297;100 mA;
91.7978807682326;-0.749603271484375;-0.024053955078125;2.96999999250147;298;100 mA;
91.8078807682074;-0.7496337890625;-0.0240386962890625;2.97999999247622;299;100 mA;
91.8178807681821;-0.749603271484375;-0.0240325927734375;2.98999999245098;300;100 mA;
91.8278807681569;-0.74957275390625;-0.0240234375;2.99999999242573;301;100 mA;
91.8378807681316;-0.749664306640625;-0.024005126953125;3.00999999240048;302;100 mA;
91.8478807681064;-0.7496337890625;-0.0239959716796875;3.01999999237523;303;100 mA;
91.8578807680811;-0.749664306640625;-0.0239837646484375;3.02999999234999;304;100 mA;
91.8678807680559;-0.7496337890625;-0.0239776611328125;3.03999999232474;305;100 mA;
91.8778807680306;-0.7496337890625;-0.023968505859375;3.04999999229949;306;100 mA;
91.8878807680054;-0.7496337890625;-0.0239593505859375;3.05999999227424;307;100 mA;
91.8978807679802;-0.7496337890625;-0.0239501953125;3.069999992249;308;100 mA;
91.9078807679549;-0.749664306640625;-0.02393798828125;3.07999999222375;309;100 mA;
91.9178807679297;-0.7496337890625;-0.02393798828125;3.0899999921985;310;100 mA;
91.9278807679044;-0.749603271484375;-0.02392578125;3.09999999217325;311;100 mA;
91.9378807678792;-0.749603271484375;-0.02391357421875;3.109999992148;312;100 mA;
91.9478807678539;-0.749603271484375;-0.0239105224609375;3.11999999212276;313;100 mA;
91.9578807678287;-0.7496337890625;-0.0238983154296875;3.12999999209751;314;100 mA;
91.9678807678034;-0.749603271484375;-0.0238922119140625;3.13999999207226;315;100 mA;
91.9778807677782;-0.749603271484375;-0.023883056640625;3.14999999204701;316;100 mA;
91.9878807677529;-0.749603271484375;-0.023870849609375;3.15999999202177;317;100 mA;
91.9978807677277;-0.7496337890625;-0.02386474609375;3.16999999199652;318;100 mA;
92.0078807677024;-0.7496337890625;-0.0238494873046875;3.17999999197127;319;100 mA;
92.0178807676772;-0.74957275390625;-0.0238494873046875;3.18999999194602;320;100 mA;
92.0278807676519;-0.7496337890625;-0.0238372802734375;3.19999999192078;321;100 mA;
92.0378807676267;-0.749664306640625;-0.023828125;3.20999999189553;322;100 mA;
92.0478807676014;-0.749603271484375;-0.023822021484375;3.21999999187028;323;100 mA;
92.0578807675762;-0.749664306640625;-0.0238067626953125;3.22999999184503;324;100 mA;
92.0678807675509;-0.749603271484375;-0.023809814453125;3.23999999181979;325;100 mA;
92.0778807675257;-0.74969482421875;-0.0238067626953125;3.24999999179454;326;100 mA;
92.0878807675005;-0.7496337890625;-0.0237945556640625;3.25999999176929;327;100 mA;
92.0978807674752;-0.749603271484375;-0.0237884521484375;3.26999999174404;328;100 mA;
92.10788076745;-0.7496337890625;-0.023773193359375;3.2799999917188;329;100 mA;
92.1178807674247;-0.749603271484375;-0.023773193359375;3.28999999169355;330;100 mA;
92.1278807673995;-0.749603271484375;-0.023760986328125;3.2999999916683;331;100 mA;
92.1378807673742;-0.7496337890625;-0.023748779296875;3.30999999164305;332;100 mA;
92.147880767349;-0.749603271484375;-0.0237457275390625;3.31999999161781;333;100 mA;
92.1578807673237;-0.749603271484375;-0.02373046875;3.32999999159256;334;100 mA;
92.1678807672985;-0.749603271484375;-0.0237335205078125;3.33999999156731;335;100 mA;
92.1778807672732;-0.749603271484375;-0.0237213134765625;3.34999999154206;336;100 mA;
92.187880767248;-0.7496337890625;-0.023712158203125;3.35999999151682;337;100 mA;
92.1978807672227;-0.7496337890625;-0.023712158203125;3.36999999149157;338;100 mA;
92.2078807671975;-0.749603271484375;-0.0237060546875;3.37999999146632;339;100 mA;
92.2178807671722;-0.7496337890625;-0.0237091064453125;3.38999999144107;340;100 mA;
92.227880767147;-0.7496337890625;-0.0237060546875;3.39999999141583;341;100 mA;
92.2378807671217;-0.749664306640625;-0.023699951171875;3.40999999139058;342;100 mA;
92.2478807670965;-0.7496337890625;-0.023699951171875;3.41999999136533;343;100 mA;
92.2578807670712;-0.7496337890625;-0.0236968994140625;3.42999999134008;344;100 mA;
92.267880767046;-0.7496337890625;-0.023699951171875;3.43999999131483;345;100 mA;
92.2778807670207;-0.749603271484375;-0.0236968994140625;3.44999999128959;346;100 mA;
92.2878807669955;-0.7496337890625;-0.0236968994140625;3.45999999126434;347;100 mA;
92.2978807669703;-0.749664306640625;-0.02369384765625;3.46999999123909;348;100 mA;
92.307880766945;-0.7496337890625;-0.023687744140625;3.47999999121384;349;100 mA;
92.3178807669198;-0.749603271484375;-0.02369384765625;3.4899999911886;350;100 mA;
92.3278807668945;-0.749603271484375;-0.02369384765625;3.49999999116335;351;100 mA;
92.3378807668693;-0.749664306640625;-0.023687744140625;3.5099999911381;352;100 mA;
92.347880766844;-0.749664306640625;-0.0236907958984375;3.51999999111285;353;100 mA;
92.3578807668188;-0.7496337890625;-0.0236785888671875;3.52999999108761;354;100 mA;
92.3678807667935;-0.74969482421875;-0.0236846923828125;3.53999999106236;355;100 mA;
92.3778807667683;-0.749664306640625;-0.0236785888671875;3.54999999103711;356;100 mA;
92.387880766743;-0.7496337890625;-0.023675537109375;3.55999999101186;357;100 mA;
92.3978807667178;-0.749603271484375;-0.0236663818359375;3.56999999098662;358;100 mA;
92.4078807666925;-0.7496337890625;-0.023651123046875;3.57999999096137;359;100 mA;
92.4178807666673;-0.749664306640625;-0.02364501953125;3.58999999093612;360;100 mA;
92.427880766642;-0.749603271484375;-0.0236358642578125;3.59999999091087;361;100 mA;
92.4378807666168;-0.749664306640625;-0.0236175537109375;3.60999999088563;362;100 mA;
92.4478807665915;-0.7496337890625;-0.0236083984375;3.61999999086038;363;100 mA;
92.4578807665663;-0.749603271484375;-0.023583984375;3.62999999083513;364;100 mA;
92.467880766541;-0.7496337890625;-0.023577880859375;3.63999999080988;365;100 mA;
92.4778807665158;-0.749664306640625;-0.0235565185546875;3.64999999078464;366;100 mA;
92.4878807664905;-0.749603271484375;-0.023541259765625;3.65999999075939;367;100 mA;
92.4978807664653;-0.7496337890625;-0.0235260009765625;3.66999999073414;368;100 mA;
92.5078807664401;-0.749664306640625;-0.0235015869140625;3.67999999070889;369;100 mA;
92.5178807664148;-0.7496337890625;-0.023492431640625;3.68999999068365;370;100 mA;
92.5278807663896;-0.749603271484375;-0.0234649658203125;3.6999999906584;371;100 mA;
92.5378807663643;-0.74969482421875;-0.0234375;3.70999999063315;372;100 mA;
92.5478807663391;-0.749664306640625;-0.02342529296875;3.7199999906079;373;100 mA;
92.5578807663138;-0.749664306640625;-0.0233917236328125;3.72999999058266;374;100 mA;
92.5678807662886;-0.74957275390625;-0.02337646484375;3.73999999055741;375;100 mA;
92.5778807662633;-0.749725341796875;-0.0233489990234375;3.74999999053216;376;100 mA;
92.5878807662381;-0.749603271484375;-0.0233245849609375;3.75999999050691;377;100 mA;
92.5978807662128;-0.749664306640625;-0.02330322265625;3.76999999048167;378;100 mA;
92.6078807661876;-0.7496337890625;-0.0232757568359375;3.77999999045642;379;100 mA;
92.6178807661623;-0.7496337890625;-0.0232574462890625;3.78999999043117;380;100 mA;
92.6278807661371;-0.749664306640625;-0.0232269287109375;3.79999999040592;381;100 mA;
92.6378807661118;-0.74969482421875;-0.0232025146484375;3.80999999038067;382;100 mA;
92.6478807660866;-0.749603271484375;-0.02318115234375;3.81999999035543;383;100 mA;
92.6578807660613;-0.74957275390625;-0.02314453125;3.82999999033018;384;100 mA;
92.6678807660361;-0.749603271484375;-0.02313232421875;3.83999999030493;385;100 mA;
92.6778807660108;-0.7496337890625;-0.0230987548828125;3.84999999027968;386;100 mA;
92.6878807659856;-0.7496337890625;-0.0230682373046875;3.85999999025444;387;100 mA;
92.6978807659603;-0.7496337890625;-0.0230438232421875;3.86999999022919;388;100 mA;
92.7078807659351;-0.7496337890625;-0.02301025390625;3.87999999020394;389;100 mA;
92.7178807659099;-0.749664306640625;-0.022991943359375;3.88999999017869;390;100 mA;
92.7278807658846;-0.749664306640625;-0.02296142578125;3.89999999015345;391;100 mA;
92.7378807658594;-0.749664306640625;-0.0229278564453125;3.9099999901282;392;100 mA;
92.7478807658341;-0.749664306640625;-0.022906494140625;3.91999999010295;393;100 mA;
92.7578807658089;-0.749603271484375;-0.0228729248046875;3.9299999900777;394;100 mA;
92.7678807657836;-0.749664306640625;-0.022857666015625;3.93999999005246;395;100 mA;
92.7778807657584;-0.749603271484375;-0.0228240966796875;3.94999999002721;396;100 mA;
92.7878807657331;-0.749603271484375;-0.0227996826171875;3.95999999000196;397;100 mA;
92.7978807657079;-0.7496337890625;-0.0227752685546875;3.96999998997671;398;100 mA;
92.8078807656826;-0.749664306640625;-0.0227447509765625;3.97999998995147;399;100 mA;
92.8178807656574;-0.74969482421875;-0.0227294921875;3.98999998992622;400;100 mA;
92.8278807656321;-0.7496337890625;-0.0227020263671875;3.99999998990097;401;100 mA;
92.8378807656069;-0.7496337890625;-0.0226776123046875;4.00999998987572;402;100 mA;
92.8478807655816;-0.749664306640625;-0.02265625;4.01999998985048;403;100 mA;
92.8578807655564;-0.749603271484375;-0.022625732421875;4.02999998982523;404;100 mA;
92.8678807655311;-0.7496337890625;-0.0226104736328125;4.03999998979998;405;100 mA;
92.8778807655059;-0.7496337890625;-0.0225830078125;4.04999998977473;406;100 mA;
92.8878807654806;-0.74957275390625;-0.0225616455078125;4.05999998974949;407;100 mA;
92.8978807654554;-0.749603271484375;-0.022540283203125;4.06999998972424;408;100 mA;
92.9078807654301;-0.74969482421875;-0.022515869140625;4.07999998969899;409;100 mA;
92.9178807654049;-0.749664306640625;-0.0225006103515625;4.08999998967374;410;100 mA;
92.9278807653797;-0.7496337890625;-0.022479248046875;4.0999999896485;411;100 mA;
92.9378807653544;-0.7496337890625;-0.0224609375;4.10999998962325;412;100 mA;
92.9478807653292;-0.74969482421875;-0.0224456787109375;4.119999989598;413;100 mA;
92.9578807653039;-0.749664306640625;-0.0224273681640625;4.12999998957275;414;100 mA;
92.9678807652787;-0.74957275390625;-0.0224212646484375;4.1399999895475;415;100 mA;
92.9778807652534;-0.749603271484375;-0.022406005859375;4.14999998952226;416;100 mA;
92.9878807652282;-0.74969482421875;-0.0223907470703125;4.15999998949701;417;100 mA;
92.9978807652029;-0.749603271484375;-0.0223846435546875;4.16999998947176;418;100 mA;
93.0078807651777;-0.74957275390625;-0.0223663330078125;4.17999998944651;419;100 mA;
93.0178807651524;-0.7496337890625;-0.0223663330078125;4.18999998942127;420;100 mA;
93.0278807651272;-0.7496337890625;-0.022357177734375;4.19999998939602;421;100 mA;
93.0378807651019;-0.749603271484375;-0.0223480224609375;4.20999998937077;422;100 mA;
93.0478807650767;-0.7496337890625;-0.0223419189453125;4.21999998934552;423;100 mA;
93.0578807650514;-0.749603271484375;-0.022332763671875;4.22999998932028;424;100 mA;
93.0678807650262;-0.7496337890625;-0.022332763671875;4.23999998929503;425;100 mA;
93.0778807650009;-0.749603271484375;-0.022332763671875;4.24999998926978;426;100 mA;
93.0878807649757;-0.74957275390625;-0.0223297119140625;4.25999998924453;427;100 mA;
93.0978807649504;-0.749664306640625;-0.022332763671875;4.26999998921929;428;100 mA;
93.1078807649252;-0.749664306640625;-0.022320556640625;4.27999998919404;429;100 mA;
93.1178807649;-0.7496337890625;-0.02232666015625;4.28999998916879;430;100 mA;
93.1278807648747;-0.74969482421875;-0.022320556640625;4.29999998914354;431;100 mA;
93.1378807648495;-0.749603271484375;-0.022314453125;4.3099999891183;432;100 mA;
93.1478807648242;-0.74957275390625;-0.0223175048828125;4.31999998909305;433;100 mA;
93.157880764799;-0.749664306640625;-0.02230224609375;4.3299999890678;434;100 mA;
93.1678807647737;-0.749664306640625;-0.022308349609375;4.33999998904255;435;100 mA;
93.1778807647485;-0.749603271484375;-0.0223052978515625;4.34999998901731;436;100 mA;
93.1878807647232;-0.749664306640625;-0.0222930908203125;4.35999998899206;437;100 mA;
93.197880764698;-0.7496337890625;-0.022296142578125;4.36999998896681;438;100 mA;
93.2078807646727;-0.749603271484375;-0.022283935546875;4.37999998894156;439;100 mA;
93.2178807646475;-0.749603271484375;-0.0222869873046875;4.38999998891632;440;100 mA;
93.2278807646222;-0.74969482421875;-0.022283935546875;4.39999998889107;441;100 mA;
93.237880764597;-0.7496337890625;-0.022271728515625;4.40999998886582;442;100 mA;
93.2478807645717;-0.7496337890625;-0.022271728515625;4.41999998884057;443;100 mA;
93.2578807645465;-0.749664306640625;-0.02225341796875;4.42999998881533;444;100 mA;
93.2678807645212;-0.7496337890625;-0.0222564697265625;4.43999998879008;445;100 mA;
93.277880764496;-0.749603271484375;-0.0222442626953125;4.44999998876483;446;100 mA;
93.2878807644707;-0.749603271484375;-0.0222320556640625;4.45999998873958;447;100 mA;
93.2978807644455;-0.7496337890625;-0.0222259521484375;4.46999998871433;448;100 mA;
93.3078807644202;-0.7496337890625;-0.0222076416015625;4.47999998868909;449;100 mA;
93.317880764395;-0.749603271484375;-0.02220458984375;4.48999998866384;450;100 mA;
93.3278807643698;-0.749603271484375;-0.0221893310546875;4.49999998863859;451;100 mA;
93.3378807643445;-0.749664306640625;-0.0221710205078125;4.50999998861334;452;100 mA;
93.3478807643193;-0.749603271484375;-0.02216796875;4.5199999885881;453;100 mA;
93.357880764294;-0.749603271484375;-0.022149658203125;4.52999998856285;454;100 mA;
93.3678807642688;-0.749664306640625;-0.0221466064453125;4.5399999885376;455;100 mA;
93.3778807642435;-0.7496337890625;-0.022137451171875;4.54999998851235;456;100 mA;
93.3878807642183;-0.749664306640625;-0.0221282958984375;4.55999998848711;457;100 mA;
93.397880764193;-0.749664306640625;-0.022119140625;4.56999998846186;458;100 mA;
93.4078807641678;-0.749664306640625;-0.022100830078125;4.57999998843661;459;100 mA;
93.4178807641425;-0.749603271484375;-0.0220947265625;4.58999998841136;460;100 mA;
93.4278807641173;-0.74969482421875;-0.0220794677734375;4.59999998838612;461;100 mA;
93.437880764092;-0.749603271484375;-0.022064208984375;4.60999998836087;462;100 mA;
93.4478807640668;-0.74957275390625;-0.022052001953125;4.61999998833562;463;100 mA;
93.4578807640415;-0.74969482421875;-0.02203369140625;4.62999998831037;464;100 mA;
93.4678807640163;-0.7496337890625;-0.022027587890625;4.63999998828513;465;100 mA;
93.477880763991;-0.7496337890625;-0.02200927734375;4.64999998825988;466;100 mA;
93.4878807639658;-0.749664306640625;-0.0219879150390625;4.65999998823463;467;100 mA;
93.4978807639405;-0.7496337890625;-0.0219818115234375;4.66999998820938;468;100 mA;
93.5078807639153;-0.7496337890625;-0.0219635009765625;4.67999998818414;469;100 mA;
93.51788076389;-0.749603271484375;-0.02196044921875;4.68999998815889;470;100 mA;
93.5278807638648;-0.7496337890625;-0.0219451904296875;4.69999998813364;471;100 mA;
93.5378807638396;-0.7496337890625;-0.021929931640625;4.70999998810839;472;100 mA;
93.5478807638143;-0.7496337890625;-0.021917724609375;4.71999998808315;473;100 mA;
93.5578807637891;-0.74969482421875;-0.0218963623046875;4.7299999880579;474;100 mA;
93.5678807637638;-0.749603271484375;-0.02188720703125;4.73999998803265;475;100 mA;
93.5778807637386;-0.74969482421875;-0.0218719482421875;4.7499999880074;476;100 mA;
93.5878807637133;-0.749664306640625;-0.0218536376953125;4.75999998798216;477;100 mA;
93.5978807636881;-0.74969482421875;-0.02183837890625;4.76999998795691;478;100 mA;
93.6078807636628;-0.74957275390625;-0.02181396484375;4.77999998793166;479;100 mA;
93.6178807636376;-0.749664306640625;-0.0218017578125;4.78999998790641;480;100 mA;
93.6278807636123;-0.7496337890625;-0.02177734375;4.79999998788116;481;100 mA;
93.6378807635871;-0.749603271484375;-0.0217620849609375;4.80999998785592;482;100 mA;
93.6478807635618;-0.749664306640625;-0.0217498779296875;4.81999998783067;483;100 mA;
93.6578807635366;-0.749603271484375;-0.021728515625;4.82999998780542;484;100 mA;
93.6678807635113;-0.749664306640625;-0.0217193603515625;4.83999998778017;485;100 mA;
93.6778807634861;-0.7496337890625;-0.0217041015625;4.84999998775493;486;100 mA;
93.6878807634608;-0.7496337890625;-0.0216827392578125;4.85999998772968;487;100 mA;
93.6978807634356;-0.749664306640625;-0.0216705322265625;4.86999998770443;488;100 mA;
93.7078807634103;-0.7496337890625;-0.02164306640625;4.87999998767918;489;100 mA;
93.7178807633851;-0.749603271484375;-0.0216400146484375;4.88999998765394;490;100 mA;
93.7278807633598;-0.749664306640625;-0.0216156005859375;4.89999998762869;491;100 mA;
93.7378807633346;-0.749664306640625;-0.02159423828125;4.90999998760344;492;100 mA;
93.7478807633094;-0.749603271484375;-0.021575927734375;4.91999998757819;493;100 mA;
93.7578807632841;-0.74969482421875;-0.021551513671875;4.92999998755295;494;100 mA;
93.7678807632589;-0.749664306640625;-0.021539306640625;4.9399999875277;495;100 mA;
93.7778807632336;-0.7496337890625;-0.02152099609375;4.94999998750245;496;100 mA;
93.7878807632084;-0.7496337890625;-0.021502685546875;4.9599999874772;497;100 mA;
93.7978807631831;-0.749603271484375;-0.0214813232421875;4.96999998745196;498;100 mA;
93.8078807631579;-0.749603271484375;-0.0214599609375;4.97999998742671;499;100 mA;
93.8178807631326;-0.749664306640625;-0.0214508056640625;4.98999998740146;500;100 mA;
93.8278807631074;-0.7496337890625;-0.021435546875;4.99999998737621;501;100 mA;
93.8378807630821;-0.749664306640625;-0.021417236328125;5.00999998735097;502;100 mA;
93.8478807630569;-0.749603271484375;-0.0214080810546875;5.01999998732572;503;100 mA;
93.8578807630316;-0.74969482421875;-0.0213836669921875;5.02999998730047;504;100 mA;
93.8678807630064;-0.7496337890625;-0.02137451171875;5.03999998727522;505;100 mA;
93.8778807629811;-0.749664306640625;-0.02135009765625;5.04999998724998;506;100 mA;
93.8878807629559;-0.74969482421875;-0.021331787109375;5.05999998722473;507;100 mA;
93.8978807629306;-0.7496337890625;-0.0213134765625;5.06999998719948;508;100 mA;
93.9078807629054;-0.749603271484375;-0.0212921142578125;5.07999998717423;509;100 mA;
93.9178807628801;-0.7496337890625;-0.02127685546875;5.08999998714899;510;100 mA;
93.9278807628549;-0.749603271484375;-0.0212554931640625;5.09999998712374;511;100 mA;
93.9378807628296;-0.7496337890625;-0.0212371826171875;5.10999998709849;512;100 mA;
93.9478807628044;-0.749603271484375;-0.0212249755859375;5.11999998707324;513;100 mA;
93.9578807627792;-0.749603271484375;-0.02120361328125;5.129999987048;514;100 mA;
93.9678807627539;-0.7496337890625;-0.021197509765625;5.13999998702275;515;100 mA;
93.9778807627287;-0.749664306640625;-0.0211822509765625;5.1499999869975;516;100 mA;
93.9878807627034;-0.74969482421875;-0.0211700439453125;5.15999998697225;517;100 mA;
93.9978807626782;-0.749664306640625;-0.0211517333984375;5.169999986947;518;100 mA;
94.0078807626529;-0.749664306640625;-0.02113037109375;5.17999998692176;519;100 mA;
94.0178807626277;-0.7496337890625;-0.0211273193359375;5.18999998689651;520;100 mA;
94.0278807626024;-0.749664306640625;-0.0211029052734375;5.19999998687126;521;100 mA;
94.0378807625772;-0.7496337890625;-0.021087646484375;5.20999998684601;522;100 mA;
94.0478807625519;-0.74957275390625;-0.0210723876953125;5.21999998682077;523;100 mA;
94.0578807625267;-0.749603271484375;-0.021051025390625;5.22999998679552;524;100 mA;
94.0678807625014;-0.749603271484375;-0.0210418701171875;5.23999998677027;525;100 mA;
94.0778807624762;-0.74969482421875;-0.0210174560546875;5.24999998674502;526;100 mA;
94.0878807624509;-0.7496337890625;-0.0210052490234375;5.25999998671978;527;100 mA;
94.0978807624257;-0.749603271484375;-0.0209930419921875;5.26999998669453;528;100 mA;
94.1078807624004;-0.7496337890625;-0.0209747314453125;5.27999998666928;529;100 mA;
94.1178807623752;-0.7496337890625;-0.0209716796875;5.28999998664403;530;100 mA;
94.1278807623499;-0.749664306640625;-0.0209564208984375;5.29999998661879;531;100 mA;
94.1378807623247;-0.749603271484375;-0.0209503173828125;5.30999998659354;532;100 mA;
94.1478807622995;-0.749664306640625;-0.0209442138671875;5.31999998656829;533;100 mA;
94.1578807622742;-0.749664306640625;-0.0209259033203125;5.32999998654304;534;100 mA;
94.167880762249;-0.7496337890625;-0.0209259033203125;5.3399999865178;535;100 mA;
94.1778807622237;-0.7496337890625;-0.0209075927734375;5.34999998649255;536;100 mA;
94.1878807621985;-0.74957275390625;-0.0208953857421875;5.3599999864673;537;100 mA;
94.1978807621732;-0.749603271484375;-0.02088623046875;5.36999998644205;538;100 mA;
94.207880762148;-0.7496337890625;-0.0208648681640625;5.37999998641681;539;100 mA;
94.2178807621227;-0.749664306640625;-0.0208587646484375;5.38999998639156;540;100 mA;
94.2278807620975;-0.7496337890625;-0.020843505859375;5.39999998636631;541;100 mA;
94.2378807620722;-0.749664306640625;-0.0208343505859375;5.40999998634106;542;100 mA;
94.247880762047;-0.7496337890625;-0.0208282470703125;5.41999998631582;543;100 mA;
94.2578807620217;-0.749664306640625;-0.0208160400390625;5.42999998629057;544;100 mA;
94.2678807619965;-0.74969482421875;-0.020819091796875;5.43999998626532;545;100 mA;
94.2778807619712;-0.7496337890625;-0.0208160400390625;5.44999998624007;546;100 mA;
94.287880761946;-0.749603271484375;-0.02081298828125;5.45999998621483;547;100 mA;
94.2978807619207;-0.74969482421875;-0.0208160400390625;5.46999998618958;548;100 mA;
94.3078807618955;-0.749664306640625;-0.020806884765625;5.47999998616433;549;100 mA;
94.3178807618702;-0.749664306640625;-0.0208099365234375;5.48999998613908;550;100 mA;
94.327880761845;-0.74969482421875;-0.02080078125;5.49999998611383;551;100 mA;
94.3378807618197;-0.74969482421875;-0.0207916259765625;5.50999998608859;552;100 mA;
94.3478807617945;-0.749664306640625;-0.0207916259765625;5.51999998606334;553;100 mA;
94.3578807617693;-0.749603271484375;-0.020782470703125;5.52999998603809;554;100 mA;
94.367880761744;-0.749664306640625;-0.020782470703125;5.53999998601284;555;100 mA;
94.3778807617188;-0.749664306640625;-0.020782470703125;5.5499999859876;556;100 mA;
94.3878807616935;-0.749603271484375;-0.0207794189453125;5.55999998596235;557;100 mA;
94.3978807616683;-0.7496337890625;-0.0207855224609375;5.5699999859371;558;100 mA;
94.407880761643;-0.74969482421875;-0.0207855224609375;5.57999998591185;559;100 mA;
94.4178807616178;-0.749603271484375;-0.0208038330078125;5.58999998588661;560;100 mA;
94.4278807615925;-0.749664306640625;-0.02081298828125;5.59999998586136;561;100 mA;
94.4378807615673;-0.749664306640625;-0.0208221435546875;5.60999998583611;562;100 mA;
94.447880761542;-0.7496337890625;-0.0208404541015625;5.61999998581086;563;100 mA;
94.4578807615168;-0.7496337890625;-0.0208404541015625;5.62999998578562;564;100 mA;
94.4678807614915;-0.74969482421875;-0.0208587646484375;5.63999998576037;565;100 mA;
94.4778807614663;-0.7496337890625;-0.0208648681640625;5.64999998573512;566;100 mA;
94.487880761441;-0.7496337890625;-0.0208740234375;5.65999998570987;567;100 mA;
94.4978807614158;-0.749603271484375;-0.02088623046875;5.66999998568463;568;100 mA;
94.5078807613905;-0.749603271484375;-0.0208892822265625;5.67999998565938;569;100 mA;
94.5178807613653;-0.7496337890625;-0.02091064453125;5.68999998563413;570;100 mA;
94.52788076134;-0.749603271484375;-0.020916748046875;5.69999998560888;571;100 mA;
94.5378807613148;-0.749664306640625;-0.020928955078125;5.70999998558364;572;100 mA;
94.5478807612895;-0.74969482421875;-0.020947265625;5.71999998555839;573;100 mA;
94.5578807612643;-0.749664306640625;-0.02095947265625;5.72999998553314;574;100 mA;
94.5678807612391;-0.749603271484375;-0.0209869384765625;5.73999998550789;575;100 mA;
94.5778807612138;-0.7496337890625;-0.021002197265625;5.74999998548265;576;100 mA;
94.5878807611886;-0.749603271484375;-0.0210205078125;5.7599999854574;577;100 mA;
94.5978807611633;-0.74969482421875;-0.0210418701171875;5.76999998543215;578;100 mA;
94.6078807611381;-0.749664306640625;-0.0210540771484375;5.7799999854069;579;100 mA;
94.6178807611128;-0.7496337890625;-0.02108154296875;5.78999998538166;580;100 mA;
94.6278807610876;-0.7496337890625;-0.0210845947265625;5.79999998535641;581;100 mA;
94.6378807610623;-0.749603271484375;-0.021099853515625;5.80999998533116;582;100 mA;
94.6478807610371;-0.749603271484375;-0.021112060546875;5.81999998530591;583;100 mA;
94.6578807610118;-0.7496337890625;-0.0211212158203125;5.82999998528066;584;100 mA;
94.6678807609866;-0.749603271484375;-0.021142578125;5.83999998525542;585;100 mA;
94.6778807609613;-0.74969482421875;-0.0211517333984375;5.84999998523017;586;100 mA;
94.6878807609361;-0.7496337890625;-0.0211700439453125;5.85999998520492;587;100 mA;
94.6978807609108;-0.74969482421875;-0.021197509765625;5.86999998517967;588;100 mA;
94.7078807608856;-0.749664306640625;-0.0212066650390625;5.87999998515443;589;100 mA;
94.7178807608603;-0.7496337890625;-0.021240234375;5.88999998512918;590;100 mA;
94.7278807608351;-0.7496337890625;-0.0212554931640625;5.89999998510393;591;100 mA;
94.7378807608098;-0.749603271484375;-0.0212799072265625;5.90999998507868;592;100 mA;
94.7478807607846;-0.74969482421875;-0.02130126953125;5.91999998505344;593;100 mA;
94.7578807607593;-0.7496337890625;-0.0213134765625;5.92999998502819;594;100 mA;
94.7678807607341;-0.74969482421875;-0.021337890625;5.93999998500294;595;100 mA;
94.7778807607089;-0.749725341796875;-0.0213470458984375;5.94999998497769;596;100 mA;
94.7878807606836;-0.749603271484375;-0.0213592529296875;5.95999998495245;597;100 mA;
94.7978807606584;-0.749664306640625;-0.0213775634765625;5.9699999849272;598;100 mA;
94.8078807606331;-0.74969482421875;-0.0213836669921875;5.97999998490195;599;100 mA;
94.8178807606079;-0.749603271484375;-0.0214141845703125;5.9899999848767;600;100 mA;
94.8278807605826;-0.749664306640625;-0.0214202880859375;5.99999998485146;601;100 mA;
94.8378807605574;-0.7496337890625;-0.0214385986328125;6.00999998482621;602;100 mA;
94.8478807605321;-0.7496337890625;-0.021466064453125;6.01999998480096;603;100 mA;
94.8578807605069;-0.7496337890625;-0.0214752197265625;6.02999998477571;604;100 mA;
94.8678807604816;-0.749664306640625;-0.0215057373046875;6.03999998475047;605;100 mA;
94.8778807604564;-0.749664306640625;-0.0215240478515625;6.04999998472522;606;100 mA;
94.8878807604311;-0.7496337890625;-0.021539306640625;6.05999998469997;607;100 mA;
94.8978807604059;-0.7496337890625;-0.0215606689453125;6.06999998467472;608;100 mA;
94.9078807603806;-0.74969482421875;-0.0215667724609375;6.07999998464948;609;100 mA;
94.9178807603554;-0.7496337890625;-0.021588134765625;6.08999998462423;610;100 mA;
94.9278807603301;-0.749603271484375;-0.0215911865234375;6.09999998459898;611;100 mA;
94.9378807603049;-0.749603271484375;-0.021600341796875;6.10999998457373;612;100 mA;
94.9478807602796;-0.749603271484375;-0.0216033935546875;6.11999998454849;613;100 mA;
94.9578807602544;-0.74957275390625;-0.0216064453125;6.12999998452324;614;100 mA;
94.9678807602291;-0.74957275390625;-0.02161865234375;6.13999998449799;615;100 mA;
94.9778807602039;-0.7496337890625;-0.021630859375;6.14999998447274;616;100 mA;
94.9878807601787;-0.749603271484375;-0.0216400146484375;6.1599999844475;617;100 mA;
94.9978807601534;-0.749664306640625;-0.0216552734375;6.16999998442225;618;100 mA;
95.0078807601282;-0.7496337890625;-0.0216644287109375;6.179999984397;619;100 mA;
95.0178807601029;-0.749603271484375;-0.02169189453125;6.18999998437175;620;100 mA;
95.0278807600777;-0.749664306640625;-0.0217041015625;6.1999999843465;621;100 mA;
95.0378807600524;-0.749603271484375;-0.0217132568359375;6.20999998432126;622;100 mA;
95.0478807600272;-0.749664306640625;-0.021722412109375;6.21999998429601;623;100 mA;
95.0578807600019;-0.749664306640625;-0.021728515625;6.22999998427076;624;100 mA;
95.0678807599767;-0.749603271484375;-0.0217376708984375;6.23999998424551;625;100 mA;
95.0778807599514;-0.7496337890625;-0.02174072265625;6.24999998422027;626;100 mA;
95.0878807599262;-0.7496337890625;-0.02174072265625;6.25999998419502;627;100 mA;
95.0978807599009;-0.749664306640625;-0.021746826171875;6.26999998416977;628;100 mA;
95.1078807598757;-0.7496337890625;-0.02174072265625;6.27999998414452;629;100 mA;
95.1178807598504;-0.74969482421875;-0.0217529296875;6.28999998411928;630;100 mA;
95.1278807598252;-0.7496337890625;-0.0217498779296875;6.29999998409403;631;100 mA;
95.1378807597999;-0.74957275390625;-0.0217559814453125;6.30999998406878;632;100 mA;
95.1478807597747;-0.74969482421875;-0.021771240234375;6.31999998404353;633;100 mA;
95.1578807597494;-0.7496337890625;-0.021771240234375;6.32999998401829;634;100 mA;
95.1678807597242;-0.749603271484375;-0.0217803955078125;6.33999998399304;635;100 mA;
95.177880759699;-0.749603271484375;-0.0217864990234375;6.34999998396779;636;100 mA;
95.1878807596737;-0.7496337890625;-0.021783447265625;6.35999998394254;637;100 mA;
95.1978807596485;-0.749664306640625;-0.0217864990234375;6.3699999839173;638;100 mA;
95.2078807596232;-0.749603271484375;-0.0217742919921875;6.37999998389205;639;100 mA;
95.217880759598;-0.7496337890625;-0.02177734375;6.3899999838668;640;100 mA;
95.2278807595727;-0.7496337890625;-0.0217681884765625;6.39999998384155;641;100 mA;
95.2378807595475;-0.749664306640625;-0.021759033203125;6.40999998381631;642;100 mA;
95.2478807595222;-0.749603271484375;-0.0217529296875;6.41999998379106;643;100 mA;
95.257880759497;-0.7496337890625;-0.02174072265625;6.42999998376581;644;100 mA;
95.2678807594717;-0.74969482421875;-0.02174072265625;6.43999998374056;645;100 mA;
95.2778807594465;-0.749603271484375;-0.0217315673828125;6.44999998371532;646;100 mA;
95.2878807594212;-0.749603271484375;-0.021728515625;6.45999998369007;647;100 mA;
95.297880759396;-0.749603271484375;-0.021728515625;6.46999998366482;648;100 mA;
95.3078807593707;-0.749664306640625;-0.021722412109375;6.47999998363957;649;100 mA;
95.3178807593455;-0.749664306640625;-0.0217254638671875;6.48999998361433;650;100 mA;
95.3278807593202;-0.749603271484375;-0.02171630859375;6.49999998358908;651;100 mA;
95.337880759295;-0.749603271484375;-0.0217071533203125;6.50999998356383;652;100 mA;
95.3478807592697;-0.749664306640625;-0.0217041015625;6.51999998353858;653;100 mA;
95.3578807592445;-0.749664306640625;-0.0216888427734375;6.52999998351333;654;100 mA;
95.3678807592192;-0.74969482421875;-0.0216888427734375;6.53999998348809;655;100 mA;
95.377880759194;-0.7496337890625;-0.021673583984375;6.54999998346284;656;100 mA;
95.3878807591688;-0.7496337890625;-0.021661376953125;6.55999998343759;657;100 mA;
95.3978807591435;-0.749603271484375;-0.0216552734375;6.56999998341234;658;100 mA;
95.4078807591183;-0.74969482421875;-0.021636962890625;6.5799999833871;659;100 mA;
95.417880759093;-0.7496337890625;-0.0216400146484375;6.58999998336185;660;100 mA;
95.4278807590678;-0.7496337890625;-0.021624755859375;6.5999999833366;661;100 mA;
95.4378807590425;-0.7496337890625;-0.02161865234375;6.60999998331135;662;100 mA;
95.4478807590173;-0.749725341796875;-0.021612548828125;6.61999998328611;663;100 mA;
95.457880758992;-0.749664306640625;-0.0215972900390625;6.62999998326086;664;100 mA;
95.4678807589668;-0.749664306640625;-0.0215972900390625;6.63999998323561;665;100 mA;
95.4778807589415;-0.749664306640625;-0.0215789794921875;6.64999998321036;666;100 mA;
95.4878807589163;-0.749664306640625;-0.02156982421875;6.65999998318512;667;100 mA;
95.497880758891;-0.749664306640625;-0.0215576171875;6.66999998315987;668;100 mA;
95.5078807588658;-0.7496337890625;-0.02154541015625;6.67999998313462;669;100 mA;
95.5178807588405;-0.749664306640625;-0.0215362548828125;6.68999998310937;670;100 mA;
95.5278807588153;-0.749603271484375;-0.0215118408203125;6.69999998308413;671;100 mA;
95.53788075879;-0.74969482421875;-0.0214935302734375;6.70999998305888;672;100 mA;
95.5478807587648;-0.7496337890625;-0.0214813232421875;6.71999998303363;673;100 mA;
95.5578807587395;-0.7496337890625;-0.0214599609375;6.72999998300838;674;100 mA;
95.5678807587143;-0.749664306640625;-0.021453857421875;6.73999998298314;675;100 mA;
95.577880758689;-0.7496337890625;-0.0214324951171875;6.74999998295789;676;100 mA;
95.5878807586638;-0.7496337890625;-0.0214141845703125;6.75999998293264;677;100 mA;
95.5978807586386;-0.749603271484375;-0.0214019775390625;6.76999998290739;678;100 mA;
95.6078807586133;-0.7496337890625;-0.0213836669921875;6.77999998288215;679;100 mA;
95.6178807585881;-0.749603271484375;-0.0213714599609375;6.7899999828569;680;100 mA;
95.6278807585628;-0.7496337890625;-0.02135009765625;6.79999998283165;681;100 mA;
95.6378807585376;-0.749603271484375;-0.021331787109375;6.8099999828064;682;100 mA;
95.6478807585123;-0.7496337890625;-0.0213134765625;6.81999998278116;683;100 mA;
95.6578807584871;-0.7496337890625;-0.0212890625;6.82999998275591;684;100 mA;
95.6678807584618;-0.749603271484375;-0.0212799072265625;6.83999998273066;685;100 mA;
95.6778807584366;-0.7496337890625;-0.0212493896484375;6.84999998270541;686;100 mA;
95.6878807584113;-0.74957275390625;-0.0212310791015625;6.85999998268016;687;100 mA;
95.6978807583861;-0.7496337890625;-0.0212158203125;6.86999998265492;688;100 mA;
95.7078807583608;-0.74969482421875;-0.0211883544921875;6.87999998262967;689;100 mA;
95.7178807583356;-0.7496337890625;-0.02117919921875;6.88999998260442;690;100 mA;
95.7278807583103;-0.7496337890625;-0.0211517333984375;6.89999998257917;691;100 mA;
95.7378807582851;-0.749725341796875;-0.02113037109375;6.90999998255393;692;100 mA;
95.7478807582598;-0.749664306640625;-0.0211181640625;6.91999998252868;693;100 mA;
95.7578807582346;-0.7496337890625;-0.0210968017578125;6.92999998250343;694;100 mA;
95.7678807582093;-0.749664306640625;-0.02108154296875;6.93999998247818;695;100 mA;
95.7778807581841;-0.74969482421875;-0.021063232421875;6.94999998245294;696;100 mA;
95.7878807581588;-0.7496337890625;-0.021044921875;6.95999998242769;697;100 mA;
95.7978807581336;-0.7496337890625;-0.0210296630859375;6.96999998240244;698;100 mA;
95.8078807581084;-0.749603271484375;-0.0210052490234375;6.97999998237719;699;100 mA;
95.8178807580831;-0.749664306640625;-0.0209930419921875;6.98999998235195;700;100 mA;
95.8278807580579;-0.7496337890625;-0.0209716796875;6.9999999823267;701;100 mA;
95.8378807580326;-0.74969482421875;-0.0209503173828125;7.00999998230145;702;100 mA;
95.8478807580074;-0.74957275390625;-0.02093505859375;7.0199999822762;703;100 mA;
95.8578807579821;-0.749603271484375;-0.02091064453125;7.02999998225096;704;100 mA;
95.8678807579569;-0.749664306640625;-0.0209014892578125;7.03999998222571;705;100 mA;
95.8778807579316;-0.7496337890625;-0.0208831787109375;7.04999998220046;706;100 mA;
95.8878807579064;-0.7496337890625;-0.020867919921875;7.05999998217521;707;100 mA;
95.8978807578811;-0.749664306640625;-0.020855712890625;7.06999998214997;708;100 mA;
95.9078807578559;-0.749603271484375;-0.0208404541015625;7.07999998212472;709;100 mA;
95.9178807578306;-0.74957275390625;-0.0208343505859375;7.08999998209947;710;100 mA;
95.9278807578054;-0.749603271484375;-0.0208099365234375;7.09999998207422;711;100 mA;
95.9378807577801;-0.7496337890625;-0.0207977294921875;7.10999998204898;712;100 mA;
95.9478807577549;-0.7496337890625;-0.02078857421875;7.11999998202373;713;100 mA;
95.9578807577296;-0.749603271484375;-0.0207672119140625;7.12999998199848;714;100 mA;
95.9678807577044;-0.749603271484375;-0.020758056640625;7.13999998197323;715;100 mA;
95.9778807576791;-0.7496337890625;-0.0207427978515625;7.14999998194799;716;100 mA;
95.9878807576539;-0.749603271484375;-0.0207275390625;7.15999998192274;717;100 mA;
95.9978807576286;-0.749664306640625;-0.0207183837890625;7.16999998189749;718;100 mA;
96.0078807576034;-0.749664306640625;-0.020697021484375;7.17999998187224;719;100 mA;
96.0178807575782;-0.749603271484375;-0.020697021484375;7.189999981847;720;100 mA;
96.0278807575529;-0.7496337890625;-0.0206787109375;7.19999998182175;721;100 mA;
96.0378807575277;-0.749664306640625;-0.02066650390625;7.2099999817965;722;100 mA;
96.0478807575024;-0.749603271484375;-0.020660400390625;7.21999998177125;723;100 mA;
96.0578807574772;-0.749664306640625;-0.02064208984375;7.229999981746;724;100 mA;
96.0678807574519;-0.749664306640625;-0.02064208984375;7.23999998172076;725;100 mA;
96.0778807574267;-0.749664306640625;-0.0206298828125;7.24999998169551;726;100 mA;
96.0878807574014;-0.749664306640625;-0.02061767578125;7.25999998167026;727;100 mA;
96.0978807573762;-0.74969482421875;-0.020611572265625;7.26999998164501;728;100 mA;
96.1078807573509;-0.749664306640625;-0.020599365234375;7.27999998161977;729;100 mA;
96.1178807573257;-0.749664306640625;-0.020599365234375;7.28999998159452;730;100 mA;
96.1278807573004;-0.7496337890625;-0.0205780029296875;7.29999998156927;731;100 mA;
96.1378807572752;-0.749664306640625;-0.020574951171875;7.30999998154402;732;100 mA;
96.1478807572499;-0.749664306640625;-0.02056884765625;7.31999998151878;733;100 mA;
96.1578807572247;-0.749664306640625;-0.0205535888671875;7.32999998149353;734;100 mA;
96.1678807571994;-0.7496337890625;-0.0205535888671875;7.33999998146828;735;100 mA;
96.1778807571742;-0.7496337890625;-0.0205413818359375;7.34999998144303;736;100 mA;
96.1878807571489;-0.749664306640625;-0.0205322265625;7.35999998141779;737;100 mA;
96.1978807571237;-0.749664306640625;-0.0205291748046875;7.36999998139254;738;100 mA;
96.2078807570985;-0.7496337890625;-0.0205230712890625;7.37999998136729;739;100 mA;
96.2178807570732;-0.7496337890625;-0.020526123046875;7.38999998134204;740;100 mA;
96.227880757048;-0.749603271484375;-0.020513916015625;7.3999999813168;741;100 mA;
96.2378807570227;-0.7496337890625;-0.0205108642578125;7.40999998129155;742;100 mA;
96.2478807569975;-0.749603271484375;-0.0205078125;7.4199999812663;743;100 mA;
96.2578807569722;-0.749603271484375;-0.020501708984375;7.42999998124105;744;100 mA;
96.267880756947;-0.7496337890625;-0.0205047607421875;7.43999998121581;745;100 mA;
96.2778807569217;-0.7496337890625;-0.0204925537109375;7.44999998119056;746;100 mA;
96.2878807568965;-0.749664306640625;-0.020489501953125;7.45999998116531;747;100 mA;
96.2978807568712;-0.749603271484375;-0.020489501953125;7.46999998114006;748;100 mA;
96.307880756846;-0.749603271484375;-0.0204803466796875;7.47999998111482;749;100 mA;
96.3178807568207;-0.749603271484375;-0.0204864501953125;7.48999998108957;750;100 mA;
96.3278807567955;-0.7496337890625;-0.0204742431640625;7.49999998106432;751;100 mA;
96.3378807567702;-0.749603271484375;-0.020477294921875;7.50999998103907;752;100 mA;
96.347880756745;-0.74969482421875;-0.020477294921875;7.51999998101383;753;100 mA;
96.3578807567197;-0.749664306640625;-0.02047119140625;7.52999998098858;754;100 mA;
96.3678807566945;-0.74969482421875;-0.0204803466796875;7.53999998096333;755;100 mA;
96.3778807566692;-0.7496337890625;-0.020477294921875;7.54999998093808;756;100 mA;
96.387880756644;-0.7496337890625;-0.0204803466796875;7.55999998091283;757;100 mA;
96.3978807566187;-0.749664306640625;-0.0204925537109375;7.56999998088759;758;100 mA;
96.4078807565935;-0.74969482421875;-0.0204864501953125;7.57999998086234;759;100 mA;
96.4178807565683;-0.749664306640625;-0.0204986572265625;7.58999998083709;760;100 mA;
96.427880756543;-0.7496337890625;-0.02049560546875;7.59999998081184;761;100 mA;
96.4378807565178;-0.749664306640625;-0.0204986572265625;7.6099999807866;762;100 mA;
96.4478807564925;-0.7496337890625;-0.0205047607421875;7.61999998076135;763;100 mA;
96.4578807564673;-0.7496337890625;-0.0205047607421875;7.6299999807361;764;100 mA;
96.467880756442;-0.74969482421875;-0.020513916015625;7.63999998071085;765;100 mA;
96.4778807564168;-0.749664306640625;-0.020513916015625;7.64999998068561;766;100 mA;
96.4878807563915;-0.74969482421875;-0.020513916015625;7.65999998066036;767;100 mA;
96.4978807563663;-0.7496337890625;-0.0205230712890625;7.66999998063511;768;100 mA;
96.507880756341;-0.749664306640625;-0.0205230712890625;7.67999998060986;769;100 mA;
96.5178807563158;-0.74969482421875;-0.0205352783203125;7.68999998058462;770;100 mA;
96.5278807562905;-0.749664306640625;-0.0205352783203125;7.69999998055937;771;100 mA;
96.5378807562653;-0.74969482421875;-0.0205413818359375;7.70999998053412;772;100 mA;
96.54788075624;-0.7496337890625;-0.020550537109375;7.71999998050887;773;100 mA;
96.5578807562148;-0.74969482421875;-0.020550537109375;7.72999998048363;774;100 mA;
96.5678807561895;-0.74969482421875;-0.0205596923828125;7.73999998045838;775;100 mA;
96.5778807561643;-0.7496337890625;-0.0205596923828125;7.74999998043313;776;100 mA;
96.587880756139;-0.749664306640625;-0.0205596923828125;7.75999998040788;777;100 mA;
96.5978807561138;-0.749664306640625;-0.020562744140625;7.76999998038264;778;100 mA;
96.6078807560885;-0.7496337890625;-0.020562744140625;7.77999998035739;779;100 mA;
96.6178807560633;-0.7496337890625;-0.020574951171875;7.78999998033214;780;100 mA;
96.6278807560381;-0.74969482421875;-0.02056884765625;7.79999998030689;781;100 mA;
96.6378807560128;-0.7496337890625;-0.0205780029296875;7.80999998028165;782;100 mA;
96.6478807559876;-0.74969482421875;-0.0205841064453125;7.8199999802564;783;100 mA;
96.6578807559623;-0.749725341796875;-0.020587158203125;7.82999998023115;784;100 mA;
96.6678807559371;-0.749664306640625;-0.0205963134765625;7.8399999802059;785;100 mA;
96.6778807559118;-0.7496337890625;-0.020599365234375;7.84999998018066;786;100 mA;
96.6878807558866;-0.749603271484375;-0.02060546875;7.85999998015541;787;100 mA;
96.6978807558613;-0.749603271484375;-0.020611572265625;7.86999998013016;788;100 mA;
96.7078807558361;-0.7496337890625;-0.020611572265625;7.87999998010491;789;100 mA;
96.7178807558108;-0.749664306640625;-0.020623779296875;7.88999998007966;790;100 mA;
96.7278807557856;-0.749603271484375;-0.02061767578125;7.89999998005442;791;100 mA;
96.7378807557603;-0.74969482421875;-0.020623779296875;7.90999998002917;792;100 mA;
96.7478807557351;-0.74969482421875;-0.020623779296875;7.91999998000392;793;100 mA;
96.7578807557098;-0.7496337890625;-0.0206268310546875;7.92999997997867;794;100 mA;
96.7678807556846;-0.7496337890625;-0.0206329345703125;7.93999997995343;795;100 mA;
96.7778807556593;-0.7496337890625;-0.0206298828125;7.94999997992818;796;100 mA;
96.7878807556341;-0.749664306640625;-0.020635986328125;7.95999997990293;797;100 mA;
96.7978807556088;-0.749664306640625;-0.020635986328125;7.96999997987768;798;100 mA;
96.8078807555836;-0.7496337890625;-0.020635986328125;7.97999997985244;799;100 mA;
96.8178807555583;-0.74969482421875;-0.02064208984375;7.98999997982719;800;100 mA;
96.8278807555331;-0.749603271484375;-0.0206390380859375;7.99999997980194;801;100 mA;
96.8378807555079;-0.749603271484375;-0.0206451416015625;8.00999997977669;802;100 mA;
96.8478807554826;-0.749664306640625;-0.0206451416015625;8.01999997975145;803;100 mA;
96.8578807554574;-0.749664306640625;-0.02064208984375;8.0299999797262;804;100 mA;
96.8678807554321;-0.749664306640625;-0.0206451416015625;8.03999997970095;805;100 mA;
96.8778807554069;-0.749603271484375;-0.02064208984375;8.0499999796757;806;100 mA;
96.8878807553816;-0.74969482421875;-0.020635986328125;8.05999997965046;807;100 mA;
96.8978807553564;-0.74969482421875;-0.0206390380859375;8.06999997962521;808;100 mA;
96.9078807553311;-0.749603271484375;-0.0206268310546875;8.07999997959996;809;100 mA;
96.9178807553059;-0.749664306640625;-0.0206298828125;8.08999997957471;810;100 mA;
96.9278807552806;-0.749603271484375;-0.02061767578125;8.09999997954947;811;100 mA;
96.9378807552554;-0.7496337890625;-0.02061767578125;8.10999997952422;812;100 mA;
96.9478807552301;-0.7496337890625;-0.0206146240234375;8.11999997949897;813;100 mA;
96.9578807552049;-0.74957275390625;-0.0206085205078125;8.12999997947372;814;100 mA;
96.9678807551796;-0.749603271484375;-0.0206085205078125;8.13999997944848;815;100 mA;
96.9778807551544;-0.7496337890625;-0.020599365234375;8.14999997942323;816;100 mA;
96.9878807551291;-0.74969482421875;-0.02059326171875;8.15999997939798;817;100 mA;
96.9978807551039;-0.7496337890625;-0.020587158203125;8.16999997937273;818;100 mA;
97.0078807550786;-0.749603271484375;-0.020574951171875;8.17999997934749;819;100 mA;
97.0178807550534;-0.7496337890625;-0.020574951171875;8.18999997932224;820;100 mA;
97.0278807550281;-0.74969482421875;-0.0205535888671875;8.19999997929699;821;100 mA;
97.0378807550029;-0.749664306640625;-0.0205474853515625;8.20999997927174;822;100 mA;
97.0478807549777;-0.749664306640625;-0.0205413818359375;8.2199999792465;823;100 mA;
97.0578807549524;-0.74969482421875;-0.0205230712890625;8.22999997922125;824;100 mA;
97.0678807549272;-0.749664306640625;-0.02052001953125;8.239999979196;825;100 mA;
97.0778807549019;-0.74969482421875;-0.020501708984375;8.24999997917075;826;100 mA;
97.0878807548767;-0.74969482421875;-0.020489501953125;8.2599999791455;827;100 mA;
97.0978807548514;-0.7496337890625;-0.0204833984375;8.26999997912026;828;100 mA;
97.1078807548262;-0.749603271484375;-0.0204681396484375;8.27999997909501;829;100 mA;
97.1178807548009;-0.749664306640625;-0.0204620361328125;8.28999997906976;830;100 mA;
97.1278807547757;-0.749664306640625;-0.0204437255859375;8.29999997904451;831;100 mA;
97.1378807547504;-0.7496337890625;-0.0204345703125;8.30999997901927;832;100 mA;
97.1478807547252;-0.74969482421875;-0.0204254150390625;8.31999997899402;833;100 mA;
97.1578807546999;-0.749664306640625;-0.0204071044921875;8.32999997896877;834;100 mA;
97.1678807546747;-0.749664306640625;-0.0204010009765625;8.33999997894352;835;100 mA;
97.1778807546494;-0.749603271484375;-0.020379638671875;8.34999997891828;836;100 mA;
97.1878807546242;-0.749664306640625;-0.0203643798828125;8.35999997889303;837;100 mA;
97.1978807545989;-0.749603271484375;-0.0203582763671875;8.36999997886778;838;100 mA;
97.2078807545737;-0.74969482421875;-0.0203369140625;8.37999997884253;839;100 mA;
97.2178807545484;-0.7496337890625;-0.020330810546875;8.38999997881729;840;100 mA;
97.2278807545232;-0.7496337890625;-0.0203125;8.39999997879204;841;100 mA;
97.237880754498;-0.74969482421875;-0.02030029296875;8.40999997876679;842;100 mA;
97.2478807544727;-0.749664306640625;-0.0202911376953125;8.41999997874154;843;100 mA;
97.2578807544475;-0.749664306640625;-0.0202728271484375;8.4299999787163;844;100 mA;
97.2678807544222;-0.749603271484375;-0.0202667236328125;8.43999997869105;845;100 mA;
97.277880754397;-0.74969482421875;-0.020245361328125;8.4499999786658;846;100 mA;
97.2878807543717;-0.749664306640625;-0.0202362060546875;8.45999997864055;847;100 mA;
97.2978807543465;-0.749664306640625;-0.020220947265625;8.46999997861531;848;100 mA;
97.3078807543212;-0.749664306640625;-0.0202056884765625;8.47999997859006;849;100 mA;
97.317880754296;-0.7496337890625;-0.0201995849609375;8.48999997856481;850;100 mA;
97.3278807542707;-0.749664306640625;-0.02017822265625;8.49999997853956;851;100 mA;
97.3378807542455;-0.749664306640625;-0.020166015625;8.50999997851432;852;100 mA;
97.3478807542202;-0.7496337890625;-0.020159912109375;8.51999997848907;853;100 mA;
97.357880754195;-0.74957275390625;-0.0201416015625;8.52999997846382;854;100 mA;
97.3678807541697;-0.7496337890625;-0.0201385498046875;8.53999997843857;855;100 mA;
97.3778807541445;-0.749664306640625;-0.0201202392578125;8.54999997841333;856;100 mA;
97.3878807541192;-0.749664306640625;-0.020111083984375;8.55999997838808;857;100 mA;
97.397880754094;-0.749603271484375;-0.02010498046875;8.56999997836283;858;100 mA;
97.4078807540687;-0.7496337890625;-0.0200897216796875;8.57999997833758;859;100 mA;
97.4178807540435;-0.7496337890625;-0.0200897216796875;8.58999997831233;860;100 mA;
97.4278807540182;-0.749664306640625;-0.0200714111328125;8.59999997828709;861;100 mA;
97.437880753993;-0.749603271484375;-0.020062255859375;8.60999997826184;862;100 mA;
97.4478807539678;-0.749603271484375;-0.02005615234375;8.61999997823659;863;100 mA;
97.4578807539425;-0.7496337890625;-0.0200469970703125;8.62999997821134;864;100 mA;
97.4678807539173;-0.7496337890625;-0.020050048828125;8.6399999781861;865;100 mA;
97.477880753892;-0.749664306640625;-0.02003173828125;8.64999997816085;866;100 mA;
97.4878807538668;-0.749603271484375;-0.0200286865234375;8.6599999781356;867;100 mA;
97.4978807538415;-0.7496337890625;-0.0200225830078125;8.66999997811035;868;100 mA;
97.5078807538163;-0.749664306640625;-0.020013427734375;8.67999997808511;869;100 mA;
97.517880753791;-0.749664306640625;-0.0200164794921875;8.68999997805986;870;100 mA;
97.5278807537658;-0.749664306640625;-0.020001220703125;8.69999997803461;871;100 mA;
97.5378807537405;-0.749603271484375;-0.020001220703125;8.70999997800936;872;100 mA;
97.5478807537153;-0.7496337890625;-0.0199981689453125;8.71999997798412;873;100 mA;
97.55788075369;-0.7496337890625;-0.0199859619140625;8.72999997795887;874;100 mA;
97.5678807536648;-0.74957275390625;-0.019989013671875;8.73999997793362;875;100 mA;
97.5778807536395;-0.749664306640625;-0.0199737548828125;8.74999997790837;876;100 mA;
97.5878807536143;-0.749603271484375;-0.019970703125;8.75999997788313;877;100 mA;
97.597880753589;-0.7496337890625;-0.019964599609375;8.76999997785788;878;100 mA;
97.6078807535638;-0.7496337890625;-0.0199493408203125;8.77999997783263;879;100 mA;
97.6178807535385;-0.749664306640625;-0.0199493408203125;8.78999997780738;880;100 mA;
97.6278807535133;-0.749603271484375;-0.0199371337890625;8.79999997778214;881;100 mA;
97.637880753488;-0.749603271484375;-0.0199310302734375;8.80999997775689;882;100 mA;
97.6478807534628;-0.7496337890625;-0.0199310302734375;8.81999997773164;883;100 mA;
97.6578807534376;-0.74957275390625;-0.0199188232421875;8.82999997770639;884;100 mA;
97.6678807534123;-0.749603271484375;-0.019921875;8.83999997768115;885;100 mA;
97.6778807533871;-0.74957275390625;-0.0199066162109375;8.8499999776559;886;100 mA;
97.6878807533618;-0.74957275390625;-0.019903564453125;8.85999997763065;887;100 mA;
97.6978807533366;-0.749664306640625;-0.0198974609375;8.8699999776054;888;100 mA;
97.7078807533113;-0.749664306640625;-0.01988525390625;8.87999997758016;889;100 mA;
97.7178807532861;-0.749664306640625;-0.01988525390625;8.88999997755491;890;100 mA;
97.7278807532608;-0.7496337890625;-0.0198699951171875;8.89999997752966;891;100 mA;
97.7378807532356;-0.749664306640625;-0.0198638916015625;8.90999997750441;892;100 mA;
97.7478807532103;-0.749664306640625;-0.01986083984375;8.91999997747916;893;100 mA;
97.7578807531851;-0.7496337890625;-0.0198486328125;8.92999997745392;894;100 mA;
97.7678807531598;-0.74957275390625;-0.0198455810546875;8.93999997742867;895;100 mA;
97.7778807531346;-0.749603271484375;-0.0198333740234375;8.94999997740342;896;100 mA;
97.7878807531093;-0.74969482421875;-0.019830322265625;8.95999997737817;897;100 mA;
97.7978807530841;-0.749603271484375;-0.0198272705078125;8.96999997735293;898;100 mA;
97.8078807530588;-0.749664306640625;-0.019818115234375;8.97999997732768;899;100 mA;
97.8178807530336;-0.74957275390625;-0.01982421875;8.98999997730243;900;100 mA;
97.8278807530083;-0.749603271484375;-0.019805908203125;8.99999997727718;901;100 mA;
97.8378807529831;-0.749664306640625;-0.0198028564453125;9.00999997725194;902;100 mA;
97.8478807529578;-0.749664306640625;-0.0197967529296875;9.01999997722669;903;100 mA;
97.8578807529326;-0.749664306640625;-0.01978759765625;9.02999997720144;904;100 mA;
97.8678807529074;-0.74969482421875;-0.0197784423828125;9.03999997717619;905;100 mA;
97.8778807528821;-0.7496337890625;-0.0197662353515625;9.04999997715095;906;100 mA;
97.8878807528569;-0.74969482421875;-0.0197601318359375;9.0599999771257;907;100 mA;
97.8978807528316;-0.749603271484375;-0.0197509765625;9.06999997710045;908;100 mA;
97.9078807528064;-0.7496337890625;-0.019744873046875;9.0799999770752;909;100 mA;
97.9178807527811;-0.749664306640625;-0.0197418212890625;9.08999997704996;910;100 mA;
97.9278807527559;-0.749664306640625;-0.0197265625;9.09999997702471;911;100 mA;
97.9378807527306;-0.749664306640625;-0.0197265625;9.10999997699946;912;100 mA;
97.9478807527054;-0.749664306640625;-0.0197174072265625;9.11999997697421;913;100 mA;
97.9578807526801;-0.749603271484375;-0.019708251953125;9.12999997694897;914;100 mA;
97.9678807526549;-0.7496337890625;-0.0197052001953125;9.13999997692372;915;100 mA;
97.9778807526296;-0.7496337890625;-0.0196929931640625;9.14999997689847;916;100 mA;
97.9878807526044;-0.749664306640625;-0.0196868896484375;9.15999997687322;917;100 mA;
97.9978807525791;-0.749603271484375;-0.019677734375;9.16999997684798;918;100 mA;
98.0078807525539;-0.749664306640625;-0.0196685791015625;9.17999997682273;919;100 mA;
98.0178807525286;-0.7496337890625;-0.0196685791015625;9.18999997679748;920;100 mA;
98.0278807525034;-0.74969482421875;-0.019647216796875;9.19999997677223;921;100 mA;
98.0378807524781;-0.74969482421875;-0.01964111328125;9.20999997674699;922;100 mA;
98.0478807524529;-0.749664306640625;-0.0196380615234375;9.21999997672174;923;100 mA;
98.0578807524276;-0.7496337890625;-0.0196197509765625;9.22999997669649;924;100 mA;
98.0678807524024;-0.749603271484375;-0.019622802734375;9.23999997667124;925;100 mA;
98.0778807523772;-0.749664306640625;-0.0196044921875;9.249999976646;926;100 mA;
98.0878807523519;-0.749603271484375;-0.019598388671875;9.25999997662075;927;100 mA;
98.0978807523267;-0.7496337890625;-0.01959228515625;9.2699999765955;928;100 mA;
98.1078807523014;-0.749664306640625;-0.0195831298828125;9.27999997657025;929;100 mA;
98.1178807522762;-0.74969482421875;-0.019580078125;9.289999976545;930;100 mA;
98.1278807522509;-0.749603271484375;-0.019561767578125;9.29999997651976;931;100 mA;
98.1378807522257;-0.74969482421875;-0.0195587158203125;9.30999997649451;932;100 mA;
98.1478807522004;-0.7496337890625;-0.019549560546875;9.31999997646926;933;100 mA;
98.1578807521752;-0.749664306640625;-0.019537353515625;9.32999997644401;934;100 mA;
98.1678807521499;-0.7496337890625;-0.0195343017578125;9.33999997641877;935;100 mA;
98.1778807521247;-0.7496337890625;-0.019512939453125;9.34999997639352;936;100 mA;
98.1878807520994;-0.749664306640625;-0.0195037841796875;9.35999997636827;937;100 mA;
98.1978807520742;-0.749664306640625;-0.019500732421875;9.36999997634302;938;100 mA;
98.2078807520489;-0.749664306640625;-0.019482421875;9.37999997631778;939;100 mA;
98.2178807520237;-0.749603271484375;-0.0194854736328125;9.38999997629253;940;100 mA;
98.2278807519984;-0.74957275390625;-0.019464111328125;9.39999997626728;941;100 mA;
98.2378807519732;-0.7496337890625;-0.019464111328125;9.40999997624203;942;100 mA;
98.2478807519479;-0.749664306640625;-0.0194549560546875;9.41999997621679;943;100 mA;
98.2578807519227;-0.74957275390625;-0.0194427490234375;9.42999997619154;944;100 mA;
98.2678807518975;-0.7496337890625;-0.0194427490234375;9.43999997616629;945;100 mA;
98.2778807518722;-0.7496337890625;-0.0194244384765625;9.44999997614104;946;100 mA;
98.287880751847;-0.749603271484375;-0.0194183349609375;9.4599999761158;947;100 mA;
98.2978807518217;-0.7496337890625;-0.0194122314453125;9.46999997609055;948;100 mA;
98.3078807517965;-0.749664306640625;-0.0194000244140625;9.4799999760653;949;100 mA;
98.3178807517712;-0.749603271484375;-0.019390869140625;9.48999997604005;950;100 mA;
98.327880751746;-0.749664306640625;-0.01937255859375;9.49999997601481;951;100 mA;
98.3378807517207;-0.7496337890625;-0.019366455078125;9.50999997598956;952;100 mA;
98.3478807516955;-0.74969482421875;-0.019354248046875;9.51999997596431;953;100 mA;
98.3578807516702;-0.7496337890625;-0.0193450927734375;9.52999997593906;954;100 mA;
98.367880751645;-0.749603271484375;-0.019342041015625;9.53999997591382;955;100 mA;
98.3778807516197;-0.7496337890625;-0.01932373046875;9.54999997588857;956;100 mA;
98.3878807515945;-0.74969482421875;-0.0193206787109375;9.55999997586332;957;100 mA;
98.3978807515692;-0.74969482421875;-0.0193115234375;9.56999997583807;958;100 mA;
98.407880751544;-0.749664306640625;-0.0193023681640625;9.57999997581283;959;100 mA;
98.4178807515187;-0.749603271484375;-0.0193023681640625;9.58999997578758;960;100 mA;
98.4278807514935;-0.749603271484375;-0.019287109375;9.59999997576233;961;100 mA;
98.4378807514682;-0.749725341796875;-0.019281005859375;9.60999997573708;962;100 mA;
98.447880751443;-0.749664306640625;-0.01927490234375;9.61999997571183;963;100 mA;
98.4578807514177;-0.749664306640625;-0.0192657470703125;9.62999997568659;964;100 mA;
98.4678807513925;-0.7496337890625;-0.0192626953125;9.63999997566134;965;100 mA;
98.4778807513673;-0.749664306640625;-0.019244384765625;9.64999997563609;966;100 mA;
98.487880751342;-0.7496337890625;-0.0192352294921875;9.65999997561084;967;100 mA;
98.4978807513168;-0.749664306640625;-0.019232177734375;9.6699999755856;968;100 mA;
98.5078807512915;-0.7496337890625;-0.0192169189453125;9.67999997556035;969;100 mA;
98.5178807512663;-0.7496337890625;-0.0192169189453125;9.6899999755351;970;100 mA;
98.527880751241;-0.749664306640625;-0.01920166015625;9.69999997550985;971;100 mA;
98.5378807512158;-0.7496337890625;-0.01920166015625;9.70999997548461;972;100 mA;
98.5478807511905;-0.749603271484375;-0.019195556640625;9.71999997545936;973;100 mA;
98.5578807511653;-0.749664306640625;-0.019189453125;9.72999997543411;974;100 mA;
98.56788075114;-0.7496337890625;-0.019189453125;9.73999997540886;975;100 mA;
98.5778807511148;-0.749664306640625;-0.0191802978515625;9.74999997538362;976;100 mA;
98.5878807510895;-0.749664306640625;-0.01917724609375;9.75999997535837;977;100 mA;
98.5978807510643;-0.7496337890625;-0.019171142578125;9.76999997533312;978;100 mA;
98.607880751039;-0.749603271484375;-0.0191619873046875;9.77999997530787;979;100 mA;
98.6178807510138;-0.749603271484375;-0.0191619873046875;9.78999997528263;980;100 mA;
98.6278807509885;-0.749664306640625;-0.0191436767578125;9.79999997525738;981;100 mA;
98.6378807509633;-0.749603271484375;-0.019140625;9.80999997523213;982;100 mA;
98.647880750938;-0.7496337890625;-0.019134521484375;9.81999997520688;983;100 mA;
98.6578807509128;-0.749664306640625;-0.0191253662109375;9.82999997518164;984;100 mA;
98.6678807508875;-0.749603271484375;-0.01912841796875;9.83999997515639;985;100 mA;
98.6778807508623;-0.7496337890625;-0.0191162109375;9.84999997513114;986;100 mA;
98.6878807508371;-0.749664306640625;-0.0191162109375;9.85999997510589;987;100 mA;
98.6978807508118;-0.749664306640625;-0.0191162109375;9.86999997508065;988;100 mA;
98.7078807507866;-0.749664306640625;-0.019110107421875;9.8799999750554;989;100 mA;
98.7178807507613;-0.749603271484375;-0.0191131591796875;9.88999997503015;990;100 mA;
98.7278807507361;-0.74969482421875;-0.0191009521484375;9.8999999750049;991;100 mA;
98.7378807507108;-0.749664306640625;-0.01910400390625;9.90999997497966;992;100 mA;
98.7478807506856;-0.749603271484375;-0.0191009521484375;9.91999997495441;993;100 mA;
98.7578807506603;-0.749603271484375;-0.0190887451171875;9.92999997492916;994;100 mA;
98.7678807506351;-0.749664306640625;-0.0190887451171875;9.93999997490391;995;100 mA;
98.7778807506098;-0.7496337890625;-0.0190765380859375;9.94999997487866;996;100 mA;
98.7878807505846;-0.749664306640625;-0.0190765380859375;9.95999997485342;997;100 mA;
98.7978807505593;-0.7496337890625;-0.019073486328125;9.96999997482817;998;100 mA;
98.8078807505341;-0.7496337890625;-0.019061279296875;9.97999997480292;999;100 mA;
98.8178807505088;-0.7496337890625;-0.0190643310546875;9.98999997477767;1000;100 mA;
