Time (s);WE(1).Potential (V);WE(1).Current (A);Corrected time (s);Index;Current range;Overload
18.0535079544193;-0.7001953125;-0.518646240234375;0;1;100 mA;Current overload
18.063507954394;-0.699432373046875;-0.356353759765625;0.00999999997475243;2;100 mA;
18.0735079543688;-0.69940185546875;-0.284515380859375;0.0199999999495049;3;100 mA;
18.0835079543435;-0.69952392578125;-0.24310302734375;0.0299999999242573;4;100 mA;
18.0935079543183;-0.699462890625;-0.2154541015625;0.0399999998990097;5;100 mA;
18.103507954293;-0.699493408203125;-0.1953125;0.0499999998737621;6;100 mA;
18.1135079542678;-0.6995849609375;-0.17974853515625;0.0599999998485146;7;100 mA;
18.1235079542425;-0.699615478515625;-0.167327880859375;0.069999999823267;8;100 mA;
18.1335079542173;-0.69964599609375;-0.1571044921875;0.0799999997980194;9;100 mA;
18.143507954192;-0.6995849609375;-0.148468017578125;0.0899999997727718;10;100 mA;
18.1535079541668;-0.699615478515625;-0.14105224609375;0.0999999997475243;11;100 mA;
18.1635079541416;-0.69964599609375;-0.134613037109375;0.109999999722277;12;100 mA;
18.1735079541163;-0.699676513671875;-0.12896728515625;0.119999999697029;13;100 mA;
18.1835079540911;-0.69964599609375;-0.123931884765625;0.129999999671782;14;100 mA;
18.1935079540658;-0.69964599609375;-0.119384765625;0.139999999646534;15;100 mA;
18.2035079540406;-0.699676513671875;-0.115325927734375;0.149999999621286;16;100 mA;
18.2135079540153;-0.69970703125;-0.111572265625;0.159999999596039;17;100 mA;
18.2235079539901;-0.699615478515625;-0.10821533203125;0.169999999570791;18;100 mA;
18.2335079539648;-0.699737548828125;-0.105072021484375;0.179999999545544;19;100 mA;
18.2435079539396;-0.69970703125;-0.1021728515625;0.189999999520296;20;100 mA;
18.2535079539143;-0.699676513671875;-0.099517822265625;0.199999999495049;21;100 mA;
18.2635079538891;-0.699676513671875;-0.097015380859375;0.209999999469801;22;100 mA;
18.2735079538638;-0.699676513671875;-0.094696044921875;0.219999999444553;23;100 mA;
18.2835079538386;-0.699676513671875;-0.092529296875;0.229999999419306;24;100 mA;
18.2935079538133;-0.69970703125;-0.090484619140625;0.239999999394058;25;100 mA;
18.3035079537881;-0.699676513671875;-0.088531494140625;0.249999999368811;26;100 mA;
18.3135079537628;-0.69976806640625;-0.08673095703125;0.259999999343563;27;100 mA;
18.3235079537376;-0.69970703125;-0.08502197265625;0.269999999318316;28;100 mA;
18.3335079537123;-0.699676513671875;-0.083404541015625;0.279999999293068;29;100 mA;
18.3435079536871;-0.699676513671875;-0.08184814453125;0.28999999926782;30;100 mA;
18.3535079536618;-0.69970703125;-0.08038330078125;0.299999999242573;31;100 mA;
18.3635079536366;-0.69970703125;-0.0789794921875;0.309999999217325;32;100 mA;
18.3735079536114;-0.69970703125;-0.077667236328125;0.319999999192078;33;100 mA;
18.3835079535861;-0.699737548828125;-0.076416015625;0.32999999916683;34;100 mA;
18.3935079535609;-0.699737548828125;-0.0751953125;0.339999999141583;35;100 mA;
18.4035079535356;-0.699676513671875;-0.07403564453125;0.349999999116335;36;100 mA;
18.4135079535104;-0.69970703125;-0.072906494140625;0.359999999091087;37;100 mA;
18.4235079534851;-0.699676513671875;-0.071868896484375;0.36999999906584;38;100 mA;
18.4335079534599;-0.699737548828125;-0.070831298828125;0.379999999040592;39;100 mA;
18.4435079534346;-0.699676513671875;-0.069854736328125;0.389999999015345;40;100 mA;
18.4535079534094;-0.69970703125;-0.06890869140625;0.399999998990097;41;100 mA;
18.4635079533841;-0.69970703125;-0.0679931640625;0.40999999896485;42;100 mA;
18.4735079533589;-0.69970703125;-0.067108154296875;0.419999998939602;43;100 mA;
18.4835079533336;-0.699737548828125;-0.0662841796875;0.429999998914354;44;100 mA;
18.4935079533084;-0.69976806640625;-0.065460205078125;0.439999998889107;45;100 mA;
18.5035079532831;-0.699737548828125;-0.064666748046875;0.449999998863859;46;100 mA;
18.5135079532579;-0.69970703125;-0.06390380859375;0.459999998838612;47;100 mA;
18.5235079532326;-0.69976806640625;-0.06317138671875;0.469999998813364;48;100 mA;
18.5335079532074;-0.699737548828125;-0.062469482421875;0.479999998788116;49;100 mA;
18.5435079531821;-0.699676513671875;-0.061767578125;0.489999998762869;50;100 mA;
18.5535079531569;-0.699798583984375;-0.06109619140625;0.499999998737621;51;100 mA;
18.5635079531316;-0.699737548828125;-0.0604248046875;0.509999998712374;52;100 mA;
18.5735079531064;-0.699737548828125;-0.059814453125;0.519999998687126;53;100 mA;
18.5835079530812;-0.69970703125;-0.059173583984375;0.529999998661879;54;100 mA;
18.5935079530559;-0.699737548828125;-0.05859375;0.539999998636631;55;100 mA;
18.6035079530307;-0.699737548828125;-0.058013916015625;0.549999998611383;56;100 mA;
18.6135079530054;-0.699737548828125;-0.05743408203125;0.559999998586136;57;100 mA;
18.6235079529802;-0.69976806640625;-0.056884765625;0.569999998560888;58;100 mA;
18.6335079529549;-0.699737548828125;-0.056365966796875;0.579999998535641;59;100 mA;
18.6435079529297;-0.699737548828125;-0.055816650390625;0.589999998510393;60;100 mA;
18.6535079529044;-0.699737548828125;-0.055328369140625;0.599999998485146;61;100 mA;
18.6635079528792;-0.69970703125;-0.054840087890625;0.609999998459898;62;100 mA;
18.6735079528539;-0.69970703125;-0.054351806640625;0.61999999843465;63;100 mA;
18.6835079528287;-0.699737548828125;-0.05389404296875;0.629999998409403;64;100 mA;
18.6935079528034;-0.699798583984375;-0.053436279296875;0.639999998384155;65;100 mA;
18.7035079527782;-0.69970703125;-0.052978515625;0.649999998358908;66;100 mA;
18.7135079527529;-0.699737548828125;-0.05255126953125;0.65999999833366;67;100 mA;
18.7235079527277;-0.699737548828125;-0.0521240234375;0.669999998308413;68;100 mA;
18.7335079527024;-0.69976806640625;-0.05169677734375;0.679999998283165;69;100 mA;
18.7435079526772;-0.69976806640625;-0.051300048828125;0.689999998257917;70;100 mA;
18.7535079526519;-0.699737548828125;-0.0509033203125;0.69999999823267;71;100 mA;
18.7635079526267;-0.699737548828125;-0.050506591796875;0.709999998207422;72;100 mA;
18.7735079526014;-0.69970703125;-0.050140380859375;0.719999998182175;73;100 mA;
18.7835079525762;-0.69970703125;-0.049749755859375;0.729999998156927;74;100 mA;
18.793507952551;-0.69976806640625;-0.0493865966796875;0.73999999813168;75;100 mA;
18.8035079525257;-0.699737548828125;-0.0490386962890625;0.749999998106432;76;100 mA;
18.8135079525005;-0.69976806640625;-0.0486846923828125;0.759999998081184;77;100 mA;
18.8235079524752;-0.699737548828125;-0.04835205078125;0.769999998055937;78;100 mA;
18.83350795245;-0.699737548828125;-0.0480133056640625;0.779999998030689;79;100 mA;
18.8435079524247;-0.69970703125;-0.0476837158203125;0.789999998005442;80;100 mA;
18.8535079523995;-0.699737548828125;-0.0473724365234375;0.799999997980194;81;100 mA;
18.8635079523742;-0.699737548828125;-0.0470489501953125;0.809999997954947;82;100 mA;
18.873507952349;-0.699737548828125;-0.0467498779296875;0.819999997929699;83;100 mA;
18.8835079523237;-0.69970703125;-0.046441650390625;0.829999997904451;84;100 mA;
18.8935079522985;-0.69976806640625;-0.0461395263671875;0.839999997879204;85;100 mA;
18.9035079522732;-0.69976806640625;-0.0458526611328125;0.849999997853956;86;100 mA;
18.913507952248;-0.69970703125;-0.0455596923828125;0.859999997828709;87;100 mA;
18.9235079522227;-0.69976806640625;-0.0452911376953125;0.869999997803461;88;100 mA;
18.9335079521975;-0.69976806640625;-0.0450164794921875;0.879999997778214;89;100 mA;
18.9435079521722;-0.69976806640625;-0.0447357177734375;0.889999997752966;90;100 mA;
18.953507952147;-0.699737548828125;-0.044476318359375;0.899999997727718;91;100 mA;
18.9635079521217;-0.69976806640625;-0.044207763671875;0.909999997702471;92;100 mA;
18.9735079520965;-0.69976806640625;-0.04395751953125;0.919999997677223;93;100 mA;
18.9835079520712;-0.69976806640625;-0.0437042236328125;0.929999997651976;94;100 mA;
18.993507952046;-0.69970703125;-0.043450927734375;0.939999997626728;95;100 mA;
19.0035079520208;-0.69976806640625;-0.043206787109375;0.949999997601481;96;100 mA;
19.0135079519955;-0.69970703125;-0.04295654296875;0.959999997576233;97;100 mA;
19.0235079519703;-0.699737548828125;-0.042730712890625;0.969999997550985;98;100 mA;
19.033507951945;-0.69976806640625;-0.04249267578125;0.979999997525738;99;100 mA;
19.0435079519198;-0.69970703125;-0.0422607421875;0.98999999750049;100;100 mA;
19.0535079518945;-0.699737548828125;-0.0420379638671875;0.999999997475243;101;100 mA;
19.0635079518693;-0.699737548828125;-0.04180908203125;1.00999999745;102;100 mA;
19.073507951844;-0.699737548828125;-0.0415985107421875;1.01999999742475;103;100 mA;
19.0835079518188;-0.6998291015625;-0.0413848876953125;1.0299999973995;104;100 mA;
19.0935079517935;-0.69970703125;-0.0411651611328125;1.03999999737425;105;100 mA;
19.1035079517683;-0.69976806640625;-0.0409576416015625;1.049999997349;106;100 mA;
19.113507951743;-0.69976806640625;-0.0407470703125;1.05999999732376;107;100 mA;
19.1235079517178;-0.699798583984375;-0.0405517578125;1.06999999729851;108;100 mA;
19.1335079516925;-0.69976806640625;-0.0403472900390625;1.07999999727326;109;100 mA;
19.1435079516673;-0.69976806640625;-0.040142822265625;1.08999999724801;110;100 mA;
19.153507951642;-0.69976806640625;-0.039947509765625;1.09999999722277;111;100 mA;
19.1635079516168;-0.69976806640625;-0.0397430419921875;1.10999999719752;112;100 mA;
19.1735079515915;-0.69976806640625;-0.0395660400390625;1.11999999717227;113;100 mA;
19.1835079515663;-0.69976806640625;-0.039373779296875;1.12999999714702;114;100 mA;
19.1935079515411;-0.69976806640625;-0.0391876220703125;1.13999999712178;115;100 mA;
19.2035079515158;-0.699737548828125;-0.0390106201171875;1.14999999709653;116;100 mA;
19.2135079514906;-0.69976806640625;-0.038824462890625;1.15999999707128;117;100 mA;
19.2235079514653;-0.699737548828125;-0.03865966796875;1.16999999704603;118;100 mA;
19.2335079514401;-0.69970703125;-0.038482666015625;1.17999999702079;119;100 mA;
19.2435079514148;-0.69976806640625;-0.0383087158203125;1.18999999699554;120;100 mA;
19.2535079513896;-0.699798583984375;-0.03814697265625;1.19999999697029;121;100 mA;
19.2635079513643;-0.69970703125;-0.0379730224609375;1.20999999694504;122;100 mA;
19.2735079513391;-0.699737548828125;-0.0378143310546875;1.2199999969198;123;100 mA;
19.2835079513138;-0.69976806640625;-0.0376434326171875;1.22999999689455;124;100 mA;
19.2935079512886;-0.69970703125;-0.0374847412109375;1.2399999968693;125;100 mA;
19.3035079512633;-0.699798583984375;-0.0373291015625;1.24999999684405;126;100 mA;
19.3135079512381;-0.69976806640625;-0.0371612548828125;1.25999999681881;127;100 mA;
19.3235079512128;-0.699737548828125;-0.03701171875;1.26999999679356;128;100 mA;
19.3335079511876;-0.69976806640625;-0.036859130859375;1.27999999676831;129;100 mA;
19.3435079511623;-0.699737548828125;-0.03670654296875;1.28999999674306;130;100 mA;
19.3535079511371;-0.699737548828125;-0.0365570068359375;1.29999999671782;131;100 mA;
19.3635079511118;-0.699737548828125;-0.036407470703125;1.30999999669257;132;100 mA;
19.3735079510866;-0.6998291015625;-0.036273193359375;1.31999999666732;133;100 mA;
19.3835079510613;-0.699737548828125;-0.036126708984375;1.32999999664207;134;100 mA;
19.3935079510361;-0.69976806640625;-0.035986328125;1.33999999661683;135;100 mA;
19.4035079510109;-0.699798583984375;-0.0358489990234375;1.34999999659158;136;100 mA;
19.4135079509856;-0.69976806640625;-0.03570556640625;1.35999999656633;137;100 mA;
19.4235079509604;-0.69970703125;-0.035577392578125;1.36999999654108;138;100 mA;
19.4335079509351;-0.69976806640625;-0.03543701171875;1.37999999651583;139;100 mA;
19.4435079509099;-0.699798583984375;-0.035302734375;1.38999999649059;140;100 mA;
19.4535079508846;-0.699737548828125;-0.0351715087890625;1.39999999646534;141;100 mA;
19.4635079508594;-0.699737548828125;-0.0350341796875;1.40999999644009;142;100 mA;
19.4735079508341;-0.699798583984375;-0.034912109375;1.41999999641484;143;100 mA;
19.4835079508089;-0.699798583984375;-0.034783935546875;1.4299999963896;144;100 mA;
19.4935079507836;-0.699737548828125;-0.0346527099609375;1.43999999636435;145;100 mA;
19.5035079507584;-0.69976806640625;-0.03453369140625;1.4499999963391;146;100 mA;
19.5135079507331;-0.69976806640625;-0.034405517578125;1.45999999631385;147;100 mA;
19.5235079507079;-0.699737548828125;-0.0343048095703125;1.46999999628861;148;100 mA;
19.5335079506826;-0.6998291015625;-0.034185791015625;1.47999999626336;149;100 mA;
19.5435079506574;-0.69976806640625;-0.0340667724609375;1.48999999623811;150;100 mA;
19.5535079506321;-0.69976806640625;-0.0339599609375;1.49999999621286;151;100 mA;
19.5635079506069;-0.69976806640625;-0.033837890625;1.50999999618762;152;100 mA;
19.5735079505816;-0.699798583984375;-0.0337310791015625;1.51999999616237;153;100 mA;
19.5835079505564;-0.699737548828125;-0.0336181640625;1.52999999613712;154;100 mA;
19.5935079505311;-0.699737548828125;-0.0335052490234375;1.53999999611187;155;100 mA;
19.6035079505059;-0.69976806640625;-0.0334014892578125;1.54999999608663;156;100 mA;
19.6135079504807;-0.699737548828125;-0.0332855224609375;1.55999999606138;157;100 mA;
19.6235079504554;-0.69976806640625;-0.0331878662109375;1.56999999603613;158;100 mA;
19.6335079504302;-0.699798583984375;-0.0330810546875;1.57999999601088;159;100 mA;
19.6435079504049;-0.699798583984375;-0.0329803466796875;1.58999999598564;160;100 mA;
19.6535079503797;-0.699737548828125;-0.0328826904296875;1.59999999596039;161;100 mA;
19.6635079503544;-0.69976806640625;-0.0327789306640625;1.60999999593514;162;100 mA;
19.6735079503292;-0.69970703125;-0.0326934814453125;1.61999999590989;163;100 mA;
19.6835079503039;-0.699737548828125;-0.0325927734375;1.62999999588465;164;100 mA;
19.6935079502787;-0.699737548828125;-0.0324981689453125;1.6399999958594;165;100 mA;
19.7035079502534;-0.69976806640625;-0.032403564453125;1.64999999583415;166;100 mA;
19.7135079502282;-0.699798583984375;-0.0322967529296875;1.6599999958089;167;100 mA;
19.7235079502029;-0.69976806640625;-0.032208251953125;1.66999999578366;168;100 mA;
19.7335079501777;-0.6998291015625;-0.0321044921875;1.67999999575841;169;100 mA;
19.7435079501524;-0.69976806640625;-0.0320068359375;1.68999999573316;170;100 mA;
19.7535079501272;-0.69976806640625;-0.0319122314453125;1.69999999570791;171;100 mA;
19.7635079501019;-0.699798583984375;-0.031805419921875;1.70999999568267;172;100 mA;
19.7735079500767;-0.69976806640625;-0.031719970703125;1.71999999565742;173;100 mA;
19.7835079500514;-0.699798583984375;-0.031622314453125;1.72999999563217;174;100 mA;
19.7935079500262;-0.699737548828125;-0.0315277099609375;1.73999999560692;175;100 mA;
19.8035079500009;-0.699737548828125;-0.031439208984375;1.74999999558167;176;100 mA;
19.8135079499757;-0.69976806640625;-0.031341552734375;1.75999999555643;177;100 mA;
19.8235079499505;-0.69976806640625;-0.03126220703125;1.76999999553118;178;100 mA;
19.8335079499252;-0.69976806640625;-0.0311737060546875;1.77999999550593;179;100 mA;
19.8435079499;-0.69970703125;-0.031085205078125;1.78999999548068;180;100 mA;
19.8535079498747;-0.6998291015625;-0.030999755859375;1.79999999545544;181;100 mA;
19.8635079498495;-0.699798583984375;-0.0309051513671875;1.80999999543019;182;100 mA;
19.8735079498242;-0.69970703125;-0.030828857421875;1.81999999540494;183;100 mA;
19.883507949799;-0.699737548828125;-0.0307373046875;1.82999999537969;184;100 mA;
19.8935079497737;-0.699737548828125;-0.0306488037109375;1.83999999535445;185;100 mA;
19.9035079497485;-0.69976806640625;-0.0305694580078125;1.8499999953292;186;100 mA;
19.9135079497232;-0.699737548828125;-0.03048095703125;1.85999999530395;187;100 mA;
19.923507949698;-0.69976806640625;-0.030401611328125;1.8699999952787;188;100 mA;
19.9335079496727;-0.69976806640625;-0.030316162109375;1.87999999525346;189;100 mA;
19.9435079496475;-0.69976806640625;-0.0302337646484375;1.88999999522821;190;100 mA;
19.9535079496222;-0.69976806640625;-0.0301605224609375;1.89999999520296;191;100 mA;
19.963507949597;-0.699737548828125;-0.030072021484375;1.90999999517771;192;100 mA;
19.9735079495717;-0.699798583984375;-0.0300048828125;1.91999999515247;193;100 mA;
19.9835079495465;-0.69976806640625;-0.029925537109375;1.92999999512722;194;100 mA;
19.9935079495212;-0.69976806640625;-0.02984619140625;1.93999999510197;195;100 mA;
20.003507949496;-0.6998291015625;-0.0297760009765625;1.94999999507672;196;100 mA;
20.0135079494707;-0.699737548828125;-0.029693603515625;1.95999999505148;197;100 mA;
20.0235079494455;-0.69976806640625;-0.02962646484375;1.96999999502623;198;100 mA;
20.0335079494203;-0.69976806640625;-0.029547119140625;1.97999999500098;199;100 mA;
20.043507949395;-0.69976806640625;-0.0294708251953125;1.98999999497573;200;100 mA;
20.0535079493698;-0.6998291015625;-0.02939453125;1.99999999495049;201;100 mA;
20.0635079493445;-0.69970703125;-0.029315185546875;2.00999999492524;202;100 mA;
20.0735079493193;-0.69976806640625;-0.029254150390625;2.01999999489999;203;100 mA;
20.083507949294;-0.69976806640625;-0.0291748046875;2.02999999487474;204;100 mA;
20.0935079492688;-0.699737548828125;-0.0291046142578125;2.0399999948495;205;100 mA;
20.1035079492435;-0.699737548828125;-0.0290374755859375;2.04999999482425;206;100 mA;
20.1135079492183;-0.69976806640625;-0.0289642333984375;2.059999994799;207;100 mA;
20.123507949193;-0.6998291015625;-0.0289031982421875;2.06999999477375;208;100 mA;
20.1335079491678;-0.699798583984375;-0.028839111328125;2.0799999947485;209;100 mA;
20.1435079491425;-0.69976806640625;-0.0287689208984375;2.08999999472326;210;100 mA;
20.1535079491173;-0.69976806640625;-0.0287078857421875;2.09999999469801;211;100 mA;
20.163507949092;-0.699798583984375;-0.028631591796875;2.10999999467276;212;100 mA;
20.1735079490668;-0.699737548828125;-0.0285736083984375;2.11999999464751;213;100 mA;
20.1835079490415;-0.699798583984375;-0.02850341796875;2.12999999462227;214;100 mA;
20.1935079490163;-0.699798583984375;-0.02843017578125;2.13999999459702;215;100 mA;
20.203507948991;-0.69976806640625;-0.028369140625;2.14999999457177;216;100 mA;
20.2135079489658;-0.699737548828125;-0.0282958984375;2.15999999454652;217;100 mA;
20.2235079489406;-0.69970703125;-0.0282379150390625;2.16999999452128;218;100 mA;
20.2335079489153;-0.699737548828125;-0.028173828125;2.17999999449603;219;100 mA;
20.2435079488901;-0.699737548828125;-0.0281005859375;2.18999999447078;220;100 mA;
20.2535079488648;-0.69970703125;-0.028045654296875;2.19999999444553;221;100 mA;
20.2635079488396;-0.699737548828125;-0.027972412109375;2.20999999442029;222;100 mA;
20.2735079488143;-0.699737548828125;-0.0279205322265625;2.21999999439504;223;100 mA;
20.2835079487891;-0.69976806640625;-0.0278533935546875;2.22999999436979;224;100 mA;
20.2935079487638;-0.69970703125;-0.0277862548828125;2.23999999434454;225;100 mA;
20.3035079487386;-0.699737548828125;-0.0277313232421875;2.2499999943193;226;100 mA;
20.3135079487133;-0.699737548828125;-0.0276611328125;2.25999999429405;227;100 mA;
20.3235079486881;-0.699798583984375;-0.0276031494140625;2.2699999942688;228;100 mA;
20.3335079486628;-0.699737548828125;-0.0275360107421875;2.27999999424355;229;100 mA;
20.3435079486376;-0.69976806640625;-0.0274688720703125;2.28999999421831;230;100 mA;
20.3535079486123;-0.699737548828125;-0.027410888671875;2.29999999419306;231;100 mA;
20.3635079485871;-0.69976806640625;-0.0273345947265625;2.30999999416781;232;100 mA;
20.3735079485618;-0.69976806640625;-0.0272857666015625;2.31999999414256;233;100 mA;
20.3835079485366;-0.699798583984375;-0.0272186279296875;2.32999999411732;234;100 mA;
20.3935079485113;-0.69976806640625;-0.0271575927734375;2.33999999409207;235;100 mA;
20.4035079484861;-0.6998291015625;-0.027099609375;2.34999999406682;236;100 mA;
20.4135079484608;-0.69976806640625;-0.0270294189453125;2.35999999404157;237;100 mA;
20.4235079484356;-0.69970703125;-0.0269775390625;2.36999999401633;238;100 mA;
20.4335079484104;-0.699798583984375;-0.02691650390625;2.37999999399108;239;100 mA;
20.4435079483851;-0.69976806640625;-0.02685546875;2.38999999396583;240;100 mA;
20.4535079483599;-0.69976806640625;-0.026800537109375;2.39999999394058;241;100 mA;
20.4635079483346;-0.699798583984375;-0.026727294921875;2.40999999391533;242;100 mA;
20.4735079483094;-0.69976806640625;-0.026678466796875;2.41999999389009;243;100 mA;
20.4835079482841;-0.6998291015625;-0.026617431640625;2.42999999386484;244;100 mA;
20.4935079482589;-0.699798583984375;-0.0265533447265625;2.43999999383959;245;100 mA;
20.5035079482336;-0.699798583984375;-0.0264984130859375;2.44999999381434;246;100 mA;
20.5135079482084;-0.69976806640625;-0.0264312744140625;2.4599999937891;247;100 mA;
20.5235079481831;-0.69976806640625;-0.026385498046875;2.46999999376385;248;100 mA;
20.5335079481579;-0.69976806640625;-0.026324462890625;2.4799999937386;249;100 mA;
20.5435079481326;-0.69976806640625;-0.026263427734375;2.48999999371335;250;100 mA;
20.5535079481074;-0.699737548828125;-0.0262115478515625;2.49999999368811;251;100 mA;
20.5635079480821;-0.699798583984375;-0.0261444091796875;2.50999999366286;252;100 mA;
20.5735079480569;-0.6998291015625;-0.0261016845703125;2.51999999363761;253;100 mA;
20.5835079480316;-0.699737548828125;-0.0260406494140625;2.52999999361236;254;100 mA;
20.5935079480064;-0.69976806640625;-0.02598876953125;2.53999999358712;255;100 mA;
20.6035079479811;-0.699798583984375;-0.025933837890625;2.54999999356187;256;100 mA;
20.6135079479559;-0.699798583984375;-0.025872802734375;2.55999999353662;257;100 mA;
20.6235079479306;-0.699798583984375;-0.0258270263671875;2.56999999351137;258;100 mA;
20.6335079479054;-0.699737548828125;-0.0257720947265625;2.57999999348613;259;100 mA;
20.6435079478802;-0.699798583984375;-0.0257110595703125;2.58999999346088;260;100 mA;
20.6535079478549;-0.6998291015625;-0.0256622314453125;2.59999999343563;261;100 mA;
20.6635079478297;-0.69976806640625;-0.025604248046875;2.60999999341038;262;100 mA;
20.6735079478044;-0.69976806640625;-0.0255584716796875;2.61999999338514;263;100 mA;
20.6835079477792;-0.699798583984375;-0.0255035400390625;2.62999999335989;264;100 mA;
20.6935079477539;-0.699798583984375;-0.02545166015625;2.63999999333464;265;100 mA;
20.7035079477287;-0.699798583984375;-0.02540283203125;2.64999999330939;266;100 mA;
20.7135079477034;-0.699737548828125;-0.025347900390625;2.65999999328415;267;100 mA;
20.7235079476782;-0.699798583984375;-0.02530517578125;2.6699999932589;268;100 mA;
20.7335079476529;-0.699798583984375;-0.0252532958984375;2.67999999323365;269;100 mA;
20.7435079476277;-0.699737548828125;-0.0252044677734375;2.6899999932084;270;100 mA;
20.7535079476024;-0.69976806640625;-0.02515869140625;2.69999999318316;271;100 mA;
20.7635079475772;-0.699737548828125;-0.0251007080078125;2.70999999315791;272;100 mA;
20.7735079475519;-0.69970703125;-0.02506103515625;2.71999999313266;273;100 mA;
20.7835079475267;-0.699798583984375;-0.0250091552734375;2.72999999310741;274;100 mA;
20.7935079475014;-0.69976806640625;-0.024957275390625;2.73999999308217;275;100 mA;
20.8035079474762;-0.69976806640625;-0.0249114990234375;2.74999999305692;276;100 mA;
20.8135079474509;-0.699737548828125;-0.024859619140625;2.75999999303167;277;100 mA;
20.8235079474257;-0.69976806640625;-0.024822998046875;2.76999999300642;278;100 mA;
20.8335079474004;-0.69976806640625;-0.0247711181640625;2.77999999298117;279;100 mA;
20.8435079473752;-0.69976806640625;-0.024725341796875;2.78999999295593;280;100 mA;
20.85350794735;-0.69976806640625;-0.0246856689453125;2.79999999293068;281;100 mA;
20.8635079473247;-0.699798583984375;-0.0246337890625;2.80999999290543;282;100 mA;
20.8735079472995;-0.69976806640625;-0.024603271484375;2.81999999288018;283;100 mA;
20.8835079472742;-0.69976806640625;-0.024554443359375;2.82999999285494;284;100 mA;
20.893507947249;-0.69976806640625;-0.0245086669921875;2.83999999282969;285;100 mA;
20.9035079472237;-0.6998291015625;-0.024468994140625;2.84999999280444;286;100 mA;
20.9135079471985;-0.699737548828125;-0.024420166015625;2.85999999277919;287;100 mA;
20.9235079471732;-0.699798583984375;-0.0243865966796875;2.86999999275395;288;100 mA;
20.933507947148;-0.699737548828125;-0.0243438720703125;2.8799999927287;289;100 mA;
20.9435079471227;-0.69976806640625;-0.0243011474609375;2.88999999270345;290;100 mA;
20.9535079470975;-0.6998291015625;-0.024261474609375;2.8999999926782;291;100 mA;
20.9635079470722;-0.699798583984375;-0.0242156982421875;2.90999999265296;292;100 mA;
20.973507947047;-0.69976806640625;-0.0241851806640625;2.91999999262771;293;100 mA;
20.9835079470217;-0.69976806640625;-0.0241455078125;2.92999999260246;294;100 mA;
20.9935079469965;-0.69976806640625;-0.0241058349609375;2.93999999257721;295;100 mA;
21.0035079469712;-0.699798583984375;-0.024066162109375;2.94999999255197;296;100 mA;
21.013507946946;-0.69976806640625;-0.0240264892578125;2.95999999252672;297;100 mA;
21.0235079469207;-0.699737548828125;-0.0239990234375;2.96999999250147;298;100 mA;
21.0335079468955;-0.699737548828125;-0.023956298828125;2.97999999247622;299;100 mA;
21.0435079468702;-0.69976806640625;-0.0239227294921875;2.98999999245098;300;100 mA;
21.053507946845;-0.69976806640625;-0.02388916015625;2.99999999242573;301;100 mA;
21.0635079468198;-0.69976806640625;-0.0238433837890625;3.00999999240048;302;100 mA;
21.0735079467945;-0.699798583984375;-0.02381591796875;3.01999999237523;303;100 mA;
21.0835079467693;-0.69976806640625;-0.023779296875;3.02999999234999;304;100 mA;
21.093507946744;-0.69976806640625;-0.0237396240234375;3.03999999232474;305;100 mA;
21.1035079467188;-0.6998291015625;-0.0237091064453125;3.04999999229949;306;100 mA;
21.1135079466935;-0.699737548828125;-0.02366943359375;3.05999999227424;307;100 mA;
21.1235079466683;-0.69976806640625;-0.02364501953125;3.069999992249;308;100 mA;
21.133507946643;-0.699798583984375;-0.0236114501953125;3.07999999222375;309;100 mA;
21.1435079466178;-0.699798583984375;-0.0235748291015625;3.0899999921985;310;100 mA;
21.1535079465925;-0.69976806640625;-0.02354736328125;3.09999999217325;311;100 mA;
21.1635079465673;-0.69970703125;-0.0235076904296875;3.109999992148;312;100 mA;
21.173507946542;-0.6998291015625;-0.023486328125;3.11999999212276;313;100 mA;
21.1835079465168;-0.6998291015625;-0.0234527587890625;3.12999999209751;314;100 mA;
21.1935079464915;-0.69976806640625;-0.0234222412109375;3.13999999207226;315;100 mA;
21.2035079464663;-0.699798583984375;-0.023394775390625;3.14999999204701;316;100 mA;
21.213507946441;-0.699798583984375;-0.0233551025390625;3.15999999202177;317;100 mA;
21.2235079464158;-0.6998291015625;-0.023333740234375;3.16999999199652;318;100 mA;
21.2335079463905;-0.699737548828125;-0.0233062744140625;3.17999999197127;319;100 mA;
21.2435079463653;-0.69976806640625;-0.0232696533203125;3.18999999194602;320;100 mA;
21.2535079463401;-0.699737548828125;-0.023248291015625;3.19999999192078;321;100 mA;
21.2635079463148;-0.699737548828125;-0.023211669921875;3.20999999189553;322;100 mA;
21.2735079462896;-0.699798583984375;-0.0231964111328125;3.21999999187028;323;100 mA;
21.2835079462643;-0.69976806640625;-0.0231658935546875;3.22999999184503;324;100 mA;
21.2935079462391;-0.699798583984375;-0.0231414794921875;3.23999999181979;325;100 mA;
21.3035079462138;-0.6998291015625;-0.0231231689453125;3.24999999179454;326;100 mA;
21.3135079461886;-0.69976806640625;-0.0230926513671875;3.25999999176929;327;100 mA;
21.3235079461633;-0.69976806640625;-0.02308349609375;3.26999999174404;328;100 mA;
21.3335079461381;-0.699737548828125;-0.02305908203125;3.2799999917188;329;100 mA;
21.3435079461128;-0.699798583984375;-0.02303466796875;3.28999999169355;330;100 mA;
21.3535079460876;-0.699798583984375;-0.023016357421875;3.2999999916683;331;100 mA;
21.3635079460623;-0.69976806640625;-0.0229949951171875;3.30999999164305;332;100 mA;
21.3735079460371;-0.699798583984375;-0.0229827880859375;3.31999999161781;333;100 mA;
21.3835079460118;-0.69976806640625;-0.0229644775390625;3.32999999159256;334;100 mA;
21.3935079459866;-0.699798583984375;-0.022943115234375;3.33999999156731;335;100 mA;
21.4035079459613;-0.69976806640625;-0.0229278564453125;3.34999999154206;336;100 mA;
21.4135079459361;-0.699798583984375;-0.022906494140625;3.35999999151682;337;100 mA;
21.4235079459108;-0.699798583984375;-0.022900390625;3.36999999149157;338;100 mA;
21.4335079458856;-0.699798583984375;-0.022882080078125;3.37999999146632;339;100 mA;
21.4435079458603;-0.699859619140625;-0.022857666015625;3.38999999144107;340;100 mA;
21.4535079458351;-0.699798583984375;-0.0228485107421875;3.39999999141583;341;100 mA;
21.4635079458099;-0.69976806640625;-0.0228240966796875;3.40999999139058;342;100 mA;
21.4735079457846;-0.6998291015625;-0.0228179931640625;3.41999999136533;343;100 mA;
21.4835079457594;-0.69976806640625;-0.022796630859375;3.42999999134008;344;100 mA;
21.4935079457341;-0.69976806640625;-0.0227783203125;3.43999999131483;345;100 mA;
21.5035079457089;-0.699737548828125;-0.022760009765625;3.44999999128959;346;100 mA;
21.5135079456836;-0.699737548828125;-0.0227386474609375;3.45999999126434;347;100 mA;
21.5235079456584;-0.69976806640625;-0.0227294921875;3.46999999123909;348;100 mA;
21.5335079456331;-0.699737548828125;-0.022705078125;3.47999999121384;349;100 mA;
21.5435079456079;-0.6998291015625;-0.0226837158203125;3.4899999911886;350;100 mA;
21.5535079455826;-0.699798583984375;-0.0226715087890625;3.49999999116335;351;100 mA;
21.5635079455574;-0.699798583984375;-0.02264404296875;3.5099999911381;352;100 mA;
21.5735079455321;-0.699798583984375;-0.0226348876953125;3.51999999111285;353;100 mA;
21.5835079455069;-0.699737548828125;-0.022613525390625;3.52999999108761;354;100 mA;
21.5935079454816;-0.699798583984375;-0.022589111328125;3.53999999106236;355;100 mA;
21.6035079454564;-0.69976806640625;-0.0225738525390625;3.54999999103711;356;100 mA;
21.6135079454311;-0.699798583984375;-0.02254638671875;3.55999999101186;357;100 mA;
21.6235079454059;-0.69976806640625;-0.0225341796875;3.56999999098662;358;100 mA;
21.6335079453806;-0.699859619140625;-0.0225128173828125;3.57999999096137;359;100 mA;
21.6435079453554;-0.699798583984375;-0.0224853515625;3.58999999093612;360;100 mA;
21.6535079453301;-0.699737548828125;-0.02247314453125;3.59999999091087;361;100 mA;
21.6635079453049;-0.699737548828125;-0.0224456787109375;3.60999999088563;362;100 mA;
21.6735079452797;-0.699798583984375;-0.0224365234375;3.61999999086038;363;100 mA;
21.6835079452544;-0.699798583984375;-0.0224090576171875;3.62999999083513;364;100 mA;
21.6935079452292;-0.6998291015625;-0.0223907470703125;3.63999999080988;365;100 mA;
21.7035079452039;-0.69976806640625;-0.0223724365234375;3.64999999078464;366;100 mA;
21.7135079451787;-0.69976806640625;-0.022344970703125;3.65999999075939;367;100 mA;
21.7235079451534;-0.699798583984375;-0.0223358154296875;3.66999999073414;368;100 mA;
21.7335079451282;-0.699798583984375;-0.022308349609375;3.67999999070889;369;100 mA;
21.7435079451029;-0.69976806640625;-0.0222869873046875;3.68999999068365;370;100 mA;
21.7535079450777;-0.69976806640625;-0.022271728515625;3.6999999906584;371;100 mA;
21.7635079450524;-0.69976806640625;-0.0222412109375;3.70999999063315;372;100 mA;
21.7735079450272;-0.699798583984375;-0.0222320556640625;3.7199999906079;373;100 mA;
21.7835079450019;-0.699737548828125;-0.0222076416015625;3.72999999058266;374;100 mA;
21.7935079449767;-0.699798583984375;-0.022186279296875;3.73999999055741;375;100 mA;
21.8035079449514;-0.69976806640625;-0.02216796875;3.74999999053216;376;100 mA;
21.8135079449262;-0.69976806640625;-0.0221405029296875;3.75999999050691;377;100 mA;
21.8235079449009;-0.699737548828125;-0.02213134765625;3.76999999048167;378;100 mA;
21.8335079448757;-0.69976806640625;-0.02210693359375;3.77999999045642;379;100 mA;
21.8435079448504;-0.699859619140625;-0.0220794677734375;3.78999999043117;380;100 mA;
21.8535079448252;-0.69976806640625;-0.0220672607421875;3.79999999040592;381;100 mA;
21.8635079447999;-0.6998291015625;-0.0220367431640625;3.80999999038067;382;100 mA;
21.8735079447747;-0.699798583984375;-0.022027587890625;3.81999999035543;383;100 mA;
21.8835079447495;-0.699798583984375;-0.0220062255859375;3.82999999033018;384;100 mA;
21.8935079447242;-0.69976806640625;-0.0219818115234375;3.83999999030493;385;100 mA;
21.903507944699;-0.699798583984375;-0.0219635009765625;3.84999999027968;386;100 mA;
21.9135079446737;-0.6998291015625;-0.0219390869140625;3.85999999025444;387;100 mA;
21.9235079446485;-0.699737548828125;-0.0219268798828125;3.86999999022919;388;100 mA;
21.9335079446232;-0.69976806640625;-0.0218994140625;3.87999999020394;389;100 mA;
21.943507944598;-0.69976806640625;-0.021881103515625;3.88999999017869;390;100 mA;
21.9535079445727;-0.69976806640625;-0.02186279296875;3.89999999015345;391;100 mA;
21.9635079445475;-0.69976806640625;-0.0218353271484375;3.9099999901282;392;100 mA;
21.9735079445222;-0.699737548828125;-0.021826171875;3.91999999010295;393;100 mA;
21.983507944497;-0.699798583984375;-0.0218048095703125;3.9299999900777;394;100 mA;
21.9935079444717;-0.69976806640625;-0.0217803955078125;3.93999999005246;395;100 mA;
22.0035079444465;-0.69976806640625;-0.02176513671875;3.94999999002721;396;100 mA;
22.0135079444212;-0.69976806640625;-0.02174072265625;3.95999999000196;397;100 mA;
22.023507944396;-0.69976806640625;-0.0217315673828125;3.96999998997671;398;100 mA;
22.0335079443707;-0.699798583984375;-0.0217041015625;3.97999998995147;399;100 mA;
22.0435079443455;-0.699737548828125;-0.021685791015625;3.98999998992622;400;100 mA;
22.0535079443202;-0.69976806640625;-0.02166748046875;3.99999998990097;401;100 mA;
22.063507944295;-0.699798583984375;-0.0216400146484375;4.00999998987572;402;100 mA;
22.0735079442697;-0.699798583984375;-0.021630859375;4.01999998985048;403;100 mA;
22.0835079442445;-0.699798583984375;-0.0216064453125;4.02999998982523;404;100 mA;
22.0935079442193;-0.69976806640625;-0.0215850830078125;4.03999998979998;405;100 mA;
22.103507944194;-0.69976806640625;-0.02156982421875;4.04999998977473;406;100 mA;
22.1135079441688;-0.699798583984375;-0.0215423583984375;4.05999998974949;407;100 mA;
22.1235079441435;-0.69976806640625;-0.0215301513671875;4.06999998972424;408;100 mA;
22.1335079441183;-0.69976806640625;-0.0215087890625;4.07999998969899;409;100 mA;
22.143507944093;-0.69976806640625;-0.0214874267578125;4.08999998967374;410;100 mA;
22.1535079440678;-0.69976806640625;-0.0214752197265625;4.0999999896485;411;100 mA;
22.1635079440425;-0.699798583984375;-0.0214447021484375;4.10999998962325;412;100 mA;
22.1735079440173;-0.69976806640625;-0.0214385986328125;4.119999989598;413;100 mA;
22.183507943992;-0.69976806640625;-0.021417236328125;4.12999998957275;414;100 mA;
22.1935079439668;-0.699737548828125;-0.0213958740234375;4.1399999895475;415;100 mA;
22.2035079439415;-0.699737548828125;-0.0213775634765625;4.14999998952226;416;100 mA;
22.2135079439163;-0.699798583984375;-0.0213531494140625;4.15999998949701;417;100 mA;
22.223507943891;-0.69976806640625;-0.0213409423828125;4.16999998947176;418;100 mA;
22.2335079438658;-0.69976806640625;-0.021319580078125;4.17999998944651;419;100 mA;
22.2435079438405;-0.699798583984375;-0.02130126953125;4.18999998942127;420;100 mA;
22.2535079438153;-0.699798583984375;-0.0212860107421875;4.19999998939602;421;100 mA;
22.26350794379;-0.699737548828125;-0.0212615966796875;4.20999998937077;422;100 mA;
22.2735079437648;-0.69976806640625;-0.02125244140625;4.21999998934552;423;100 mA;
22.2835079437396;-0.699798583984375;-0.0212310791015625;4.22999998932028;424;100 mA;
22.2935079437143;-0.69976806640625;-0.0212127685546875;4.23999998929503;425;100 mA;
22.3035079436891;-0.69976806640625;-0.0212005615234375;4.24999998926978;426;100 mA;
22.3135079436638;-0.6998291015625;-0.0211761474609375;4.25999998924453;427;100 mA;
22.3235079436386;-0.69976806640625;-0.0211669921875;4.26999998921929;428;100 mA;
22.3335079436133;-0.699798583984375;-0.021142578125;4.27999998919404;429;100 mA;
22.3435079435881;-0.6998291015625;-0.0211273193359375;4.28999998916879;430;100 mA;
22.3535079435628;-0.699737548828125;-0.0211151123046875;4.29999998914354;431;100 mA;
22.3635079435376;-0.69976806640625;-0.021087646484375;4.3099999891183;432;100 mA;
22.3735079435123;-0.699798583984375;-0.021075439453125;4.31999998909305;433;100 mA;
22.3835079434871;-0.6998291015625;-0.02105712890625;4.3299999890678;434;100 mA;
22.3935079434618;-0.69976806640625;-0.021038818359375;4.33999998904255;435;100 mA;
22.4035079434366;-0.699798583984375;-0.0210235595703125;4.34999998901731;436;100 mA;
22.4135079434113;-0.6998291015625;-0.0210052490234375;4.35999998899206;437;100 mA;
22.4235079433861;-0.699737548828125;-0.0209991455078125;4.36999998896681;438;100 mA;
22.4335079433608;-0.69976806640625;-0.02098388671875;4.37999998894156;439;100 mA;
22.4435079433356;-0.6998291015625;-0.0209686279296875;4.38999998891632;440;100 mA;
22.4535079433103;-0.699737548828125;-0.0209625244140625;4.39999998889107;441;100 mA;
22.4635079432851;-0.699798583984375;-0.0209442138671875;4.40999998886582;442;100 mA;
22.4735079432598;-0.699798583984375;-0.0209442138671875;4.41999998884057;443;100 mA;
22.4835079432346;-0.699859619140625;-0.0209320068359375;4.42999998881533;444;100 mA;
22.4935079432094;-0.699737548828125;-0.0209197998046875;4.43999998879008;445;100 mA;
22.5035079431841;-0.699798583984375;-0.0209136962890625;4.44999998876483;446;100 mA;
22.5135079431589;-0.699737548828125;-0.020904541015625;4.45999998873958;447;100 mA;
22.5235079431336;-0.699798583984375;-0.0208984375;4.46999998871433;448;100 mA;
22.5335079431084;-0.699737548828125;-0.0208892822265625;4.47999998868909;449;100 mA;
22.5435079430831;-0.69976806640625;-0.0208770751953125;4.48999998866384;450;100 mA;
22.5535079430579;-0.699859619140625;-0.0208740234375;4.49999998863859;451;100 mA;
22.5635079430326;-0.699859619140625;-0.02086181640625;4.50999998861334;452;100 mA;
22.5735079430074;-0.6998291015625;-0.02086181640625;4.5199999885881;453;100 mA;
22.5835079429821;-0.699798583984375;-0.020855712890625;4.52999998856285;454;100 mA;
22.5935079429569;-0.699737548828125;-0.020843505859375;4.5399999885376;455;100 mA;
22.6035079429316;-0.6998291015625;-0.02083740234375;4.54999998851235;456;100 mA;
22.6135079429064;-0.699798583984375;-0.0208282470703125;4.55999998848711;457;100 mA;
22.6235079428811;-0.6998291015625;-0.0208251953125;4.56999998846186;458;100 mA;
22.6335079428559;-0.6998291015625;-0.02081298828125;4.57999998843661;459;100 mA;
22.6435079428306;-0.699798583984375;-0.0208038330078125;4.58999998841136;460;100 mA;
22.6535079428054;-0.699798583984375;-0.0207977294921875;4.59999998838612;461;100 mA;
22.6635079427801;-0.699798583984375;-0.020782470703125;4.60999998836087;462;100 mA;
22.6735079427549;-0.699798583984375;-0.020782470703125;4.61999998833562;463;100 mA;
22.6835079427296;-0.699798583984375;-0.0207733154296875;4.62999998831037;464;100 mA;
22.6935079427044;-0.69976806640625;-0.0207611083984375;4.63999998828513;465;100 mA;
22.7035079426792;-0.69976806640625;-0.020758056640625;4.64999998825988;466;100 mA;
22.7135079426539;-0.69976806640625;-0.020745849609375;4.65999998823463;467;100 mA;
22.7235079426287;-0.69970703125;-0.020745849609375;4.66999998820938;468;100 mA;
22.7335079426034;-0.699798583984375;-0.020733642578125;4.67999998818414;469;100 mA;
22.7435079425782;-0.69976806640625;-0.0207244873046875;4.68999998815889;470;100 mA;
22.7535079425529;-0.699798583984375;-0.020721435546875;4.69999998813364;471;100 mA;
22.7635079425277;-0.699798583984375;-0.0207061767578125;4.70999998810839;472;100 mA;
22.7735079425024;-0.699737548828125;-0.020703125;4.71999998808315;473;100 mA;
22.7835079424772;-0.69976806640625;-0.020697021484375;4.7299999880579;474;100 mA;
22.7935079424519;-0.699798583984375;-0.0206817626953125;4.73999998803265;475;100 mA;
22.8035079424267;-0.69976806640625;-0.0206787109375;4.7499999880074;476;100 mA;
22.8135079424014;-0.699798583984375;-0.020660400390625;4.75999998798216;477;100 mA;
22.8235079423762;-0.699798583984375;-0.020660400390625;4.76999998795691;478;100 mA;
22.8335079423509;-0.699798583984375;-0.020648193359375;4.77999998793166;479;100 mA;
22.8435079423257;-0.69976806640625;-0.020635986328125;4.78999998790641;480;100 mA;
22.8535079423004;-0.699798583984375;-0.0206329345703125;4.79999998788116;481;100 mA;
22.8635079422752;-0.69976806640625;-0.0206146240234375;4.80999998785592;482;100 mA;
22.8735079422499;-0.699798583984375;-0.0206146240234375;4.81999998783067;483;100 mA;
22.8835079422247;-0.6998291015625;-0.02060546875;4.82999998780542;484;100 mA;
22.8935079421994;-0.699798583984375;-0.020587158203125;4.83999998778017;485;100 mA;
22.9035079421742;-0.69976806640625;-0.0205810546875;4.84999998775493;486;100 mA;
22.913507942149;-0.699798583984375;-0.0205657958984375;4.85999998772968;487;100 mA;
22.9235079421237;-0.699798583984375;-0.020562744140625;4.86999998770443;488;100 mA;
22.9335079420985;-0.699798583984375;-0.02054443359375;4.87999998767918;489;100 mA;
22.9435079420732;-0.69976806640625;-0.0205291748046875;4.88999998765394;490;100 mA;
22.953507942048;-0.69976806640625;-0.02052001953125;4.89999998762869;491;100 mA;
22.9635079420227;-0.699798583984375;-0.0204986572265625;4.90999998760344;492;100 mA;
22.9735079419975;-0.699798583984375;-0.0204986572265625;4.91999998757819;493;100 mA;
22.9835079419722;-0.699737548828125;-0.0204803466796875;4.92999998755295;494;100 mA;
22.993507941947;-0.69976806640625;-0.0204681396484375;4.9399999875277;495;100 mA;
23.0035079419217;-0.6998291015625;-0.0204559326171875;4.94999998750245;496;100 mA;
23.0135079418965;-0.69976806640625;-0.020440673828125;4.9599999874772;497;100 mA;
23.0235079418712;-0.69976806640625;-0.020440673828125;4.96999998745196;498;100 mA;
23.033507941846;-0.69976806640625;-0.02042236328125;4.97999998742671;499;100 mA;
23.0435079418207;-0.69976806640625;-0.0204071044921875;4.98999998740146;500;100 mA;
23.0535079417955;-0.699737548828125;-0.0204010009765625;4.99999998737621;501;100 mA;
23.0635079417702;-0.69976806640625;-0.02037353515625;5.00999998735097;502;100 mA;
23.073507941745;-0.69976806640625;-0.02037353515625;5.01999998732572;503;100 mA;
23.0835079417197;-0.699798583984375;-0.0203521728515625;5.02999998730047;504;100 mA;
23.0935079416945;-0.69976806640625;-0.0203369140625;5.03999998727522;505;100 mA;
23.1035079416692;-0.6998291015625;-0.02032470703125;5.04999998724998;506;100 mA;
23.113507941644;-0.699798583984375;-0.02030029296875;5.05999998722473;507;100 mA;
23.1235079416188;-0.699737548828125;-0.0202972412109375;5.06999998719948;508;100 mA;
23.1335079415935;-0.6998291015625;-0.0202789306640625;5.07999998717423;509;100 mA;
23.1435079415683;-0.699798583984375;-0.0202606201171875;5.08999998714899;510;100 mA;
23.153507941543;-0.69976806640625;-0.0202484130859375;5.09999998712374;511;100 mA;
23.1635079415178;-0.6998291015625;-0.020220947265625;5.10999998709849;512;100 mA;
23.1735079414925;-0.699859619140625;-0.02021484375;5.11999998707324;513;100 mA;
23.1835079414673;-0.6998291015625;-0.020196533203125;5.129999987048;514;100 mA;
23.193507941442;-0.699798583984375;-0.0201751708984375;5.13999998702275;515;100 mA;
23.2035079414168;-0.699798583984375;-0.0201568603515625;5.1499999869975;516;100 mA;
23.2135079413915;-0.699798583984375;-0.020135498046875;5.15999998697225;517;100 mA;
23.2235079413663;-0.699737548828125;-0.020123291015625;5.169999986947;518;100 mA;
23.233507941341;-0.6998291015625;-0.020098876953125;5.17999998692176;519;100 mA;
23.2435079413158;-0.6998291015625;-0.0200775146484375;5.18999998689651;520;100 mA;
23.2535079412905;-0.69976806640625;-0.020062255859375;5.19999998687126;521;100 mA;
23.2635079412653;-0.699798583984375;-0.020037841796875;5.20999998684601;522;100 mA;
23.27350794124;-0.699737548828125;-0.0200286865234375;5.21999998682077;523;100 mA;
23.2835079412148;-0.699737548828125;-0.0200042724609375;5.22999998679552;524;100 mA;
23.2935079411895;-0.699798583984375;-0.0199859619140625;5.23999998677027;525;100 mA;
23.3035079411643;-0.69976806640625;-0.019970703125;5.24999998674502;526;100 mA;
23.3135079411391;-0.69976806640625;-0.0199462890625;5.25999998671978;527;100 mA;
23.3235079411138;-0.69976806640625;-0.01993408203125;5.26999998669453;528;100 mA;
23.3335079410886;-0.69976806640625;-0.01990966796875;5.27999998666928;529;100 mA;
23.3435079410633;-0.6998291015625;-0.0198883056640625;5.28999998664403;530;100 mA;
23.3535079410381;-0.699798583984375;-0.019873046875;5.29999998661879;531;100 mA;
23.3635079410128;-0.69976806640625;-0.0198486328125;5.30999998659354;532;100 mA;
23.3735079409876;-0.699737548828125;-0.0198333740234375;5.31999998656829;533;100 mA;
23.3835079409623;-0.69976806640625;-0.0198150634765625;5.32999998654304;534;100 mA;
23.3935079409371;-0.699798583984375;-0.0197906494140625;5.3399999865178;535;100 mA;
23.4035079409118;-0.6998291015625;-0.0197784423828125;5.34999998649255;536;100 mA;
23.4135079408866;-0.69976806640625;-0.0197509765625;5.3599999864673;537;100 mA;
23.4235079408613;-0.69976806640625;-0.019744873046875;5.36999998644205;538;100 mA;
23.4335079408361;-0.699798583984375;-0.019720458984375;5.37999998641681;539;100 mA;
23.4435079408108;-0.699798583984375;-0.0197052001953125;5.38999998639156;540;100 mA;
23.4535079407856;-0.699798583984375;-0.01968994140625;5.39999998636631;541;100 mA;
23.4635079407603;-0.69976806640625;-0.0196624755859375;5.40999998634106;542;100 mA;
23.4735079407351;-0.699798583984375;-0.0196563720703125;5.41999998631582;543;100 mA;
23.4835079407098;-0.69976806640625;-0.0196319580078125;5.42999998629057;544;100 mA;
23.4935079406846;-0.699798583984375;-0.0196136474609375;5.43999998626532;545;100 mA;
23.5035079406593;-0.69976806640625;-0.019598388671875;5.44999998624007;546;100 mA;
23.5135079406341;-0.699798583984375;-0.019573974609375;5.45999998621483;547;100 mA;
23.5235079406089;-0.699798583984375;-0.019561767578125;5.46999998618958;548;100 mA;
23.5335079405836;-0.699798583984375;-0.0195404052734375;5.47999998616433;549;100 mA;
23.5435079405584;-0.699798583984375;-0.0195220947265625;5.48999998613908;550;100 mA;
23.5535079405331;-0.69976806640625;-0.0195068359375;5.49999998611383;551;100 mA;
23.5635079405079;-0.699737548828125;-0.0194854736328125;5.50999998608859;552;100 mA;
23.5735079404826;-0.699859619140625;-0.019476318359375;5.51999998606334;553;100 mA;
23.5835079404574;-0.6998291015625;-0.0194549560546875;5.52999998603809;554;100 mA;
23.5935079404321;-0.699798583984375;-0.019439697265625;5.53999998601284;555;100 mA;
23.6035079404069;-0.69976806640625;-0.019427490234375;5.5499999859876;556;100 mA;
23.6135079403816;-0.69976806640625;-0.019403076171875;5.55999998596235;557;100 mA;
23.6235079403564;-0.699798583984375;-0.0193939208984375;5.5699999859371;558;100 mA;
23.6335079403311;-0.699737548828125;-0.01937255859375;5.57999998591185;559;100 mA;
23.6435079403059;-0.69970703125;-0.019354248046875;5.58999998588661;560;100 mA;
23.6535079402806;-0.699798583984375;-0.0193389892578125;5.59999998586136;561;100 mA;
23.6635079402554;-0.69976806640625;-0.019317626953125;5.60999998583611;562;100 mA;
23.6735079402301;-0.69976806640625;-0.0193084716796875;5.61999998581086;563;100 mA;
23.6835079402049;-0.699798583984375;-0.019287109375;5.62999998578562;564;100 mA;
23.6935079401796;-0.6998291015625;-0.019268798828125;5.63999998576037;565;100 mA;
23.7035079401544;-0.69976806640625;-0.0192596435546875;5.64999998573512;566;100 mA;
23.7135079401291;-0.699798583984375;-0.0192352294921875;5.65999998570987;567;100 mA;
23.7235079401039;-0.69976806640625;-0.019232177734375;5.66999998568463;568;100 mA;
23.7335079400787;-0.69976806640625;-0.0192138671875;5.67999998565938;569;100 mA;
23.7435079400534;-0.6998291015625;-0.0191925048828125;5.68999998563413;570;100 mA;
23.7535079400282;-0.699737548828125;-0.0191864013671875;5.69999998560888;571;100 mA;
23.7635079400029;-0.699737548828125;-0.0191619873046875;5.70999998558364;572;100 mA;
23.7735079399777;-0.69976806640625;-0.0191558837890625;5.71999998555839;573;100 mA;
23.7835079399524;-0.699798583984375;-0.019134521484375;5.72999998553314;574;100 mA;
23.7935079399272;-0.699737548828125;-0.0191192626953125;5.73999998550789;575;100 mA;
23.8035079399019;-0.699798583984375;-0.0191070556640625;5.74999998548265;576;100 mA;
23.8135079398767;-0.69976806640625;-0.0190826416015625;5.7599999854574;577;100 mA;
23.8235079398514;-0.69976806640625;-0.0190765380859375;5.76999998543215;578;100 mA;
23.8335079398262;-0.69976806640625;-0.019061279296875;5.7799999854069;579;100 mA;
23.8435079398009;-0.699798583984375;-0.0190399169921875;5.78999998538166;580;100 mA;
23.8535079397757;-0.6998291015625;-0.0190338134765625;5.79999998535641;581;100 mA;
23.8635079397504;-0.69976806640625;-0.019012451171875;5.80999998533116;582;100 mA;
23.8735079397252;-0.6998291015625;-0.01900634765625;5.81999998530591;583;100 mA;
23.8835079396999;-0.699798583984375;-0.0189849853515625;5.82999998528066;584;100 mA;
23.8935079396747;-0.699676513671875;-0.0189727783203125;5.83999998525542;585;100 mA;
23.9035079396494;-0.699798583984375;-0.018963623046875;5.84999998523017;586;100 mA;
23.9135079396242;-0.699737548828125;-0.0189422607421875;5.85999998520492;587;100 mA;
23.9235079395989;-0.69976806640625;-0.0189361572265625;5.86999998517967;588;100 mA;
23.9335079395737;-0.6998291015625;-0.018914794921875;5.87999998515443;589;100 mA;
23.9435079395485;-0.699798583984375;-0.018902587890625;5.88999998512918;590;100 mA;
23.9535079395232;-0.699798583984375;-0.018890380859375;5.89999998510393;591;100 mA;
23.963507939498;-0.69976806640625;-0.0188690185546875;5.90999998507868;592;100 mA;
23.9735079394727;-0.69976806640625;-0.0188629150390625;5.91999998505344;593;100 mA;
23.9835079394475;-0.69976806640625;-0.0188507080078125;5.92999998502819;594;100 mA;
23.9935079394222;-0.699737548828125;-0.0188323974609375;5.93999998500294;595;100 mA;
24.003507939397;-0.699798583984375;-0.0188232421875;5.94999998497769;596;100 mA;
24.0135079393717;-0.699798583984375;-0.018804931640625;5.95999998495245;597;100 mA;
24.0235079393465;-0.6998291015625;-0.018798828125;5.9699999849272;598;100 mA;
24.0335079393212;-0.6998291015625;-0.0187835693359375;5.97999998490195;599;100 mA;
24.043507939296;-0.699798583984375;-0.018768310546875;5.9899999848767;600;100 mA;
24.0535079392707;-0.699737548828125;-0.0187591552734375;5.99999998485146;601;100 mA;
24.0635079392455;-0.699798583984375;-0.0187408447265625;6.00999998482621;602;100 mA;
24.0735079392202;-0.699798583984375;-0.018731689453125;6.01999998480096;603;100 mA;
24.083507939195;-0.6998291015625;-0.0187225341796875;6.02999998477571;604;100 mA;
24.0935079391697;-0.69976806640625;-0.0187042236328125;6.03999998475047;605;100 mA;
24.1035079391445;-0.699798583984375;-0.018695068359375;6.04999998472522;606;100 mA;
24.1135079391192;-0.699798583984375;-0.0186737060546875;6.05999998469997;607;100 mA;
24.123507939094;-0.699737548828125;-0.0186737060546875;6.06999998467472;608;100 mA;
24.1335079390687;-0.699859619140625;-0.0186553955078125;6.07999998464948;609;100 mA;
24.1435079390435;-0.699798583984375;-0.01864013671875;6.08999998462423;610;100 mA;
24.1535079390183;-0.69976806640625;-0.018634033203125;6.09999998459898;611;100 mA;
24.163507938993;-0.69976806640625;-0.01861572265625;6.10999998457373;612;100 mA;
24.1735079389678;-0.69976806640625;-0.01861572265625;6.11999998454849;613;100 mA;
24.1835079389425;-0.699798583984375;-0.018603515625;6.12999998452324;614;100 mA;
24.1935079389173;-0.69976806640625;-0.0185882568359375;6.13999998449799;615;100 mA;
24.203507938892;-0.6998291015625;-0.0185821533203125;6.14999998447274;616;100 mA;
24.2135079388668;-0.69976806640625;-0.0185638427734375;6.1599999844475;617;100 mA;
24.2235079388415;-0.6998291015625;-0.018560791015625;6.16999998442225;618;100 mA;
24.2335079388163;-0.699798583984375;-0.0185455322265625;6.179999984397;619;100 mA;
24.243507938791;-0.6998291015625;-0.0185302734375;6.18999998437175;620;100 mA;
24.2535079387658;-0.699737548828125;-0.018524169921875;6.1999999843465;621;100 mA;
24.2635079387405;-0.6998291015625;-0.0185028076171875;6.20999998432126;622;100 mA;
24.2735079387153;-0.69976806640625;-0.018505859375;6.21999998429601;623;100 mA;
24.28350793869;-0.699798583984375;-0.018487548828125;6.22999998427076;624;100 mA;
24.2935079386648;-0.699798583984375;-0.018475341796875;6.23999998424551;625;100 mA;
24.3035079386395;-0.699798583984375;-0.0184661865234375;6.24999998422027;626;100 mA;
24.3135079386143;-0.69970703125;-0.0184539794921875;6.25999998419502;627;100 mA;
24.323507938589;-0.69976806640625;-0.0184539794921875;6.26999998416977;628;100 mA;
24.3335079385638;-0.699859619140625;-0.0184356689453125;6.27999998414452;629;100 mA;
24.3435079385386;-0.69976806640625;-0.0184234619140625;6.28999998411928;630;100 mA;
24.3535079385133;-0.699859619140625;-0.01842041015625;6.29999998409403;631;100 mA;
24.3635079384881;-0.699798583984375;-0.018402099609375;6.30999998406878;632;100 mA;
24.3735079384628;-0.699798583984375;-0.0183990478515625;6.31999998404353;633;100 mA;
24.3835079384376;-0.69976806640625;-0.0183868408203125;6.32999998401829;634;100 mA;
24.3935079384123;-0.69976806640625;-0.0183746337890625;6.33999998399304;635;100 mA;
24.4035079383871;-0.69976806640625;-0.0183685302734375;6.34999998396779;636;100 mA;
24.4135079383618;-0.69976806640625;-0.018353271484375;6.35999998394254;637;100 mA;
24.4235079383366;-0.699798583984375;-0.01834716796875;6.3699999839173;638;100 mA;
24.4335079383113;-0.699798583984375;-0.0183349609375;6.37999998389205;639;100 mA;
24.4435079382861;-0.699798583984375;-0.0183258056640625;6.3899999838668;640;100 mA;
24.4535079382608;-0.69976806640625;-0.018316650390625;6.39999998384155;641;100 mA;
24.4635079382356;-0.699798583984375;-0.018304443359375;6.40999998381631;642;100 mA;
24.4735079382103;-0.699798583984375;-0.018304443359375;6.41999998379106;643;100 mA;
24.4835079381851;-0.699798583984375;-0.0182952880859375;6.42999998376581;644;100 mA;
24.4935079381598;-0.69976806640625;-0.0182861328125;6.43999998374056;645;100 mA;
24.5035079381346;-0.69976806640625;-0.0182769775390625;6.44999998371532;646;100 mA;
24.5135079381093;-0.69976806640625;-0.0182647705078125;6.45999998369007;647;100 mA;
24.5235079380841;-0.699737548828125;-0.0182647705078125;6.46999998366482;648;100 mA;
24.5335079380588;-0.6998291015625;-0.01824951171875;6.47999998363957;649;100 mA;
24.5435079380336;-0.69976806640625;-0.0182403564453125;6.48999998361433;650;100 mA;
24.5535079380084;-0.6998291015625;-0.0182342529296875;6.49999998358908;651;100 mA;
24.5635079379831;-0.699737548828125;-0.018218994140625;6.50999998356383;652;100 mA;
24.5735079379579;-0.69976806640625;-0.0182159423828125;6.51999998353858;653;100 mA;
24.5835079379326;-0.69976806640625;-0.018206787109375;6.52999998351333;654;100 mA;
24.5935079379074;-0.699737548828125;-0.01820068359375;6.53999998348809;655;100 mA;
24.6035079378821;-0.699798583984375;-0.018194580078125;6.54999998346284;656;100 mA;
24.6135079378569;-0.69976806640625;-0.018182373046875;6.55999998343759;657;100 mA;
24.6235079378316;-0.699859619140625;-0.0181854248046875;6.56999998341234;658;100 mA;
24.6335079378064;-0.699737548828125;-0.0181732177734375;6.5799999833871;659;100 mA;
24.6435079377811;-0.69976806640625;-0.018170166015625;6.58999998336185;660;100 mA;
24.6535079377559;-0.69976806640625;-0.018170166015625;6.5999999833366;661;100 mA;
24.6635079377306;-0.69976806640625;-0.0181549072265625;6.60999998331135;662;100 mA;
24.6735079377054;-0.699737548828125;-0.0181549072265625;6.61999998328611;663;100 mA;
24.6835079376801;-0.69976806640625;-0.0181488037109375;6.62999998326086;664;100 mA;
24.6935079376549;-0.69976806640625;-0.0181396484375;6.63999998323561;665;100 mA;
24.7035079376296;-0.69976806640625;-0.0181365966796875;6.64999998321036;666;100 mA;
24.7135079376044;-0.699798583984375;-0.01812744140625;6.65999998318512;667;100 mA;
24.7235079375791;-0.69976806640625;-0.0181304931640625;6.66999998315987;668;100 mA;
24.7335079375539;-0.69976806640625;-0.0181182861328125;6.67999998313462;669;100 mA;
24.7435079375286;-0.699798583984375;-0.018115234375;6.68999998310937;670;100 mA;
24.7535079375034;-0.6998291015625;-0.0181121826171875;6.69999998308413;671;100 mA;
24.7635079374782;-0.6998291015625;-0.01810302734375;6.70999998305888;672;100 mA;
24.7735079374529;-0.699798583984375;-0.0181060791015625;6.71999998303363;673;100 mA;
24.7835079374277;-0.699737548828125;-0.0180999755859375;6.72999998300838;674;100 mA;
24.7935079374024;-0.699798583984375;-0.0180908203125;6.73999998298314;675;100 mA;
24.8035079373772;-0.6998291015625;-0.0180908203125;6.74999998295789;676;100 mA;
24.8135079373519;-0.69976806640625;-0.018084716796875;6.75999998293264;677;100 mA;
24.8235079373267;-0.699798583984375;-0.0180816650390625;6.76999998290739;678;100 mA;
24.8335079373014;-0.6998291015625;-0.018072509765625;6.77999998288215;679;100 mA;
24.8435079372762;-0.6998291015625;-0.01806640625;6.7899999828569;680;100 mA;
24.8535079372509;-0.69976806640625;-0.01806640625;6.79999998283165;681;100 mA;
24.8635079372257;-0.6998291015625;-0.0180511474609375;6.8099999828064;682;100 mA;
24.8735079372004;-0.69970703125;-0.01805419921875;6.81999998278116;683;100 mA;
24.8835079371752;-0.6998291015625;-0.0180450439453125;6.82999998275591;684;100 mA;
24.8935079371499;-0.69976806640625;-0.0180389404296875;6.83999998273066;685;100 mA;
24.9035079371247;-0.6998291015625;-0.018035888671875;6.84999998270541;686;100 mA;
24.9135079370994;-0.69976806640625;-0.018023681640625;6.85999998268016;687;100 mA;
24.9235079370742;-0.69976806640625;-0.0180267333984375;6.86999998265492;688;100 mA;
24.9335079370489;-0.6998291015625;-0.0180145263671875;6.87999998262967;689;100 mA;
24.9435079370237;-0.69976806640625;-0.018011474609375;6.88999998260442;690;100 mA;
24.9535079369984;-0.699737548828125;-0.0180084228515625;6.89999998257917;691;100 mA;
24.9635079369732;-0.699798583984375;-0.0179931640625;6.90999998255393;692;100 mA;
24.973507936948;-0.699798583984375;-0.0179962158203125;6.91999998252868;693;100 mA;
24.9835079369227;-0.69976806640625;-0.017987060546875;6.92999998250343;694;100 mA;
24.9935079368975;-0.699737548828125;-0.017974853515625;6.93999998247818;695;100 mA;
25.0035079368722;-0.69976806640625;-0.0179718017578125;6.94999998245294;696;100 mA;
25.013507936847;-0.69976806640625;-0.0179595947265625;6.95999998242769;697;100 mA;
25.0235079368217;-0.699798583984375;-0.017962646484375;6.96999998240244;698;100 mA;
25.0335079367965;-0.699798583984375;-0.0179473876953125;6.97999998237719;699;100 mA;
25.0435079367712;-0.699798583984375;-0.0179412841796875;6.98999998235195;700;100 mA;
25.053507936746;-0.699798583984375;-0.017938232421875;6.9999999823267;701;100 mA;
25.0635079367207;-0.69976806640625;-0.0179229736328125;7.00999998230145;702;100 mA;
25.0735079366955;-0.699798583984375;-0.017926025390625;7.0199999822762;703;100 mA;
25.0835079366702;-0.699737548828125;-0.0179168701171875;7.02999998225096;704;100 mA;
25.093507936645;-0.6998291015625;-0.0179046630859375;7.03999998222571;705;100 mA;
25.1035079366197;-0.699798583984375;-0.0179046630859375;7.04999998220046;706;100 mA;
25.1135079365945;-0.69976806640625;-0.017889404296875;7.05999998217521;707;100 mA;
25.1235079365692;-0.699798583984375;-0.0178924560546875;7.06999998214997;708;100 mA;
25.133507936544;-0.699798583984375;-0.0178802490234375;7.07999998212472;709;100 mA;
25.1435079365187;-0.699737548828125;-0.01787109375;7.08999998209947;710;100 mA;
25.1535079364935;-0.6998291015625;-0.017864990234375;7.09999998207422;711;100 mA;
25.1635079364682;-0.6998291015625;-0.017852783203125;7.10999998204898;712;100 mA;
25.173507936443;-0.699798583984375;-0.01785888671875;7.11999998202373;713;100 mA;
25.1835079364178;-0.699737548828125;-0.0178436279296875;7.12999998199848;714;100 mA;
25.1935079363925;-0.69976806640625;-0.0178375244140625;7.13999998197323;715;100 mA;
25.2035079363673;-0.6998291015625;-0.0178314208984375;7.14999998194799;716;100 mA;
25.213507936342;-0.699798583984375;-0.0178192138671875;7.15999998192274;717;100 mA;
25.2235079363168;-0.699798583984375;-0.017822265625;7.16999998189749;718;100 mA;
25.2335079362915;-0.6998291015625;-0.01781005859375;7.17999998187224;719;100 mA;
25.2435079362663;-0.699798583984375;-0.017803955078125;7.189999981847;720;100 mA;
25.253507936241;-0.69976806640625;-0.0178009033203125;7.19999998182175;721;100 mA;
25.2635079362158;-0.699798583984375;-0.01778564453125;7.2099999817965;722;100 mA;
25.2735079361905;-0.699798583984375;-0.0177886962890625;7.21999998177125;723;100 mA;
25.2835079361653;-0.69976806640625;-0.0177764892578125;7.229999981746;724;100 mA;
25.29350793614;-0.69976806640625;-0.0177642822265625;7.23999998172076;725;100 mA;
25.3035079361148;-0.699798583984375;-0.01776123046875;7.24999998169551;726;100 mA;
25.3135079360895;-0.69976806640625;-0.0177520751953125;7.25999998167026;727;100 mA;
25.3235079360643;-0.69976806640625;-0.0177520751953125;7.26999998164501;728;100 mA;
25.333507936039;-0.699798583984375;-0.0177398681640625;7.27999998161977;729;100 mA;
25.3435079360138;-0.699737548828125;-0.0177337646484375;7.28999998159452;730;100 mA;
25.3535079359885;-0.699798583984375;-0.017730712890625;7.29999998156927;731;100 mA;
25.3635079359633;-0.699798583984375;-0.0177154541015625;7.30999998154402;732;100 mA;
25.3735079359381;-0.69976806640625;-0.0177215576171875;7.31999998151878;733;100 mA;
25.3835079359128;-0.6998291015625;-0.0177093505859375;7.32999998149353;734;100 mA;
25.3935079358876;-0.699798583984375;-0.0177032470703125;7.33999998146828;735;100 mA;
25.4035079358623;-0.6998291015625;-0.017694091796875;7.34999998144303;736;100 mA;
25.4135079358371;-0.699798583984375;-0.01768798828125;7.35999998141779;737;100 mA;
25.4235079358118;-0.699798583984375;-0.01768798828125;7.36999998139254;738;100 mA;
25.4335079357866;-0.699798583984375;-0.01767578125;7.37999998136729;739;100 mA;
25.4435079357613;-0.699798583984375;-0.017669677734375;7.38999998134204;740;100 mA;
25.4535079357361;-0.699798583984375;-0.0176666259765625;7.3999999813168;741;100 mA;
25.4635079357108;-0.69976806640625;-0.0176513671875;7.40999998129155;742;100 mA;
25.4735079356856;-0.69976806640625;-0.0176544189453125;7.4199999812663;743;100 mA;
25.4835079356603;-0.69976806640625;-0.017645263671875;7.42999998124105;744;100 mA;
25.4935079356351;-0.699798583984375;-0.0176422119140625;7.43999998121581;745;100 mA;
25.5035079356098;-0.699859619140625;-0.01763916015625;7.44999998119056;746;100 mA;
25.5135079355846;-0.69976806640625;-0.0176239013671875;7.45999998116531;747;100 mA;
25.5235079355593;-0.699798583984375;-0.0176300048828125;7.46999998114006;748;100 mA;
25.5335079355341;-0.699798583984375;-0.0176177978515625;7.47999998111482;749;100 mA;
25.5435079355088;-0.699798583984375;-0.0176116943359375;7.48999998108957;750;100 mA;
25.5535079354836;-0.699798583984375;-0.0176116943359375;7.49999998106432;751;100 mA;
25.5635079354583;-0.699737548828125;-0.017596435546875;7.50999998103907;752;100 mA;
25.5735079354331;-0.69976806640625;-0.0175994873046875;7.51999998101383;753;100 mA;
25.5835079354079;-0.699798583984375;-0.01759033203125;7.52999998098858;754;100 mA;
25.5935079353826;-0.69976806640625;-0.017584228515625;7.53999998096333;755;100 mA;
25.6035079353574;-0.69976806640625;-0.0175811767578125;7.54999998093808;756;100 mA;
25.6135079353321;-0.69976806640625;-0.017572021484375;7.55999998091283;757;100 mA;
25.6235079353069;-0.6998291015625;-0.017578125;7.56999998088759;758;100 mA;
25.6335079352816;-0.69976806640625;-0.0175689697265625;7.57999998086234;759;100 mA;
25.6435079352564;-0.699859619140625;-0.0175628662109375;7.58999998083709;760;100 mA;
25.6535079352311;-0.6998291015625;-0.017559814453125;7.59999998081184;761;100 mA;
25.6635079352059;-0.699798583984375;-0.0175506591796875;7.6099999807866;762;100 mA;
25.6735079351806;-0.69976806640625;-0.017559814453125;7.61999998076135;763;100 mA;
25.6835079351554;-0.699798583984375;-0.0175506591796875;7.6299999807361;764;100 mA;
25.6935079351301;-0.6998291015625;-0.01754150390625;7.63999998071085;765;100 mA;
25.7035079351049;-0.699798583984375;-0.01754150390625;7.64999998068561;766;100 mA;
25.7135079350796;-0.699798583984375;-0.0175323486328125;7.65999998066036;767;100 mA;
25.7235079350544;-0.69970703125;-0.0175384521484375;7.66999998063511;768;100 mA;
25.7335079350291;-0.69976806640625;-0.017529296875;7.67999998060986;769;100 mA;
25.7435079350039;-0.69976806640625;-0.0175262451171875;7.68999998058462;770;100 mA;
25.7535079349786;-0.699798583984375;-0.0175262451171875;7.69999998055937;771;100 mA;
25.7635079349534;-0.699798583984375;-0.0175140380859375;7.70999998053412;772;100 mA;
25.7735079349281;-0.699798583984375;-0.017523193359375;7.71999998050887;773;100 mA;
25.7835079349029;-0.699798583984375;-0.0175140380859375;7.72999998048363;774;100 mA;
25.7935079348777;-0.69976806640625;-0.017510986328125;7.73999998045838;775;100 mA;
25.8035079348524;-0.6998291015625;-0.0175140380859375;7.74999998043313;776;100 mA;
25.8135079348272;-0.699737548828125;-0.0175048828125;7.75999998040788;777;100 mA;
25.8235079348019;-0.699798583984375;-0.017510986328125;7.76999998038264;778;100 mA;
25.8335079347767;-0.699798583984375;-0.0175018310546875;7.77999998035739;779;100 mA;
25.8435079347514;-0.69976806640625;-0.017498779296875;7.78999998033214;780;100 mA;
25.8535079347262;-0.6998291015625;-0.017498779296875;7.79999998030689;781;100 mA;
25.8635079347009;-0.699798583984375;-0.0174896240234375;7.80999998028165;782;100 mA;
25.8735079346757;-0.699798583984375;-0.0174957275390625;7.8199999802564;783;100 mA;
25.8835079346504;-0.69970703125;-0.0174896240234375;7.82999998023115;784;100 mA;
25.8935079346252;-0.69976806640625;-0.017486572265625;7.8399999802059;785;100 mA;
25.9035079345999;-0.69976806640625;-0.017486572265625;7.84999998018066;786;100 mA;
25.9135079345747;-0.699798583984375;-0.01748046875;7.85999998015541;787;100 mA;
25.9235079345494;-0.6998291015625;-0.0174835205078125;7.86999998013016;788;100 mA;
25.9335079345242;-0.69976806640625;-0.0174774169921875;7.87999998010491;789;100 mA;
25.9435079344989;-0.699798583984375;-0.017474365234375;7.88999998007966;790;100 mA;
25.9535079344737;-0.699798583984375;-0.0174774169921875;7.89999998005442;791;100 mA;
25.9635079344484;-0.699798583984375;-0.0174652099609375;7.90999998002917;792;100 mA;
25.9735079344232;-0.699737548828125;-0.0174713134765625;7.91999998000392;793;100 mA;
25.9835079343979;-0.699737548828125;-0.01746826171875;7.92999997997867;794;100 mA;
25.9935079343727;-0.6998291015625;-0.0174591064453125;7.93999997995343;795;100 mA;
26.0035079343475;-0.699737548828125;-0.0174591064453125;7.94999997992818;796;100 mA;
26.0135079343222;-0.699798583984375;-0.017449951171875;7.95999997990293;797;100 mA;
26.023507934297;-0.699737548828125;-0.0174560546875;7.96999997987768;798;100 mA;
26.0335079342717;-0.69976806640625;-0.01744384765625;7.97999997985244;799;100 mA;
26.0435079342465;-0.699859619140625;-0.0174407958984375;7.98999997982719;800;100 mA;
26.0535079342212;-0.6998291015625;-0.0174407958984375;7.99999997980194;801;100 mA;
26.063507934196;-0.69976806640625;-0.017431640625;8.00999997977669;802;100 mA;
26.0735079341707;-0.699798583984375;-0.017437744140625;8.01999997975145;803;100 mA;
26.0835079341455;-0.69976806640625;-0.0174285888671875;8.0299999797262;804;100 mA;
26.0935079341202;-0.699798583984375;-0.0174224853515625;8.03999997970095;805;100 mA;
26.103507934095;-0.699798583984375;-0.0174224853515625;8.0499999796757;806;100 mA;
26.1135079340697;-0.69976806640625;-0.0174163818359375;8.05999997965046;807;100 mA;
26.1235079340445;-0.699798583984375;-0.01741943359375;8.06999997962521;808;100 mA;
26.1335079340192;-0.6998291015625;-0.0174102783203125;8.07999997959996;809;100 mA;
26.143507933994;-0.69976806640625;-0.0174072265625;8.08999997957471;810;100 mA;
26.1535079339687;-0.699798583984375;-0.017401123046875;8.09999997954947;811;100 mA;
26.1635079339435;-0.699798583984375;-0.017388916015625;8.10999997952422;812;100 mA;
26.1735079339182;-0.699798583984375;-0.01739501953125;8.11999997949897;813;100 mA;
26.183507933893;-0.699737548828125;-0.0173858642578125;8.12999997947372;814;100 mA;
26.1935079338677;-0.6998291015625;-0.0173797607421875;8.13999997944848;815;100 mA;
26.2035079338425;-0.699798583984375;-0.0173736572265625;8.14999997942323;816;100 mA;
26.2135079338173;-0.699737548828125;-0.017364501953125;8.15999997939798;817;100 mA;
26.223507933792;-0.699798583984375;-0.0173675537109375;8.16999997937273;818;100 mA;
26.2335079337668;-0.699798583984375;-0.0173553466796875;8.17999997934749;819;100 mA;
26.2435079337415;-0.699737548828125;-0.0173492431640625;8.18999997932224;820;100 mA;
26.2535079337163;-0.69976806640625;-0.0173492431640625;8.19999997929699;821;100 mA;
26.263507933691;-0.699798583984375;-0.017333984375;8.20999997927174;822;100 mA;
26.2735079336658;-0.69976806640625;-0.017340087890625;8.2199999792465;823;100 mA;
26.2835079336405;-0.6998291015625;-0.0173309326171875;8.22999997922125;824;100 mA;
26.2935079336153;-0.699798583984375;-0.0173187255859375;8.239999979196;825;100 mA;
26.30350793359;-0.699798583984375;-0.017315673828125;8.24999997917075;826;100 mA;
26.3135079335648;-0.69976806640625;-0.0173004150390625;8.2599999791455;827;100 mA;
26.3235079335395;-0.69976806640625;-0.017303466796875;8.26999997912026;828;100 mA;
26.3335079335143;-0.699798583984375;-0.017291259765625;8.27999997909501;829;100 mA;
26.343507933489;-0.699798583984375;-0.01728515625;8.28999997906976;830;100 mA;
26.3535079334638;-0.6998291015625;-0.0172821044921875;8.29999997904451;831;100 mA;
26.3635079334385;-0.699737548828125;-0.0172698974609375;8.30999997901927;832;100 mA;
26.3735079334133;-0.699798583984375;-0.0172698974609375;8.31999997899402;833;100 mA;
26.383507933388;-0.69976806640625;-0.0172607421875;8.32999997896877;834;100 mA;
26.3935079333628;-0.6998291015625;-0.017254638671875;8.33999997894352;835;100 mA;
26.4035079333376;-0.69976806640625;-0.0172515869140625;8.34999997891828;836;100 mA;
26.4135079333123;-0.6998291015625;-0.017236328125;8.35999997889303;837;100 mA;
26.4235079332871;-0.6998291015625;-0.017242431640625;8.36999997886778;838;100 mA;
26.4335079332618;-0.6998291015625;-0.017230224609375;8.37999997884253;839;100 mA;
26.4435079332366;-0.699737548828125;-0.01722412109375;8.38999997881729;840;100 mA;
26.4535079332113;-0.69976806640625;-0.0172210693359375;8.39999997879204;841;100 mA;
26.4635079331861;-0.69989013671875;-0.017205810546875;8.40999997876679;842;100 mA;
26.4735079331608;-0.699798583984375;-0.0172119140625;8.41999997874154;843;100 mA;
26.4835079331356;-0.6998291015625;-0.01719970703125;8.4299999787163;844;100 mA;
26.4935079331103;-0.699798583984375;-0.017193603515625;8.43999997869105;845;100 mA;
26.5035079330851;-0.699737548828125;-0.017193603515625;8.4499999786658;846;100 mA;
26.5135079330598;-0.699798583984375;-0.017181396484375;8.45999997864055;847;100 mA;
26.5235079330346;-0.69976806640625;-0.0171844482421875;8.46999997861531;848;100 mA;
26.5335079330093;-0.69976806640625;-0.0171722412109375;8.47999997859006;849;100 mA;
26.5435079329841;-0.699737548828125;-0.0171661376953125;8.48999997856481;850;100 mA;
26.5535079329588;-0.699737548828125;-0.0171661376953125;8.49999997853956;851;100 mA;
26.5635079329336;-0.69976806640625;-0.017156982421875;8.50999997851432;852;100 mA;
26.5735079329083;-0.699798583984375;-0.0171600341796875;8.51999997848907;853;100 mA;
26.5835079328831;-0.69989013671875;-0.01715087890625;8.52999997846382;854;100 mA;
26.5935079328578;-0.6998291015625;-0.0171478271484375;8.53999997843857;855;100 mA;
26.6035079328326;-0.69976806640625;-0.0171478271484375;8.54999997841333;856;100 mA;
26.6135079328074;-0.69976806640625;-0.017138671875;8.55999997838808;857;100 mA;
26.6235079327821;-0.69976806640625;-0.0171417236328125;8.56999997836283;858;100 mA;
26.6335079327569;-0.699737548828125;-0.0171356201171875;8.57999997833758;859;100 mA;
26.6435079327316;-0.699798583984375;-0.017132568359375;8.58999997831233;860;100 mA;
26.6535079327064;-0.699737548828125;-0.0171356201171875;8.59999997828709;861;100 mA;
26.6635079326811;-0.699798583984375;-0.0171295166015625;8.60999997826184;862;100 mA;
26.6735079326559;-0.699798583984375;-0.017138671875;8.61999997823659;863;100 mA;
26.6835079326306;-0.69976806640625;-0.017138671875;8.62999997821134;864;100 mA;
26.6935079326054;-0.69976806640625;-0.017138671875;8.6399999781861;865;100 mA;
26.7035079325801;-0.69976806640625;-0.017144775390625;8.64999997816085;866;100 mA;
26.7135079325549;-0.6998291015625;-0.017144775390625;8.6599999781356;867;100 mA;
26.7235079325296;-0.699737548828125;-0.0171600341796875;8.66999997811035;868;100 mA;
26.7335079325044;-0.699737548828125;-0.017156982421875;8.67999997808511;869;100 mA;
26.7435079324791;-0.699798583984375;-0.0171600341796875;8.68999997805986;870;100 mA;
26.7535079324539;-0.699859619140625;-0.0171722412109375;8.69999997803461;871;100 mA;
26.7635079324286;-0.69976806640625;-0.0171722412109375;8.70999997800936;872;100 mA;
26.7735079324034;-0.699798583984375;-0.0171875;8.71999997798412;873;100 mA;
26.7835079323781;-0.69976806640625;-0.0171905517578125;8.72999997795887;874;100 mA;
26.7935079323529;-0.699737548828125;-0.01719970703125;8.73999997793362;875;100 mA;
26.8035079323276;-0.699737548828125;-0.0172088623046875;8.74999997790837;876;100 mA;
26.8135079323024;-0.69976806640625;-0.0172149658203125;8.75999997788313;877;100 mA;
26.8235079322772;-0.69976806640625;-0.0172332763671875;8.76999997785788;878;100 mA;
26.8335079322519;-0.699737548828125;-0.017236328125;8.77999997783263;879;100 mA;
26.8435079322267;-0.6998291015625;-0.0172454833984375;8.78999997780738;880;100 mA;
26.8535079322014;-0.699798583984375;-0.0172607421875;8.79999997778214;881;100 mA;
26.8635079321762;-0.699737548828125;-0.0172637939453125;8.80999997775689;882;100 mA;
26.8735079321509;-0.69976806640625;-0.0172821044921875;8.81999997773164;883;100 mA;
26.8835079321257;-0.69976806640625;-0.01728515625;8.82999997770639;884;100 mA;
26.8935079321004;-0.69976806640625;-0.017291259765625;8.83999997768115;885;100 mA;
26.9035079320752;-0.6998291015625;-0.0173004150390625;8.8499999776559;886;100 mA;
26.9135079320499;-0.699798583984375;-0.0173004150390625;8.85999997763065;887;100 mA;
26.9235079320247;-0.6998291015625;-0.0173126220703125;8.8699999776054;888;100 mA;
26.9335079319994;-0.699798583984375;-0.017315673828125;8.87999997758016;889;100 mA;
26.9435079319742;-0.69976806640625;-0.0173187255859375;8.88999997755491;890;100 mA;
26.9535079319489;-0.699798583984375;-0.017327880859375;8.89999997752966;891;100 mA;
26.9635079319237;-0.69976806640625;-0.0173248291015625;8.90999997750441;892;100 mA;
26.9735079318984;-0.69976806640625;-0.0173370361328125;8.91999997747916;893;100 mA;
26.9835079318732;-0.699798583984375;-0.0173370361328125;8.92999997745392;894;100 mA;
26.9935079318479;-0.69976806640625;-0.017340087890625;8.93999997742867;895;100 mA;
27.0035079318227;-0.69976806640625;-0.01734619140625;8.94999997740342;896;100 mA;
27.0135079317974;-0.699737548828125;-0.0173431396484375;8.95999997737817;897;100 mA;
27.0235079317722;-0.699798583984375;-0.017352294921875;8.96999997735293;898;100 mA;
27.033507931747;-0.699737548828125;-0.017352294921875;8.97999997732768;899;100 mA;
27.0435079317217;-0.6998291015625;-0.017352294921875;8.98999997730243;900;100 mA;
27.0535079316965;-0.6998291015625;-0.017352294921875;8.99999997727718;901;100 mA;
27.0635079316712;-0.69976806640625;-0.0173492431640625;9.00999997725194;902;100 mA;
27.073507931646;-0.69976806640625;-0.0173553466796875;9.01999997722669;903;100 mA;
27.0835079316207;-0.699798583984375;-0.017352294921875;9.02999997720144;904;100 mA;
27.0935079315955;-0.69976806640625;-0.017352294921875;9.03999997717619;905;100 mA;
27.1035079315702;-0.699737548828125;-0.0173553466796875;9.04999997715095;906;100 mA;
27.113507931545;-0.69976806640625;-0.017352294921875;9.0599999771257;907;100 mA;
27.1235079315197;-0.69976806640625;-0.0173614501953125;9.06999997710045;908;100 mA;
27.1335079314945;-0.69976806640625;-0.0173583984375;9.0799999770752;909;100 mA;
27.1435079314692;-0.699798583984375;-0.0173614501953125;9.08999997704996;910;100 mA;
27.153507931444;-0.699798583984375;-0.017364501953125;9.09999997702471;911;100 mA;
27.1635079314187;-0.699798583984375;-0.017364501953125;9.10999997699946;912;100 mA;
27.1735079313935;-0.69976806640625;-0.0173736572265625;9.11999997697421;913;100 mA;
27.1835079313682;-0.69976806640625;-0.01737060546875;9.12999997694897;914;100 mA;
27.193507931343;-0.6998291015625;-0.0173675537109375;9.13999997692372;915;100 mA;
27.2035079313177;-0.699798583984375;-0.0173736572265625;9.14999997689847;916;100 mA;
27.2135079312925;-0.69976806640625;-0.0173675537109375;9.15999997687322;917;100 mA;
27.2235079312672;-0.69976806640625;-0.0173797607421875;9.16999997684798;918;100 mA;
27.233507931242;-0.69976806640625;-0.0173736572265625;9.17999997682273;919;100 mA;
27.2435079312168;-0.699798583984375;-0.0173736572265625;9.18999997679748;920;100 mA;
27.2535079311915;-0.69976806640625;-0.0173797607421875;9.19999997677223;921;100 mA;
27.2635079311663;-0.69976806640625;-0.017376708984375;9.20999997674699;922;100 mA;
27.273507931141;-0.699798583984375;-0.0173858642578125;9.21999997672174;923;100 mA;
27.2835079311158;-0.69976806640625;-0.0173828125;9.22999997669649;924;100 mA;
27.2935079310905;-0.6998291015625;-0.0173858642578125;9.23999997667124;925;100 mA;
27.3035079310653;-0.69976806640625;-0.0173919677734375;9.249999976646;926;100 mA;
27.31350793104;-0.699737548828125;-0.017388916015625;9.25999997662075;927;100 mA;
27.3235079310148;-0.69976806640625;-0.017401123046875;9.2699999765955;928;100 mA;
27.3335079309895;-0.699798583984375;-0.017401123046875;9.27999997657025;929;100 mA;
27.3435079309643;-0.699737548828125;-0.017401123046875;9.289999976545;930;100 mA;
27.353507930939;-0.6998291015625;-0.0174072265625;9.29999997651976;931;100 mA;
27.3635079309138;-0.699798583984375;-0.0174041748046875;9.30999997649451;932;100 mA;
27.3735079308885;-0.69976806640625;-0.0174163818359375;9.31999997646926;933;100 mA;
27.3835079308633;-0.6998291015625;-0.017413330078125;9.32999997644401;934;100 mA;
27.393507930838;-0.699798583984375;-0.017413330078125;9.33999997641877;935;100 mA;
27.4035079308128;-0.69976806640625;-0.017425537109375;9.34999997639352;936;100 mA;
27.4135079307875;-0.699798583984375;-0.0174224853515625;9.35999997636827;937;100 mA;
27.4235079307623;-0.69976806640625;-0.017437744140625;9.36999997634302;938;100 mA;
27.4335079307371;-0.6998291015625;-0.017437744140625;9.37999997631778;939;100 mA;
27.4435079307118;-0.699859619140625;-0.01744384765625;9.38999997629253;940;100 mA;
27.4535079306866;-0.69976806640625;-0.0174530029296875;9.39999997626728;941;100 mA;
27.4635079306613;-0.69970703125;-0.017449951171875;9.40999997624203;942;100 mA;
27.4735079306361;-0.69976806640625;-0.0174652099609375;9.41999997621679;943;100 mA;
27.4835079306108;-0.69970703125;-0.01746826171875;9.42999997619154;944;100 mA;
27.4935079305856;-0.69976806640625;-0.0174713134765625;9.43999997616629;945;100 mA;
27.5035079305603;-0.699737548828125;-0.0174774169921875;9.44999997614104;946;100 mA;
27.5135079305351;-0.699798583984375;-0.017474365234375;9.4599999761158;947;100 mA;
27.5235079305098;-0.699798583984375;-0.017486572265625;9.46999997609055;948;100 mA;
27.5335079304846;-0.6998291015625;-0.017486572265625;9.4799999760653;949;100 mA;
27.5435079304593;-0.69976806640625;-0.0174896240234375;9.48999997604005;950;100 mA;
27.5535079304341;-0.6998291015625;-0.017498779296875;9.49999997601481;951;100 mA;
27.5635079304088;-0.6998291015625;-0.0174957275390625;9.50999997598956;952;100 mA;
27.5735079303836;-0.699798583984375;-0.017510986328125;9.51999997596431;953;100 mA;
27.5835079303583;-0.6998291015625;-0.017510986328125;9.52999997593906;954;100 mA;
27.5935079303331;-0.699798583984375;-0.01751708984375;9.53999997591382;955;100 mA;
27.6035079303078;-0.699798583984375;-0.0175262451171875;9.54999997588857;956;100 mA;
27.6135079302826;-0.699798583984375;-0.017529296875;9.55999997586332;957;100 mA;
27.6235079302573;-0.69976806640625;-0.0175445556640625;9.56999997583807;958;100 mA;
27.6335079302321;-0.6998291015625;-0.01754150390625;9.57999997581283;959;100 mA;
27.6435079302069;-0.69976806640625;-0.0175445556640625;9.58999997578758;960;100 mA;
27.6535079301816;-0.699798583984375;-0.0175537109375;9.59999997576233;961;100 mA;
27.6635079301564;-0.6998291015625;-0.017547607421875;9.60999997573708;962;100 mA;
27.6735079301311;-0.69976806640625;-0.0175628662109375;9.61999997571183;963;100 mA;
27.6835079301059;-0.6998291015625;-0.017559814453125;9.62999997568659;964;100 mA;
27.6935079300806;-0.699798583984375;-0.0175628662109375;9.63999997566134;965;100 mA;
27.7035079300554;-0.699737548828125;-0.0175689697265625;9.64999997563609;966;100 mA;
27.7135079300301;-0.69976806640625;-0.0175689697265625;9.65999997561084;967;100 mA;
27.7235079300049;-0.699737548828125;-0.0175872802734375;9.6699999755856;968;100 mA;
27.7335079299796;-0.699798583984375;-0.017584228515625;9.67999997556035;969;100 mA;
27.7435079299544;-0.699859619140625;-0.0175872802734375;9.6899999755351;970;100 mA;
27.7535079299291;-0.699737548828125;-0.0175994873046875;9.69999997550985;971;100 mA;
27.7635079299039;-0.69976806640625;-0.0175994873046875;9.70999997548461;972;100 mA;
27.7735079298786;-0.699737548828125;-0.01761474609375;9.71999997545936;973;100 mA;
27.7835079298534;-0.699737548828125;-0.017608642578125;9.72999997543411;974;100 mA;
27.7935079298281;-0.699798583984375;-0.0176177978515625;9.73999997540886;975;100 mA;
27.8035079298029;-0.699737548828125;-0.0176239013671875;9.74999997538362;976;100 mA;
27.8135079297776;-0.699798583984375;-0.0176239013671875;9.75999997535837;977;100 mA;
27.8235079297524;-0.69976806640625;-0.01763916015625;9.76999997533312;978;100 mA;
27.8335079297271;-0.69976806640625;-0.01763916015625;9.77999997530787;979;100 mA;
27.8435079297019;-0.6998291015625;-0.017645263671875;9.78999997528263;980;100 mA;
27.8535079296767;-0.699798583984375;-0.0176544189453125;9.79999997525738;981;100 mA;
27.8635079296514;-0.6998291015625;-0.017657470703125;9.80999997523213;982;100 mA;
27.8735079296262;-0.699798583984375;-0.0176788330078125;9.81999997520688;983;100 mA;
27.8835079296009;-0.699737548828125;-0.0176788330078125;9.82999997518164;984;100 mA;
27.8935079295757;-0.699737548828125;-0.0176910400390625;9.83999997515639;985;100 mA;
27.9035079295504;-0.69976806640625;-0.017706298828125;9.84999997513114;986;100 mA;
27.9135079295252;-0.69976806640625;-0.0177093505859375;9.85999997510589;987;100 mA;
27.9235079294999;-0.699798583984375;-0.0177276611328125;9.86999997508065;988;100 mA;
27.9335079294747;-0.699737548828125;-0.0177337646484375;9.8799999750554;989;100 mA;
27.9435079294494;-0.699737548828125;-0.0177459716796875;9.88999997503015;990;100 mA;
27.9535079294242;-0.69976806640625;-0.01776123046875;9.8999999750049;991;100 mA;
27.9635079293989;-0.699798583984375;-0.01776123046875;9.90999997497966;992;100 mA;
27.9735079293737;-0.69976806640625;-0.0177825927734375;9.91999997495441;993;100 mA;
27.9835079293484;-0.699737548828125;-0.0177825927734375;9.92999997492916;994;100 mA;
27.9935079293232;-0.699798583984375;-0.0177886962890625;9.93999997490391;995;100 mA;
28.0035079292979;-0.699737548828125;-0.017803955078125;9.94999997487866;996;100 mA;
28.0135079292727;-0.699798583984375;-0.017803955078125;9.95999997485342;997;100 mA;
28.0235079292474;-0.69976806640625;-0.0178253173828125;9.96999997482817;998;100 mA;
28.0335079292222;-0.699798583984375;-0.017822265625;9.97999997480292;999;100 mA;
28.0435079291969;-0.699798583984375;-0.0178314208984375;9.98999997477767;1000;100 mA;
