Time (s);WE(1).Potential (V);WE(1).Current (A);Corrected time (s);Index;Current range;Overload
160.180395595583;-0.80078125;-0.371337890625;0;1;100 mA;Current overload
160.190395595558;-0.799560546875;-0.253570556640625;0.00999999997475243;2;100 mA;
160.200395595533;-0.799560546875;-0.204742431640625;0.0199999999495049;3;100 mA;
160.210395595508;-0.799560546875;-0.176116943359375;0.0299999999242573;4;100 mA;
160.220395595482;-0.79925537109375;-0.156829833984375;0.0399999998990097;5;100 mA;
160.230395595457;-0.79986572265625;-0.14276123046875;0.0499999998737621;6;100 mA;
160.240395595432;-0.79925537109375;-0.13189697265625;0.0599999998485146;7;100 mA;
160.250395595407;-0.79925537109375;-0.123199462890625;0.069999999823267;8;100 mA;
160.260395595381;-0.799560546875;-0.115997314453125;0.0799999997980194;9;100 mA;
160.270395595356;-0.79986572265625;-0.10992431640625;0.0899999997727718;10;100 mA;
160.280395595331;-0.799560546875;-0.104736328125;0.0999999997475243;11;100 mA;
160.290395595306;-0.79925537109375;-0.100189208984375;0.109999999722277;12;100 mA;
160.30039559528;-0.799560546875;-0.09619140625;0.119999999697029;13;100 mA;
160.310395595255;-0.799560546875;-0.092620849609375;0.129999999671782;14;100 mA;
160.32039559523;-0.79986572265625;-0.08941650390625;0.139999999646534;15;100 mA;
160.330395595205;-0.79925537109375;-0.0865478515625;0.149999999621286;16;100 mA;
160.340395595179;-0.79925537109375;-0.08392333984375;0.159999999596039;17;100 mA;
160.350395595154;-0.7989501953125;-0.081512451171875;0.169999999570791;18;100 mA;
160.360395595129;-0.79925537109375;-0.079315185546875;0.179999999545544;19;100 mA;
160.370395595104;-0.79925537109375;-0.0772705078125;0.189999999520296;20;100 mA;
160.380395595078;-0.799560546875;-0.075408935546875;0.199999999495049;21;100 mA;
160.390395595053;-0.799560546875;-0.073638916015625;0.209999999469801;22;100 mA;
160.400395595028;-0.799560546875;-0.071990966796875;0.219999999444553;23;100 mA;
160.410395595003;-0.799560546875;-0.070465087890625;0.229999999419306;24;100 mA;
160.420395594977;-0.799560546875;-0.06903076171875;0.239999999394058;25;100 mA;
160.430395594952;-0.799560546875;-0.06768798828125;0.249999999368811;26;100 mA;
160.440395594927;-0.79925537109375;-0.06640625;0.259999999343563;27;100 mA;
160.450395594902;-0.8001708984375;-0.065185546875;0.269999999318316;28;100 mA;
160.460395594876;-0.799560546875;-0.064056396484375;0.279999999293068;29;100 mA;
160.470395594851;-0.79925537109375;-0.062957763671875;0.28999999926782;30;100 mA;
160.480395594826;-0.799560546875;-0.06195068359375;0.299999999242573;31;100 mA;
160.490395594801;-0.79925537109375;-0.060943603515625;0.309999999217325;32;100 mA;
160.500395594775;-0.79986572265625;-0.060028076171875;0.319999999192078;33;100 mA;
160.51039559475;-0.79925537109375;-0.05914306640625;0.32999999916683;34;100 mA;
160.520395594725;-0.79986572265625;-0.058258056640625;0.339999999141583;35;100 mA;
160.5303955947;-0.79986572265625;-0.057464599609375;0.349999999116335;36;100 mA;
160.540395594674;-0.79925537109375;-0.056671142578125;0.359999999091087;37;100 mA;
160.550395594649;-0.79925537109375;-0.055938720703125;0.36999999906584;38;100 mA;
160.560395594624;-0.799560546875;-0.055206298828125;0.379999999040592;39;100 mA;
160.570395594599;-0.799560546875;-0.05450439453125;0.389999999015345;40;100 mA;
160.580395594573;-0.799560546875;-0.053863525390625;0.399999998990097;41;100 mA;
160.590395594548;-0.79925537109375;-0.05322265625;0.40999999896485;42;100 mA;
160.600395594523;-0.799560546875;-0.0526123046875;0.419999998939602;43;100 mA;
160.610395594498;-0.799560546875;-0.052032470703125;0.429999998914354;44;100 mA;
160.620395594472;-0.79925537109375;-0.05145263671875;0.439999998889107;45;100 mA;
160.630395594447;-0.79925537109375;-0.050872802734375;0.449999998863859;46;100 mA;
160.640395594422;-0.799560546875;-0.05035400390625;0.459999998838612;47;100 mA;
160.650395594397;-0.79986572265625;-0.049835205078125;0.469999998813364;48;100 mA;
160.660395594371;-0.7989501953125;-0.0493255615234375;0.479999998788116;49;100 mA;
160.670395594346;-0.799560546875;-0.0488433837890625;0.489999998762869;50;100 mA;
160.680395594321;-0.799560546875;-0.04837646484375;0.499999998737621;51;100 mA;
160.690395594296;-0.799560546875;-0.0479156494140625;0.509999998712374;52;100 mA;
160.700395594271;-0.79986572265625;-0.047491455078125;0.519999998687126;53;100 mA;
160.710395594245;-0.79925537109375;-0.0470550537109375;0.529999998661879;54;100 mA;
160.72039559422;-0.79925537109375;-0.0466400146484375;0.539999998636631;55;100 mA;
160.730395594195;-0.799560546875;-0.046240234375;0.549999998611383;56;100 mA;
160.74039559417;-0.7989501953125;-0.0458465576171875;0.559999998586136;57;100 mA;
160.750395594144;-0.79986572265625;-0.0454681396484375;0.569999998560888;58;100 mA;
160.760395594119;-0.79986572265625;-0.0451019287109375;0.579999998535641;59;100 mA;
160.770395594094;-0.799560546875;-0.0447418212890625;0.589999998510393;60;100 mA;
160.780395594069;-0.799560546875;-0.04439697265625;0.599999998485146;61;100 mA;
160.790395594043;-0.79925537109375;-0.0440521240234375;0.609999998459898;62;100 mA;
160.800395594018;-0.79925537109375;-0.043731689453125;0.61999999843465;63;100 mA;
160.810395593993;-0.799560546875;-0.0433990478515625;0.629999998409403;64;100 mA;
160.820395593968;-0.79986572265625;-0.0430877685546875;0.639999998384155;65;100 mA;
160.830395593942;-0.79925537109375;-0.0427825927734375;0.649999998358908;66;100 mA;
160.840395593917;-0.799560546875;-0.04248046875;0.65999999833366;67;100 mA;
160.850395593892;-0.79925537109375;-0.0422027587890625;0.669999998308413;68;100 mA;
160.860395593867;-0.8001708984375;-0.0419097900390625;0.679999998283165;69;100 mA;
160.870395593841;-0.79925537109375;-0.0416351318359375;0.689999998257917;70;100 mA;
160.880395593816;-0.799560546875;-0.041363525390625;0.69999999823267;71;100 mA;
160.890395593791;-0.799560546875;-0.0410919189453125;0.709999998207422;72;100 mA;
160.900395593766;-0.79986572265625;-0.0408447265625;0.719999998182175;73;100 mA;
160.91039559374;-0.79925537109375;-0.04058837890625;0.729999998156927;74;100 mA;
160.920395593715;-0.79925537109375;-0.0403350830078125;0.73999999813168;75;100 mA;
160.93039559369;-0.79986572265625;-0.04010009765625;0.749999998106432;76;100 mA;
160.940395593665;-0.79925537109375;-0.039862060546875;0.759999998081184;77;100 mA;
160.950395593639;-0.79925537109375;-0.03963623046875;0.769999998055937;78;100 mA;
160.960395593614;-0.799560546875;-0.0394073486328125;0.779999998030689;79;100 mA;
160.970395593589;-0.79986572265625;-0.0391845703125;0.789999998005442;80;100 mA;
160.980395593564;-0.7989501953125;-0.0389678955078125;0.799999997980194;81;100 mA;
160.990395593538;-0.79986572265625;-0.0387542724609375;0.809999997954947;82;100 mA;
161.000395593513;-0.799560546875;-0.0385498046875;0.819999997929699;83;100 mA;
161.010395593488;-0.79986572265625;-0.0383392333984375;0.829999997904451;84;100 mA;
161.020395593463;-0.79925537109375;-0.038140869140625;0.839999997879204;85;100 mA;
161.030395593437;-0.799560546875;-0.037945556640625;0.849999997853956;86;100 mA;
161.040395593412;-0.79986572265625;-0.037750244140625;0.859999997828709;87;100 mA;
161.050395593387;-0.79925537109375;-0.0375701904296875;0.869999997803461;88;100 mA;
161.060395593362;-0.799560546875;-0.037384033203125;0.879999997778214;89;100 mA;
161.070395593336;-0.799560546875;-0.037200927734375;0.889999997752966;90;100 mA;
161.080395593311;-0.799560546875;-0.037017822265625;0.899999997727718;91;100 mA;
161.090395593286;-0.79925537109375;-0.0368408203125;0.909999997702471;92;100 mA;
161.100395593261;-0.79925537109375;-0.036676025390625;0.919999997677223;93;100 mA;
161.110395593235;-0.799560546875;-0.03651123046875;0.929999997651976;94;100 mA;
161.12039559321;-0.79925537109375;-0.03634033203125;0.939999997626728;95;100 mA;
161.130395593185;-0.799560546875;-0.0361785888671875;0.949999997601481;96;100 mA;
161.14039559316;-0.799560546875;-0.036016845703125;0.959999997576233;97;100 mA;
161.150395593134;-0.799560546875;-0.0358673095703125;0.969999997550985;98;100 mA;
161.160395593109;-0.79925537109375;-0.0357147216796875;0.979999997525738;99;100 mA;
161.170395593084;-0.799560546875;-0.035552978515625;0.98999999750049;100;100 mA;
161.180395593059;-0.79925537109375;-0.0354156494140625;0.999999997475243;101;100 mA;
161.190395593033;-0.799560546875;-0.0352691650390625;1.00999999745;102;100 mA;
161.200395593008;-0.799560546875;-0.0351318359375;1.01999999742475;103;100 mA;
161.210395592983;-0.799560546875;-0.0349945068359375;1.0299999973995;104;100 mA;
161.220395592958;-0.799560546875;-0.0348541259765625;1.03999999737425;105;100 mA;
161.230395592932;-0.79925537109375;-0.0347198486328125;1.049999997349;106;100 mA;
161.240395592907;-0.79925537109375;-0.0345855712890625;1.05999999732376;107;100 mA;
161.250395592882;-0.79986572265625;-0.03446044921875;1.06999999729851;108;100 mA;
161.260395592857;-0.79986572265625;-0.0343292236328125;1.07999999727326;109;100 mA;
161.270395592831;-0.79925537109375;-0.0342041015625;1.08999999724801;110;100 mA;
161.280395592806;-0.799560546875;-0.0340728759765625;1.09999999722277;111;100 mA;
161.290395592781;-0.79925537109375;-0.0339569091796875;1.10999999719752;112;100 mA;
161.300395592756;-0.79986572265625;-0.033837890625;1.11999999717227;113;100 mA;
161.31039559273;-0.79925537109375;-0.0337127685546875;1.12999999714702;114;100 mA;
161.320395592705;-0.8001708984375;-0.03359375;1.13999999712178;115;100 mA;
161.33039559268;-0.79925537109375;-0.03348388671875;1.14999999709653;116;100 mA;
161.340395592655;-0.7989501953125;-0.033367919921875;1.15999999707128;117;100 mA;
161.350395592629;-0.7989501953125;-0.033258056640625;1.16999999704603;118;100 mA;
161.360395592604;-0.799560546875;-0.0331451416015625;1.17999999702079;119;100 mA;
161.370395592579;-0.79925537109375;-0.0330291748046875;1.18999999699554;120;100 mA;
161.380395592554;-0.79925537109375;-0.03292236328125;1.19999999697029;121;100 mA;
161.390395592528;-0.79925537109375;-0.0328155517578125;1.20999999694504;122;100 mA;
161.400395592503;-0.79925537109375;-0.032708740234375;1.2199999969198;123;100 mA;
161.410395592478;-0.799560546875;-0.0325958251953125;1.22999999689455;124;100 mA;
161.420395592453;-0.79925537109375;-0.0324920654296875;1.2399999968693;125;100 mA;
161.430395592427;-0.799560546875;-0.0323883056640625;1.24999999684405;126;100 mA;
161.440395592402;-0.7989501953125;-0.032281494140625;1.25999999681881;127;100 mA;
161.450395592377;-0.79925537109375;-0.032183837890625;1.26999999679356;128;100 mA;
161.460395592352;-0.799560546875;-0.0320770263671875;1.27999999676831;129;100 mA;
161.470395592326;-0.79925537109375;-0.031976318359375;1.28999999674306;130;100 mA;
161.480395592301;-0.79986572265625;-0.031884765625;1.29999999671782;131;100 mA;
161.490395592276;-0.79986572265625;-0.0317840576171875;1.30999999669257;132;100 mA;
161.500395592251;-0.799560546875;-0.031695556640625;1.31999999666732;133;100 mA;
161.510395592225;-0.799560546875;-0.0315948486328125;1.32999999664207;134;100 mA;
161.5203955922;-0.79925537109375;-0.0315032958984375;1.33999999661683;135;100 mA;
161.530395592175;-0.79925537109375;-0.0314117431640625;1.34999999659158;136;100 mA;
161.54039559215;-0.79925537109375;-0.0313140869140625;1.35999999656633;137;100 mA;
161.550395592124;-0.79864501953125;-0.0312255859375;1.36999999654108;138;100 mA;
161.560395592099;-0.79925537109375;-0.0311309814453125;1.37999999651583;139;100 mA;
161.570395592074;-0.79925537109375;-0.031036376953125;1.38999999649059;140;100 mA;
161.580395592049;-0.799560546875;-0.030950927734375;1.39999999646534;141;100 mA;
161.590395592023;-0.799560546875;-0.030859375;1.40999999644009;142;100 mA;
161.600395591998;-0.799560546875;-0.0307769775390625;1.41999999641484;143;100 mA;
161.610395591973;-0.799560546875;-0.0306884765625;1.4299999963896;144;100 mA;
161.620395591948;-0.79925537109375;-0.0305999755859375;1.43999999636435;145;100 mA;
161.630395591922;-0.799560546875;-0.0305267333984375;1.4499999963391;146;100 mA;
161.640395591897;-0.79925537109375;-0.0304351806640625;1.45999999631385;147;100 mA;
161.650395591872;-0.799560546875;-0.0303619384765625;1.46999999628861;148;100 mA;
161.660395591847;-0.799560546875;-0.0302764892578125;1.47999999626336;149;100 mA;
161.670395591821;-0.79925537109375;-0.030194091796875;1.48999999623811;150;100 mA;
161.680395591796;-0.799560546875;-0.0301177978515625;1.49999999621286;151;100 mA;
161.690395591771;-0.79925537109375;-0.030035400390625;1.50999999618762;152;100 mA;
161.700395591746;-0.79925537109375;-0.0299591064453125;1.51999999616237;153;100 mA;
161.71039559172;-0.79986572265625;-0.02987060546875;1.52999999613712;154;100 mA;
161.720395591695;-0.799560546875;-0.0297943115234375;1.53999999611187;155;100 mA;
161.73039559167;-0.799560546875;-0.029718017578125;1.54999999608663;156;100 mA;
161.740395591645;-0.799560546875;-0.0296356201171875;1.55999999606138;157;100 mA;
161.75039559162;-0.799560546875;-0.0295654296875;1.56999999603613;158;100 mA;
161.760395591594;-0.79925537109375;-0.0294830322265625;1.57999999601088;159;100 mA;
161.770395591569;-0.7989501953125;-0.02940673828125;1.58999999598564;160;100 mA;
161.780395591544;-0.799560546875;-0.0293365478515625;1.59999999596039;161;100 mA;
161.790395591519;-0.799560546875;-0.0292694091796875;1.60999999593514;162;100 mA;
161.800395591493;-0.799560546875;-0.02919921875;1.61999999590989;163;100 mA;
161.810395591468;-0.799560546875;-0.0291229248046875;1.62999999588465;164;100 mA;
161.820395591443;-0.8001708984375;-0.029052734375;1.6399999958594;165;100 mA;
161.830395591418;-0.799560546875;-0.0289825439453125;1.64999999583415;166;100 mA;
161.840395591392;-0.799560546875;-0.028912353515625;1.6599999958089;167;100 mA;
161.850395591367;-0.79986572265625;-0.0288482666015625;1.66999999578366;168;100 mA;
161.860395591342;-0.799560546875;-0.0287689208984375;1.67999999575841;169;100 mA;
161.870395591317;-0.79925537109375;-0.02869873046875;1.68999999573316;170;100 mA;
161.880395591291;-0.799560546875;-0.0286346435546875;1.69999999570791;171;100 mA;
161.890395591266;-0.799560546875;-0.028564453125;1.70999999568267;172;100 mA;
161.900395591241;-0.799560546875;-0.028509521484375;1.71999999565742;173;100 mA;
161.910395591216;-0.79925537109375;-0.02843017578125;1.72999999563217;174;100 mA;
161.92039559119;-0.799560546875;-0.028369140625;1.73999999560692;175;100 mA;
161.930395591165;-0.799560546875;-0.0283172607421875;1.74999999558167;176;100 mA;
161.94039559114;-0.799560546875;-0.028253173828125;1.75999999555643;177;100 mA;
161.950395591115;-0.799560546875;-0.0282012939453125;1.76999999553118;178;100 mA;
161.960395591089;-0.799560546875;-0.028131103515625;1.77999999550593;179;100 mA;
161.970395591064;-0.799560546875;-0.028076171875;1.78999999548068;180;100 mA;
161.980395591039;-0.799560546875;-0.0280181884765625;1.79999999545544;181;100 mA;
161.990395591014;-0.79925537109375;-0.0279541015625;1.80999999543019;182;100 mA;
162.000395590988;-0.799560546875;-0.027899169921875;1.81999999540494;183;100 mA;
162.010395590963;-0.799560546875;-0.027838134765625;1.82999999537969;184;100 mA;
162.020395590938;-0.799560546875;-0.0277801513671875;1.83999999535445;185;100 mA;
162.030395590913;-0.79986572265625;-0.027728271484375;1.8499999953292;186;100 mA;
162.040395590887;-0.79986572265625;-0.0276763916015625;1.85999999530395;187;100 mA;
162.050395590862;-0.79925537109375;-0.0276275634765625;1.8699999952787;188;100 mA;
162.060395590837;-0.79986572265625;-0.0275726318359375;1.87999999525346;189;100 mA;
162.070395590812;-0.799560546875;-0.0275238037109375;1.88999999522821;190;100 mA;
162.080395590786;-0.799560546875;-0.0274810791015625;1.89999999520296;191;100 mA;
162.090395590761;-0.79986572265625;-0.0274322509765625;1.90999999517771;192;100 mA;
162.100395590736;-0.7989501953125;-0.027392578125;1.91999999515247;193;100 mA;
162.110395590711;-0.79986572265625;-0.0273406982421875;1.92999999512722;194;100 mA;
162.120395590685;-0.799560546875;-0.027294921875;1.93999999510197;195;100 mA;
162.13039559066;-0.79986572265625;-0.027252197265625;1.94999999507672;196;100 mA;
162.140395590635;-0.7989501953125;-0.0272003173828125;1.95999999505148;197;100 mA;
162.15039559061;-0.799560546875;-0.0271636962890625;1.96999999502623;198;100 mA;
162.160395590584;-0.79986572265625;-0.027105712890625;1.97999999500098;199;100 mA;
162.170395590559;-0.79925537109375;-0.02706298828125;1.98999999497573;200;100 mA;
162.180395590534;-0.799560546875;-0.0270233154296875;1.99999999495049;201;100 mA;
162.190395590509;-0.79986572265625;-0.0269775390625;2.00999999492524;202;100 mA;
162.200395590483;-0.799560546875;-0.0269439697265625;2.01999999489999;203;100 mA;
162.210395590458;-0.79986572265625;-0.0268951416015625;2.02999999487474;204;100 mA;
162.220395590433;-0.79925537109375;-0.0268646240234375;2.0399999948495;205;100 mA;
162.230395590408;-0.79986572265625;-0.0268341064453125;2.04999999482425;206;100 mA;
162.240395590382;-0.799560546875;-0.0267913818359375;2.059999994799;207;100 mA;
162.250395590357;-0.799560546875;-0.0267669677734375;2.06999999477375;208;100 mA;
162.260395590332;-0.799560546875;-0.0267333984375;2.0799999947485;209;100 mA;
162.270395590307;-0.79925537109375;-0.0267059326171875;2.08999999472326;210;100 mA;
162.280395590281;-0.799560546875;-0.026678466796875;2.09999999469801;211;100 mA;
162.290395590256;-0.79986572265625;-0.0266448974609375;2.10999999467276;212;100 mA;
162.300395590231;-0.799560546875;-0.0266204833984375;2.11999999464751;213;100 mA;
162.310395590206;-0.799560546875;-0.026580810546875;2.12999999462227;214;100 mA;
162.32039559018;-0.799560546875;-0.0265625;2.13999999459702;215;100 mA;
162.330395590155;-0.799560546875;-0.0265380859375;2.14999999457177;216;100 mA;
162.34039559013;-0.799560546875;-0.0265045166015625;2.15999999454652;217;100 mA;
162.350395590105;-0.799560546875;-0.0264862060546875;2.16999999452128;218;100 mA;
162.360395590079;-0.7989501953125;-0.0264556884765625;2.17999999449603;219;100 mA;
162.370395590054;-0.79925537109375;-0.0264373779296875;2.18999999447078;220;100 mA;
162.380395590029;-0.79986572265625;-0.026416015625;2.19999999444553;221;100 mA;
162.390395590004;-0.79925537109375;-0.0263946533203125;2.20999999442029;222;100 mA;
162.400395589978;-0.799560546875;-0.0263763427734375;2.21999999439504;223;100 mA;
162.410395589953;-0.799560546875;-0.0263427734375;2.22999999436979;224;100 mA;
162.420395589928;-0.79925537109375;-0.026324462890625;2.23999999434454;225;100 mA;
162.430395589903;-0.79925537109375;-0.0263031005859375;2.2499999943193;226;100 mA;
162.440395589877;-0.799560546875;-0.0262725830078125;2.25999999429405;227;100 mA;
162.450395589852;-0.799560546875;-0.0262542724609375;2.2699999942688;228;100 mA;
162.460395589827;-0.799560546875;-0.0262176513671875;2.27999999424355;229;100 mA;
162.470395589802;-0.79925537109375;-0.0261993408203125;2.28999999421831;230;100 mA;
162.480395589776;-0.799560546875;-0.0261810302734375;2.29999999419306;231;100 mA;
162.490395589751;-0.799560546875;-0.026153564453125;2.30999999416781;232;100 mA;
162.500395589726;-0.79925537109375;-0.02613525390625;2.31999999414256;233;100 mA;
162.510395589701;-0.799560546875;-0.02611083984375;2.32999999411732;234;100 mA;
162.520395589675;-0.799560546875;-0.0260986328125;2.33999999409207;235;100 mA;
162.53039558965;-0.799560546875;-0.0260772705078125;2.34999999406682;236;100 mA;
162.540395589625;-0.79925537109375;-0.0260589599609375;2.35999999404157;237;100 mA;
162.5503955896;-0.79925537109375;-0.0260467529296875;2.36999999401633;238;100 mA;
162.560395589574;-0.79925537109375;-0.026019287109375;2.37999999399108;239;100 mA;
162.570395589549;-0.799560546875;-0.0260040283203125;2.38999999396583;240;100 mA;
162.580395589524;-0.79986572265625;-0.02598876953125;2.39999999394058;241;100 mA;
162.590395589499;-0.799560546875;-0.02596435546875;2.40999999391533;242;100 mA;
162.600395589473;-0.799560546875;-0.025946044921875;2.41999999389009;243;100 mA;
162.610395589448;-0.7989501953125;-0.0259246826171875;2.42999999386484;244;100 mA;
162.620395589423;-0.79986572265625;-0.0259063720703125;2.43999999383959;245;100 mA;
162.630395589398;-0.79925537109375;-0.0258941650390625;2.44999999381434;246;100 mA;
162.640395589372;-0.799560546875;-0.0258697509765625;2.4599999937891;247;100 mA;
162.650395589347;-0.799560546875;-0.025860595703125;2.46999999376385;248;100 mA;
162.660395589322;-0.799560546875;-0.0258453369140625;2.4799999937386;249;100 mA;
162.670395589297;-0.79925537109375;-0.0258270263671875;2.48999999371335;250;100 mA;
162.680395589271;-0.79925537109375;-0.02581787109375;2.49999999368811;251;100 mA;
162.690395589246;-0.79986572265625;-0.0258026123046875;2.50999999366286;252;100 mA;
162.700395589221;-0.79925537109375;-0.02579345703125;2.51999999363761;253;100 mA;
162.710395589196;-0.79925537109375;-0.0257720947265625;2.52999999361236;254;100 mA;
162.72039558917;-0.799560546875;-0.025762939453125;2.53999999358712;255;100 mA;
162.730395589145;-0.79925537109375;-0.0257537841796875;2.54999999356187;256;100 mA;
162.74039558912;-0.799560546875;-0.0257293701171875;2.55999999353662;257;100 mA;
162.750395589095;-0.799560546875;-0.0257232666015625;2.56999999351137;258;100 mA;
162.76039558907;-0.79925537109375;-0.0256988525390625;2.57999999348613;259;100 mA;
162.770395589044;-0.799560546875;-0.02568359375;2.58999999346088;260;100 mA;
162.780395589019;-0.799560546875;-0.0256744384765625;2.59999999343563;261;100 mA;
162.790395588994;-0.7989501953125;-0.0256561279296875;2.60999999341038;262;100 mA;
162.800395588969;-0.79925537109375;-0.02564697265625;2.61999999338514;263;100 mA;
162.810395588943;-0.799560546875;-0.025628662109375;2.62999999335989;264;100 mA;
162.820395588918;-0.79925537109375;-0.0256195068359375;2.63999999333464;265;100 mA;
162.830395588893;-0.79986572265625;-0.025604248046875;2.64999999330939;266;100 mA;
162.840395588868;-0.79925537109375;-0.0255859375;2.65999999328415;267;100 mA;
162.850395588842;-0.79925537109375;-0.02557373046875;2.6699999932589;268;100 mA;
162.860395588817;-0.7989501953125;-0.0255584716796875;2.67999999323365;269;100 mA;
162.870395588792;-0.799560546875;-0.025537109375;2.6899999932084;270;100 mA;
162.880395588767;-0.799560546875;-0.0255157470703125;2.69999999318316;271;100 mA;
162.890395588741;-0.79925537109375;-0.0254913330078125;2.70999999315791;272;100 mA;
162.900395588716;-0.799560546875;-0.025482177734375;2.71999999313266;273;100 mA;
162.910395588691;-0.799560546875;-0.0254486083984375;2.72999999310741;274;100 mA;
162.920395588666;-0.799560546875;-0.025433349609375;2.73999999308217;275;100 mA;
162.93039558864;-0.799560546875;-0.0254180908203125;2.74999999305692;276;100 mA;
162.940395588615;-0.799560546875;-0.0253875732421875;2.75999999303167;277;100 mA;
162.95039558859;-0.799560546875;-0.0253692626953125;2.76999999300642;278;100 mA;
162.960395588565;-0.799560546875;-0.025341796875;2.77999999298117;279;100 mA;
162.970395588539;-0.79925537109375;-0.025323486328125;2.78999999295593;280;100 mA;
162.980395588514;-0.799560546875;-0.02530517578125;2.79999999293068;281;100 mA;
162.990395588489;-0.79925537109375;-0.0252838134765625;2.80999999290543;282;100 mA;
163.000395588464;-0.799560546875;-0.0252655029296875;2.81999999288018;283;100 mA;
163.010395588438;-0.799560546875;-0.02523193359375;2.82999999285494;284;100 mA;
163.020395588413;-0.799560546875;-0.02520751953125;2.83999999282969;285;100 mA;
163.030395588388;-0.799560546875;-0.02518310546875;2.84999999280444;286;100 mA;
163.040395588363;-0.799560546875;-0.0251495361328125;2.85999999277919;287;100 mA;
163.050395588337;-0.799560546875;-0.02513427734375;2.86999999275395;288;100 mA;
163.060395588312;-0.79925537109375;-0.0251007080078125;2.8799999927287;289;100 mA;
163.070395588287;-0.79986572265625;-0.0250732421875;2.88999999270345;290;100 mA;
163.080395588262;-0.79925537109375;-0.025048828125;2.8999999926782;291;100 mA;
163.090395588236;-0.79986572265625;-0.0250152587890625;2.90999999265296;292;100 mA;
163.100395588211;-0.79925537109375;-0.0249969482421875;2.91999999262771;293;100 mA;
163.110395588186;-0.79925537109375;-0.02496337890625;2.92999999260246;294;100 mA;
163.120395588161;-0.79925537109375;-0.0249420166015625;2.93999999257721;295;100 mA;
163.130395588135;-0.79925537109375;-0.02491455078125;2.94999999255197;296;100 mA;
163.14039558811;-0.7989501953125;-0.024884033203125;2.95999999252672;297;100 mA;
163.150395588085;-0.79925537109375;-0.0248687744140625;2.96999999250147;298;100 mA;
163.16039558806;-0.799560546875;-0.0248291015625;2.97999999247622;299;100 mA;
163.170395588034;-0.799560546875;-0.0248016357421875;2.98999999245098;300;100 mA;
163.180395588009;-0.7989501953125;-0.0247772216796875;2.99999999242573;301;100 mA;
163.190395587984;-0.799560546875;-0.02474365234375;3.00999999240048;302;100 mA;
163.200395587959;-0.79925537109375;-0.0247222900390625;3.01999999237523;303;100 mA;
163.210395587933;-0.79986572265625;-0.0246795654296875;3.02999999234999;304;100 mA;
163.220395587908;-0.799560546875;-0.0246551513671875;3.03999999232474;305;100 mA;
163.230395587883;-0.79986572265625;-0.024627685546875;3.04999999229949;306;100 mA;
163.240395587858;-0.799560546875;-0.024591064453125;3.05999999227424;307;100 mA;
163.250395587832;-0.79986572265625;-0.02457275390625;3.069999992249;308;100 mA;
163.260395587807;-0.799560546875;-0.0245391845703125;3.07999999222375;309;100 mA;
163.270395587782;-0.79925537109375;-0.0245208740234375;3.0899999921985;310;100 mA;
163.280395587757;-0.799560546875;-0.0244903564453125;3.09999999217325;311;100 mA;
163.290395587731;-0.79986572265625;-0.024462890625;3.109999992148;312;100 mA;
163.300395587706;-0.79925537109375;-0.0244384765625;3.11999999212276;313;100 mA;
163.310395587681;-0.799560546875;-0.0244049072265625;3.12999999209751;314;100 mA;
163.320395587656;-0.79925537109375;-0.0243743896484375;3.13999999207226;315;100 mA;
163.33039558763;-0.79925537109375;-0.024346923828125;3.14999999204701;316;100 mA;
163.340395587605;-0.799560546875;-0.0243133544921875;3.15999999202177;317;100 mA;
163.35039558758;-0.79986572265625;-0.0242950439453125;3.16999999199652;318;100 mA;
163.360395587555;-0.79925537109375;-0.02425537109375;3.17999999197127;319;100 mA;
163.370395587529;-0.79925537109375;-0.0242279052734375;3.18999999194602;320;100 mA;
163.380395587504;-0.79925537109375;-0.0242034912109375;3.19999999192078;321;100 mA;
163.390395587479;-0.799560546875;-0.024169921875;3.20999999189553;322;100 mA;
163.400395587454;-0.79986572265625;-0.024151611328125;3.21999999187028;323;100 mA;
163.410395587428;-0.799560546875;-0.0241180419921875;3.22999999184503;324;100 mA;
163.420395587403;-0.79986572265625;-0.0240997314453125;3.23999999181979;325;100 mA;
163.430395587378;-0.799560546875;-0.024072265625;3.24999999179454;326;100 mA;
163.440395587353;-0.79925537109375;-0.0240447998046875;3.25999999176929;327;100 mA;
163.450395587327;-0.799560546875;-0.0240234375;3.26999999174404;328;100 mA;
163.460395587302;-0.79925537109375;-0.02398681640625;3.2799999917188;329;100 mA;
163.470395587277;-0.79925537109375;-0.02396240234375;3.28999999169355;330;100 mA;
163.480395587252;-0.79925537109375;-0.0239410400390625;3.2999999916683;331;100 mA;
163.490395587226;-0.79986572265625;-0.0239044189453125;3.30999999164305;332;100 mA;
163.500395587201;-0.799560546875;-0.0238861083984375;3.31999999161781;333;100 mA;
163.510395587176;-0.79925537109375;-0.0238494873046875;3.32999999159256;334;100 mA;
163.520395587151;-0.79986572265625;-0.023828125;3.33999999156731;335;100 mA;
163.530395587125;-0.799560546875;-0.0238006591796875;3.34999999154206;336;100 mA;
163.5403955871;-0.7989501953125;-0.0237762451171875;3.35999999151682;337;100 mA;
163.550395587075;-0.799560546875;-0.0237548828125;3.36999999149157;338;100 mA;
163.56039558705;-0.79925537109375;-0.0237274169921875;3.37999999146632;339;100 mA;
163.570395587024;-0.799560546875;-0.0237060546875;3.38999999144107;340;100 mA;
163.580395586999;-0.799560546875;-0.0236846923828125;3.39999999141583;341;100 mA;
163.590395586974;-0.799560546875;-0.0236602783203125;3.40999999139058;342;100 mA;
163.600395586949;-0.7989501953125;-0.0236419677734375;3.41999999136533;343;100 mA;
163.610395586923;-0.799560546875;-0.0236053466796875;3.42999999134008;344;100 mA;
163.620395586898;-0.799560546875;-0.0235870361328125;3.43999999131483;345;100 mA;
163.630395586873;-0.79986572265625;-0.0235595703125;3.44999999128959;346;100 mA;
163.640395586848;-0.79986572265625;-0.023529052734375;3.45999999126434;347;100 mA;
163.650395586822;-0.79986572265625;-0.0235137939453125;3.46999999123909;348;100 mA;
163.660395586797;-0.79925537109375;-0.023480224609375;3.47999999121384;349;100 mA;
163.670395586772;-0.799560546875;-0.0234588623046875;3.4899999911886;350;100 mA;
163.680395586747;-0.79925537109375;-0.023431396484375;3.49999999116335;351;100 mA;
163.690395586721;-0.799560546875;-0.0234130859375;3.5099999911381;352;100 mA;
163.700395586696;-0.799560546875;-0.0233978271484375;3.51999999111285;353;100 mA;
163.710395586671;-0.79986572265625;-0.0233642578125;3.52999999108761;354;100 mA;
163.720395586646;-0.79986572265625;-0.023345947265625;3.53999999106236;355;100 mA;
163.73039558662;-0.799560546875;-0.02332763671875;3.54999999103711;356;100 mA;
163.740395586595;-0.79925537109375;-0.0233001708984375;3.55999999101186;357;100 mA;
163.75039558657;-0.799560546875;-0.0232818603515625;3.56999999098662;358;100 mA;
163.760395586545;-0.79986572265625;-0.0232574462890625;3.57999999096137;359;100 mA;
163.770395586519;-0.799560546875;-0.023236083984375;3.58999999093612;360;100 mA;
163.780395586494;-0.799560546875;-0.023211669921875;3.59999999091087;361;100 mA;
163.790395586469;-0.7989501953125;-0.023187255859375;3.60999999088563;362;100 mA;
163.800395586444;-0.79986572265625;-0.0231719970703125;3.61999999086038;363;100 mA;
163.810395586419;-0.799560546875;-0.02314453125;3.62999999083513;364;100 mA;
163.820395586393;-0.79925537109375;-0.0231170654296875;3.63999999080988;365;100 mA;
163.830395586368;-0.79986572265625;-0.023101806640625;3.64999999078464;366;100 mA;
163.840395586343;-0.79986572265625;-0.0230804443359375;3.65999999075939;367;100 mA;
163.850395586318;-0.79925537109375;-0.0230712890625;3.66999999073414;368;100 mA;
163.860395586292;-0.79925537109375;-0.0230438232421875;3.67999999070889;369;100 mA;
163.870395586267;-0.799560546875;-0.0230224609375;3.68999999068365;370;100 mA;
163.880395586242;-0.799560546875;-0.02301025390625;3.6999999906584;371;100 mA;
163.890395586217;-0.799560546875;-0.0229888916015625;3.70999999063315;372;100 mA;
163.900395586191;-0.8001708984375;-0.0229736328125;3.7199999906079;373;100 mA;
163.910395586166;-0.799560546875;-0.02294921875;3.72999999058266;374;100 mA;
163.920395586141;-0.79925537109375;-0.0229248046875;3.73999999055741;375;100 mA;
163.930395586116;-0.799560546875;-0.02291259765625;3.74999999053216;376;100 mA;
163.94039558609;-0.799560546875;-0.0228851318359375;3.75999999050691;377;100 mA;
163.950395586065;-0.79925537109375;-0.0228729248046875;3.76999999048167;378;100 mA;
163.96039558604;-0.79925537109375;-0.0228515625;3.77999999045642;379;100 mA;
163.970395586015;-0.799560546875;-0.0228363037109375;3.78999999043117;380;100 mA;
163.980395585989;-0.7989501953125;-0.0228240966796875;3.79999999040592;381;100 mA;
163.990395585964;-0.799560546875;-0.022808837890625;3.80999999038067;382;100 mA;
164.000395585939;-0.7989501953125;-0.022796630859375;3.81999999035543;383;100 mA;
164.010395585914;-0.799560546875;-0.0227752685546875;3.82999999033018;384;100 mA;
164.020395585888;-0.799560546875;-0.02276611328125;3.83999999030493;385;100 mA;
164.030395585863;-0.799560546875;-0.0227569580078125;3.84999999027968;386;100 mA;
164.040395585838;-0.799560546875;-0.022735595703125;3.85999999025444;387;100 mA;
164.050395585813;-0.799560546875;-0.0227264404296875;3.86999999022919;388;100 mA;
164.060395585787;-0.79925537109375;-0.0227081298828125;3.87999999020394;389;100 mA;
164.070395585762;-0.79925537109375;-0.0226898193359375;3.88999999017869;390;100 mA;
164.080395585737;-0.799560546875;-0.0226806640625;3.89999999015345;391;100 mA;
164.090395585712;-0.799560546875;-0.0226593017578125;3.9099999901282;392;100 mA;
164.100395585686;-0.79986572265625;-0.0226531982421875;3.91999999010295;393;100 mA;
164.110395585661;-0.79925537109375;-0.0226287841796875;3.9299999900777;394;100 mA;
164.120395585636;-0.799560546875;-0.0226226806640625;3.93999999005246;395;100 mA;
164.130395585611;-0.799560546875;-0.022613525390625;3.94999999002721;396;100 mA;
164.140395585585;-0.79986572265625;-0.022601318359375;3.95999999000196;397;100 mA;
164.15039558556;-0.799560546875;-0.02259521484375;3.96999998997671;398;100 mA;
164.160395585535;-0.799560546875;-0.0225830078125;3.97999998995147;399;100 mA;
164.17039558551;-0.79986572265625;-0.0225738525390625;3.98999998992622;400;100 mA;
164.180395585484;-0.799560546875;-0.0225677490234375;3.99999998990097;401;100 mA;
164.190395585459;-0.79925537109375;-0.022552490234375;4.00999998987572;402;100 mA;
164.200395585434;-0.8001708984375;-0.022552490234375;4.01999998985048;403;100 mA;
164.210395585409;-0.799560546875;-0.022528076171875;4.02999998982523;404;100 mA;
164.220395585383;-0.7989501953125;-0.02252197265625;4.03999998979998;405;100 mA;
164.230395585358;-0.79986572265625;-0.0225128173828125;4.04999998977473;406;100 mA;
164.240395585333;-0.799560546875;-0.022503662109375;4.05999998974949;407;100 mA;
164.250395585308;-0.79925537109375;-0.02249755859375;4.06999998972424;408;100 mA;
164.260395585282;-0.79925537109375;-0.0224853515625;4.07999998969899;409;100 mA;
164.270395585257;-0.7989501953125;-0.0224853515625;4.08999998967374;410;100 mA;
164.280395585232;-0.79925537109375;-0.0224822998046875;4.0999999896485;411;100 mA;
164.290395585207;-0.799560546875;-0.0224700927734375;4.10999998962325;412;100 mA;
164.300395585181;-0.79986572265625;-0.0224761962890625;4.119999989598;413;100 mA;
164.310395585156;-0.79986572265625;-0.0224639892578125;4.12999998957275;414;100 mA;
164.320395585131;-0.799560546875;-0.0224700927734375;4.1399999895475;415;100 mA;
164.330395585106;-0.799560546875;-0.0224609375;4.14999998952226;416;100 mA;
164.34039558508;-0.799560546875;-0.0224609375;4.15999998949701;417;100 mA;
164.350395585055;-0.799560546875;-0.0224609375;4.16999998947176;418;100 mA;
164.36039558503;-0.799560546875;-0.02244873046875;4.17999998944651;419;100 mA;
164.370395585005;-0.79925537109375;-0.0224456787109375;4.18999998942127;420;100 mA;
164.380395584979;-0.8001708984375;-0.0224456787109375;4.19999998939602;421;100 mA;
164.390395584954;-0.799560546875;-0.0224395751953125;4.20999998937077;422;100 mA;
164.400395584929;-0.799560546875;-0.0224456787109375;4.21999998934552;423;100 mA;
164.410395584904;-0.79986572265625;-0.0224334716796875;4.22999998932028;424;100 mA;
164.420395584878;-0.799560546875;-0.022442626953125;4.23999998929503;425;100 mA;
164.430395584853;-0.79925537109375;-0.022442626953125;4.24999998926978;426;100 mA;
164.440395584828;-0.799560546875;-0.0224517822265625;4.25999998924453;427;100 mA;
164.450395584803;-0.799560546875;-0.022454833984375;4.26999998921929;428;100 mA;
164.460395584777;-0.799560546875;-0.02244873046875;4.27999998919404;429;100 mA;
164.470395584752;-0.799560546875;-0.022467041015625;4.28999998916879;430;100 mA;
164.480395584727;-0.799560546875;-0.02247314453125;4.29999998914354;431;100 mA;
164.490395584702;-0.79986572265625;-0.0224700927734375;4.3099999891183;432;100 mA;
164.500395584676;-0.79925537109375;-0.0224853515625;4.31999998909305;433;100 mA;
164.510395584651;-0.799560546875;-0.022479248046875;4.3299999890678;434;100 mA;
164.520395584626;-0.799560546875;-0.022491455078125;4.33999998904255;435;100 mA;
164.530395584601;-0.79925537109375;-0.0225006103515625;4.34999998901731;436;100 mA;
164.540395584575;-0.79986572265625;-0.0225006103515625;4.35999998899206;437;100 mA;
164.55039558455;-0.79925537109375;-0.022515869140625;4.36999998896681;438;100 mA;
164.560395584525;-0.79986572265625;-0.0225189208984375;4.37999998894156;439;100 mA;
164.5703955845;-0.79925537109375;-0.0225341796875;4.38999998891632;440;100 mA;
164.580395584474;-0.799560546875;-0.022552490234375;4.39999998889107;441;100 mA;
164.590395584449;-0.79925537109375;-0.0225616455078125;4.40999998886582;442;100 mA;
164.600395584424;-0.79925537109375;-0.0225799560546875;4.41999998884057;443;100 mA;
164.610395584399;-0.79986572265625;-0.022589111328125;4.42999998881533;444;100 mA;
164.620395584373;-0.7989501953125;-0.02261962890625;4.43999998879008;445;100 mA;
164.630395584348;-0.79925537109375;-0.0226348876953125;4.44999998876483;446;100 mA;
164.640395584323;-0.799560546875;-0.022650146484375;4.45999998873958;447;100 mA;
164.650395584298;-0.79925537109375;-0.02266845703125;4.46999998871433;448;100 mA;
164.660395584272;-0.799560546875;-0.0226837158203125;4.47999998868909;449;100 mA;
164.670395584247;-0.7989501953125;-0.0227081298828125;4.48999998866384;450;100 mA;
164.680395584222;-0.799560546875;-0.0227294921875;4.49999998863859;451;100 mA;
164.690395584197;-0.799560546875;-0.02275390625;4.50999998861334;452;100 mA;
164.700395584171;-0.79925537109375;-0.0227783203125;4.5199999885881;453;100 mA;
164.710395584146;-0.79986572265625;-0.0227996826171875;4.52999998856285;454;100 mA;
164.720395584121;-0.799560546875;-0.0228271484375;4.5399999885376;455;100 mA;
164.730395584096;-0.79986572265625;-0.0228546142578125;4.54999998851235;456;100 mA;
164.74039558407;-0.79925537109375;-0.0228759765625;4.55999998848711;457;100 mA;
164.750395584045;-0.799560546875;-0.022906494140625;4.56999998846186;458;100 mA;
164.76039558402;-0.799560546875;-0.0229248046875;4.57999998843661;459;100 mA;
164.770395583995;-0.799560546875;-0.022955322265625;4.58999998841136;460;100 mA;
164.780395583969;-0.799560546875;-0.0229766845703125;4.59999998838612;461;100 mA;
164.790395583944;-0.799560546875;-0.02298583984375;4.60999998836087;462;100 mA;
164.800395583919;-0.799560546875;-0.0230072021484375;4.61999998833562;463;100 mA;
164.810395583894;-0.799560546875;-0.023016357421875;4.62999998831037;464;100 mA;
164.820395583869;-0.79925537109375;-0.0230316162109375;4.63999998828513;465;100 mA;
164.830395583843;-0.79925537109375;-0.0230438232421875;4.64999998825988;466;100 mA;
164.840395583818;-0.79925537109375;-0.0230560302734375;4.65999998823463;467;100 mA;
164.850395583793;-0.79925537109375;-0.0230682373046875;4.66999998820938;468;100 mA;
164.860395583768;-0.79925537109375;-0.0230743408203125;4.67999998818414;469;100 mA;
164.870395583742;-0.7989501953125;-0.0230926513671875;4.68999998815889;470;100 mA;
164.880395583717;-0.79986572265625;-0.023101806640625;4.69999998813364;471;100 mA;
164.890395583692;-0.79925537109375;-0.023114013671875;4.70999998810839;472;100 mA;
164.900395583667;-0.799560546875;-0.0231231689453125;4.71999998808315;473;100 mA;
164.910395583641;-0.799560546875;-0.023126220703125;4.7299999880579;474;100 mA;
164.920395583616;-0.79925537109375;-0.023138427734375;4.73999998803265;475;100 mA;
164.930395583591;-0.799560546875;-0.0231414794921875;4.7499999880074;476;100 mA;
164.940395583566;-0.799560546875;-0.0231475830078125;4.75999998798216;477;100 mA;
164.95039558354;-0.799560546875;-0.023150634765625;4.76999998795691;478;100 mA;
164.960395583515;-0.799560546875;-0.023150634765625;4.77999998793166;479;100 mA;
164.97039558349;-0.79925537109375;-0.02315673828125;4.78999998790641;480;100 mA;
164.980395583465;-0.799560546875;-0.023162841796875;4.79999998788116;481;100 mA;
164.990395583439;-0.79925537109375;-0.02315673828125;4.80999998785592;482;100 mA;
165.000395583414;-0.79864501953125;-0.0231689453125;4.81999998783067;483;100 mA;
165.010395583389;-0.7989501953125;-0.0231658935546875;4.82999998780542;484;100 mA;
165.020395583364;-0.79925537109375;-0.023175048828125;4.83999998778017;485;100 mA;
165.030395583338;-0.79925537109375;-0.0231842041015625;4.84999998775493;486;100 mA;
165.040395583313;-0.799560546875;-0.023187255859375;4.85999998772968;487;100 mA;
165.050395583288;-0.799560546875;-0.0231964111328125;4.86999998770443;488;100 mA;
165.060395583263;-0.79925537109375;-0.0231964111328125;4.87999998767918;489;100 mA;
165.070395583237;-0.7989501953125;-0.02320556640625;4.88999998765394;490;100 mA;
165.080395583212;-0.799560546875;-0.0232086181640625;4.89999998762869;491;100 mA;
165.090395583187;-0.79925537109375;-0.023211669921875;4.90999998760344;492;100 mA;
165.100395583162;-0.79925537109375;-0.023211669921875;4.91999998757819;493;100 mA;
165.110395583136;-0.79986572265625;-0.0232086181640625;4.92999998755295;494;100 mA;
165.120395583111;-0.799560546875;-0.023223876953125;4.9399999875277;495;100 mA;
165.130395583086;-0.79986572265625;-0.0232177734375;4.94999998750245;496;100 mA;
165.140395583061;-0.799560546875;-0.0232208251953125;4.9599999874772;497;100 mA;
165.150395583035;-0.79925537109375;-0.0232330322265625;4.96999998745196;498;100 mA;
165.16039558301;-0.799560546875;-0.0232330322265625;4.97999998742671;499;100 mA;
165.170395582985;-0.79925537109375;-0.0232421875;4.98999998740146;500;100 mA;
165.18039558296;-0.79986572265625;-0.0232513427734375;4.99999998737621;501;100 mA;
165.190395582934;-0.79925537109375;-0.02325439453125;5.00999998735097;502;100 mA;
165.200395582909;-0.79925537109375;-0.023260498046875;5.01999998732572;503;100 mA;
165.210395582884;-0.799560546875;-0.0232635498046875;5.02999998730047;504;100 mA;
165.220395582859;-0.7989501953125;-0.0232696533203125;5.03999998727522;505;100 mA;
165.230395582833;-0.79925537109375;-0.0232696533203125;5.04999998724998;506;100 mA;
165.240395582808;-0.799560546875;-0.0232666015625;5.05999998722473;507;100 mA;
165.250395582783;-0.799560546875;-0.023272705078125;5.06999998719948;508;100 mA;
165.260395582758;-0.799560546875;-0.023272705078125;5.07999998717423;509;100 mA;
165.270395582732;-0.799560546875;-0.0232757568359375;5.08999998714899;510;100 mA;
165.280395582707;-0.79925537109375;-0.023272705078125;5.09999998712374;511;100 mA;
165.290395582682;-0.79925537109375;-0.0232666015625;5.10999998709849;512;100 mA;
165.300395582657;-0.799560546875;-0.0232757568359375;5.11999998707324;513;100 mA;
165.310395582631;-0.79925537109375;-0.02327880859375;5.129999987048;514;100 mA;
165.320395582606;-0.79986572265625;-0.023284912109375;5.13999998702275;515;100 mA;
165.330395582581;-0.799560546875;-0.023284912109375;5.1499999869975;516;100 mA;
165.340395582556;-0.79986572265625;-0.0232879638671875;5.15999998697225;517;100 mA;
165.35039558253;-0.79925537109375;-0.023291015625;5.169999986947;518;100 mA;
165.360395582505;-0.79986572265625;-0.0232879638671875;5.17999998692176;519;100 mA;
165.37039558248;-0.79986572265625;-0.023291015625;5.18999998689651;520;100 mA;
165.380395582455;-0.799560546875;-0.023291015625;5.19999998687126;521;100 mA;
165.390395582429;-0.799560546875;-0.023284912109375;5.20999998684601;522;100 mA;
165.400395582404;-0.79925537109375;-0.023284912109375;5.21999998682077;523;100 mA;
165.410395582379;-0.79986572265625;-0.02327880859375;5.22999998679552;524;100 mA;
165.420395582354;-0.799560546875;-0.0232818603515625;5.23999998677027;525;100 mA;
165.430395582328;-0.7989501953125;-0.0232757568359375;5.24999998674502;526;100 mA;
165.440395582303;-0.799560546875;-0.0232757568359375;5.25999998671978;527;100 mA;
165.450395582278;-0.7989501953125;-0.02327880859375;5.26999998669453;528;100 mA;
165.460395582253;-0.7989501953125;-0.0232666015625;5.27999998666928;529;100 mA;
165.470395582227;-0.79925537109375;-0.02327880859375;5.28999998664403;530;100 mA;
165.480395582202;-0.799560546875;-0.0232757568359375;5.29999998661879;531;100 mA;
165.490395582177;-0.799560546875;-0.023272705078125;5.30999998659354;532;100 mA;
165.500395582152;-0.79925537109375;-0.0232757568359375;5.31999998656829;533;100 mA;
165.510395582126;-0.79925537109375;-0.0232635498046875;5.32999998654304;534;100 mA;
165.520395582101;-0.79925537109375;-0.023272705078125;5.3399999865178;535;100 mA;
165.530395582076;-0.799560546875;-0.023260498046875;5.34999998649255;536;100 mA;
165.540395582051;-0.79925537109375;-0.0232574462890625;5.3599999864673;537;100 mA;
165.550395582025;-0.79925537109375;-0.0232513427734375;5.36999998644205;538;100 mA;
165.560395582;-0.799560546875;-0.0232513427734375;5.37999998641681;539;100 mA;
165.570395581975;-0.799560546875;-0.0232452392578125;5.38999998639156;540;100 mA;
165.58039558195;-0.799560546875;-0.0232421875;5.39999998636631;541;100 mA;
165.590395581924;-0.79925537109375;-0.0232330322265625;5.40999998634106;542;100 mA;
165.600395581899;-0.79925537109375;-0.023236083984375;5.41999998631582;543;100 mA;
165.610395581874;-0.79925537109375;-0.02322998046875;5.42999998629057;544;100 mA;
165.620395581849;-0.8001708984375;-0.0232330322265625;5.43999998626532;545;100 mA;
165.630395581823;-0.79986572265625;-0.0232269287109375;5.44999998624007;546;100 mA;
165.640395581798;-0.79986572265625;-0.023223876953125;5.45999998621483;547;100 mA;
165.650395581773;-0.79986572265625;-0.0232208251953125;5.46999998618958;548;100 mA;
165.660395581748;-0.799560546875;-0.02320556640625;5.47999998616433;549;100 mA;
165.670395581722;-0.799560546875;-0.0232147216796875;5.48999998613908;550;100 mA;
165.680395581697;-0.799560546875;-0.02320556640625;5.49999998611383;551;100 mA;
165.690395581672;-0.799560546875;-0.0231964111328125;5.50999998608859;552;100 mA;
165.700395581647;-0.799560546875;-0.0231964111328125;5.51999998606334;553;100 mA;
165.710395581621;-0.79925537109375;-0.023187255859375;5.52999998603809;554;100 mA;
165.720395581596;-0.7989501953125;-0.0231842041015625;5.53999998601284;555;100 mA;
165.730395581571;-0.79925537109375;-0.0231842041015625;5.5499999859876;556;100 mA;
165.740395581546;-0.79925537109375;-0.023175048828125;5.55999998596235;557;100 mA;
165.75039558152;-0.799560546875;-0.0231781005859375;5.5699999859371;558;100 mA;
165.760395581495;-0.79925537109375;-0.0231658935546875;5.57999998591185;559;100 mA;
165.77039558147;-0.79864501953125;-0.0231719970703125;5.58999998588661;560;100 mA;
165.780395581445;-0.79925537109375;-0.0231689453125;5.59999998586136;561;100 mA;
165.790395581419;-0.799560546875;-0.0231658935546875;5.60999998583611;562;100 mA;
165.800395581394;-0.7989501953125;-0.023162841796875;5.61999998581086;563;100 mA;
165.810395581369;-0.79986572265625;-0.023150634765625;5.62999998578562;564;100 mA;
165.820395581344;-0.799560546875;-0.02315673828125;5.63999998576037;565;100 mA;
165.830395581318;-0.799560546875;-0.0231475830078125;5.64999998573512;566;100 mA;
165.840395581293;-0.799560546875;-0.0231414794921875;5.65999998570987;567;100 mA;
165.850395581268;-0.799560546875;-0.0231414794921875;5.66999998568463;568;100 mA;
165.860395581243;-0.8001708984375;-0.0231292724609375;5.67999998565938;569;100 mA;
165.870395581218;-0.799560546875;-0.02313232421875;5.68999998563413;570;100 mA;
165.880395581192;-0.79925537109375;-0.0231231689453125;5.69999998560888;571;100 mA;
165.890395581167;-0.79925537109375;-0.0231201171875;5.70999998558364;572;100 mA;
165.900395581142;-0.799560546875;-0.0231231689453125;5.71999998555839;573;100 mA;
165.910395581117;-0.799560546875;-0.02310791015625;5.72999998553314;574;100 mA;
165.920395581091;-0.79986572265625;-0.0231170654296875;5.73999998550789;575;100 mA;
165.930395581066;-0.799560546875;-0.02310791015625;5.74999998548265;576;100 mA;
165.940395581041;-0.8001708984375;-0.0231048583984375;5.7599999854574;577;100 mA;
165.950395581016;-0.799560546875;-0.0231048583984375;5.76999998543215;578;100 mA;
165.96039558099;-0.799560546875;-0.0230926513671875;5.7799999854069;579;100 mA;
165.970395580965;-0.79986572265625;-0.0230987548828125;5.78999998538166;580;100 mA;
165.98039558094;-0.79925537109375;-0.0230926513671875;5.79999998535641;581;100 mA;
165.990395580915;-0.799560546875;-0.023089599609375;5.80999998533116;582;100 mA;
166.000395580889;-0.79925537109375;-0.02308349609375;5.81999998530591;583;100 mA;
166.010395580864;-0.79986572265625;-0.0230743408203125;5.82999998528066;584;100 mA;
166.020395580839;-0.79925537109375;-0.023077392578125;5.83999998525542;585;100 mA;
166.030395580814;-0.799560546875;-0.0230712890625;5.84999998523017;586;100 mA;
166.040395580788;-0.799560546875;-0.023065185546875;5.85999998520492;587;100 mA;
166.050395580763;-0.799560546875;-0.023065185546875;5.86999998517967;588;100 mA;
166.060395580738;-0.79925537109375;-0.02305908203125;5.87999998515443;589;100 mA;
166.070395580713;-0.79925537109375;-0.023065185546875;5.88999998512918;590;100 mA;
166.080395580687;-0.799560546875;-0.0230621337890625;5.89999998510393;591;100 mA;
166.090395580662;-0.79925537109375;-0.0230560302734375;5.90999998507868;592;100 mA;
166.100395580637;-0.79925537109375;-0.02305908203125;5.91999998505344;593;100 mA;
166.110395580612;-0.79986572265625;-0.023052978515625;5.92999998502819;594;100 mA;
166.120395580586;-0.799560546875;-0.02305908203125;5.93999998500294;595;100 mA;
166.130395580561;-0.799560546875;-0.0230560302734375;5.94999998497769;596;100 mA;
166.140395580536;-0.799560546875;-0.0230499267578125;5.95999998495245;597;100 mA;
166.150395580511;-0.79925537109375;-0.0230499267578125;5.9699999849272;598;100 mA;
166.160395580485;-0.799560546875;-0.0230438232421875;5.97999998490195;599;100 mA;
166.17039558046;-0.7989501953125;-0.0230499267578125;5.9899999848767;600;100 mA;
166.180395580435;-0.79925537109375;-0.023046875;5.99999998485146;601;100 mA;
166.19039558041;-0.79925537109375;-0.023040771484375;6.00999998482621;602;100 mA;
166.200395580384;-0.799560546875;-0.0230499267578125;6.01999998480096;603;100 mA;
166.210395580359;-0.79925537109375;-0.023040771484375;6.02999998477571;604;100 mA;
166.220395580334;-0.79986572265625;-0.023046875;6.03999998475047;605;100 mA;
166.230395580309;-0.79986572265625;-0.023046875;6.04999998472522;606;100 mA;
166.240395580283;-0.79925537109375;-0.0230499267578125;6.05999998469997;607;100 mA;
166.250395580258;-0.799560546875;-0.023046875;6.06999998467472;608;100 mA;
166.260395580233;-0.799560546875;-0.0230438232421875;6.07999998464948;609;100 mA;
166.270395580208;-0.79925537109375;-0.023052978515625;6.08999998462423;610;100 mA;
166.280395580182;-0.79986572265625;-0.023046875;6.09999998459898;611;100 mA;
166.290395580157;-0.79986572265625;-0.023040771484375;6.10999998457373;612;100 mA;
166.300395580132;-0.79925537109375;-0.0230438232421875;6.11999998454849;613;100 mA;
166.310395580107;-0.79986572265625;-0.0230316162109375;6.12999998452324;614;100 mA;
166.320395580081;-0.79925537109375;-0.0230377197265625;6.13999998449799;615;100 mA;
166.330395580056;-0.79925537109375;-0.0230438232421875;6.14999998447274;616;100 mA;
166.340395580031;-0.79925537109375;-0.02303466796875;6.1599999844475;617;100 mA;
166.350395580006;-0.799560546875;-0.023040771484375;6.16999998442225;618;100 mA;
166.36039557998;-0.79925537109375;-0.02303466796875;6.179999984397;619;100 mA;
166.370395579955;-0.8001708984375;-0.0230377197265625;6.18999998437175;620;100 mA;
166.38039557993;-0.79986572265625;-0.023040771484375;6.1999999843465;621;100 mA;
166.390395579905;-0.79925537109375;-0.0230377197265625;6.20999998432126;622;100 mA;
166.400395579879;-0.79925537109375;-0.023040771484375;6.21999998429601;623;100 mA;
166.410395579854;-0.79925537109375;-0.023028564453125;6.22999998427076;624;100 mA;
166.420395579829;-0.79925537109375;-0.023040771484375;6.23999998424551;625;100 mA;
166.430395579804;-0.79925537109375;-0.02303466796875;6.24999998422027;626;100 mA;
166.440395579778;-0.799560546875;-0.0230316162109375;6.25999998419502;627;100 mA;
166.450395579753;-0.79925537109375;-0.0230316162109375;6.26999998416977;628;100 mA;
166.460395579728;-0.79925537109375;-0.0230224609375;6.27999998414452;629;100 mA;
166.470395579703;-0.799560546875;-0.0230255126953125;6.28999998411928;630;100 mA;
166.480395579677;-0.7989501953125;-0.0230255126953125;6.29999998409403;631;100 mA;
166.490395579652;-0.799560546875;-0.023016357421875;6.30999998406878;632;100 mA;
166.500395579627;-0.79925537109375;-0.0230224609375;6.31999998404353;633;100 mA;
166.510395579602;-0.79925537109375;-0.023016357421875;6.32999998401829;634;100 mA;
166.520395579576;-0.7989501953125;-0.0230224609375;6.33999998399304;635;100 mA;
166.530395579551;-0.79925537109375;-0.023016357421875;6.34999998396779;636;100 mA;
166.540395579526;-0.799560546875;-0.023016357421875;6.35999998394254;637;100 mA;
166.550395579501;-0.79986572265625;-0.0230194091796875;6.3699999839173;638;100 mA;
166.560395579475;-0.799560546875;-0.0230072021484375;6.37999998389205;639;100 mA;
166.57039557945;-0.79925537109375;-0.023016357421875;6.3899999838668;640;100 mA;
166.580395579425;-0.799560546875;-0.0230133056640625;6.39999998384155;641;100 mA;
166.5903955794;-0.79925537109375;-0.0230010986328125;6.40999998381631;642;100 mA;
166.600395579374;-0.79986572265625;-0.0230072021484375;6.41999998379106;643;100 mA;
166.610395579349;-0.799560546875;-0.0230010986328125;6.42999998376581;644;100 mA;
166.620395579324;-0.79925537109375;-0.023004150390625;6.43999998374056;645;100 mA;
166.630395579299;-0.799560546875;-0.022998046875;6.44999998371532;646;100 mA;
166.640395579273;-0.799560546875;-0.0229949951171875;6.45999998369007;647;100 mA;
166.650395579248;-0.79986572265625;-0.022998046875;6.46999998366482;648;100 mA;
166.660395579223;-0.799560546875;-0.0229949951171875;6.47999998363957;649;100 mA;
166.670395579198;-0.79986572265625;-0.022998046875;6.48999998361433;650;100 mA;
166.680395579172;-0.79925537109375;-0.023004150390625;6.49999998358908;651;100 mA;
166.690395579147;-0.79925537109375;-0.0229949951171875;6.50999998356383;652;100 mA;
166.700395579122;-0.79925537109375;-0.0230010986328125;6.51999998353858;653;100 mA;
166.710395579097;-0.799560546875;-0.022998046875;6.52999998351333;654;100 mA;
166.720395579071;-0.8001708984375;-0.0230072021484375;6.53999998348809;655;100 mA;
166.730395579046;-0.799560546875;-0.023004150390625;6.54999998346284;656;100 mA;
166.740395579021;-0.79925537109375;-0.023004150390625;6.55999998343759;657;100 mA;
166.750395578996;-0.799560546875;-0.0230133056640625;6.56999998341234;658;100 mA;
166.76039557897;-0.7989501953125;-0.0230072021484375;6.5799999833871;659;100 mA;
166.770395578945;-0.79925537109375;-0.0230224609375;6.58999998336185;660;100 mA;
166.78039557892;-0.79986572265625;-0.0230194091796875;6.5999999833366;661;100 mA;
166.790395578895;-0.799560546875;-0.0230194091796875;6.60999998331135;662;100 mA;
166.800395578869;-0.799560546875;-0.0230316162109375;6.61999998328611;663;100 mA;
166.810395578844;-0.8001708984375;-0.023028564453125;6.62999998326086;664;100 mA;
166.820395578819;-0.79925537109375;-0.023046875;6.63999998323561;665;100 mA;
166.830395578794;-0.79925537109375;-0.023052978515625;6.64999998321036;666;100 mA;
166.840395578768;-0.79986572265625;-0.023052978515625;6.65999998318512;667;100 mA;
166.850395578743;-0.79925537109375;-0.0230621337890625;6.66999998315987;668;100 mA;
166.860395578718;-0.79864501953125;-0.023065185546875;6.67999998313462;669;100 mA;
166.870395578693;-0.799560546875;-0.023077392578125;6.68999998310937;670;100 mA;
166.880395578668;-0.79986572265625;-0.02308349609375;6.69999998308413;671;100 mA;
166.890395578642;-0.799560546875;-0.023089599609375;6.70999998305888;672;100 mA;
166.900395578617;-0.799560546875;-0.0230987548828125;6.71999998303363;673;100 mA;
166.910395578592;-0.799560546875;-0.0230987548828125;6.72999998300838;674;100 mA;
166.920395578567;-0.8001708984375;-0.0231170654296875;6.73999998298314;675;100 mA;
166.930395578541;-0.7989501953125;-0.0231231689453125;6.74999998295789;676;100 mA;
166.940395578516;-0.799560546875;-0.0231292724609375;6.75999998293264;677;100 mA;
166.950395578491;-0.79986572265625;-0.0231414794921875;6.76999998290739;678;100 mA;
166.960395578466;-0.79925537109375;-0.02314453125;6.77999998288215;679;100 mA;
166.97039557844;-0.79986572265625;-0.02315673828125;6.7899999828569;680;100 mA;
166.980395578415;-0.799560546875;-0.023162841796875;6.79999998283165;681;100 mA;
166.99039557839;-0.79925537109375;-0.0231719970703125;6.8099999828064;682;100 mA;
167.000395578365;-0.79986572265625;-0.0231842041015625;6.81999998278116;683;100 mA;
167.010395578339;-0.79986572265625;-0.02318115234375;6.82999998275591;684;100 mA;
167.020395578314;-0.799560546875;-0.023193359375;6.83999998273066;685;100 mA;
167.030395578289;-0.79925537109375;-0.0231964111328125;6.84999998270541;686;100 mA;
167.040395578264;-0.799560546875;-0.0231964111328125;6.85999998268016;687;100 mA;
167.050395578238;-0.799560546875;-0.02320556640625;6.86999998265492;688;100 mA;
167.060395578213;-0.8001708984375;-0.02320556640625;6.87999998262967;689;100 mA;
167.070395578188;-0.799560546875;-0.0232177734375;6.88999998260442;690;100 mA;
167.080395578163;-0.799560546875;-0.0232177734375;6.89999998257917;691;100 mA;
167.090395578137;-0.79986572265625;-0.0232208251953125;6.90999998255393;692;100 mA;
167.100395578112;-0.799560546875;-0.02322998046875;6.91999998252868;693;100 mA;
167.110395578087;-0.79925537109375;-0.0232269287109375;6.92999998250343;694;100 mA;
167.120395578062;-0.79925537109375;-0.0232421875;6.93999998247818;695;100 mA;
167.130395578036;-0.7989501953125;-0.023248291015625;6.94999998245294;696;100 mA;
167.140395578011;-0.79925537109375;-0.023248291015625;6.95999998242769;697;100 mA;
167.150395577986;-0.799560546875;-0.0232574462890625;6.96999998240244;698;100 mA;
167.160395577961;-0.79925537109375;-0.0232574462890625;6.97999998237719;699;100 mA;
167.170395577935;-0.799560546875;-0.0232696533203125;6.98999998235195;700;100 mA;
167.18039557791;-0.799560546875;-0.023272705078125;6.9999999823267;701;100 mA;
167.190395577885;-0.79864501953125;-0.0232757568359375;7.00999998230145;702;100 mA;
167.20039557786;-0.79986572265625;-0.0232879638671875;7.0199999822762;703;100 mA;
167.210395577834;-0.8001708984375;-0.023291015625;7.02999998225096;704;100 mA;
167.220395577809;-0.799560546875;-0.02330322265625;7.03999998222571;705;100 mA;
167.230395577784;-0.799560546875;-0.0233062744140625;7.04999998220046;706;100 mA;
167.240395577759;-0.799560546875;-0.0233154296875;7.05999998217521;707;100 mA;
167.250395577733;-0.79925537109375;-0.023321533203125;7.06999998214997;708;100 mA;
167.260395577708;-0.79986572265625;-0.0233245849609375;7.07999998212472;709;100 mA;
167.270395577683;-0.79925537109375;-0.023333740234375;7.08999998209947;710;100 mA;
167.280395577658;-0.79986572265625;-0.02333984375;7.09999998207422;711;100 mA;
167.290395577632;-0.79986572265625;-0.02333984375;7.10999998204898;712;100 mA;
167.300395577607;-0.799560546875;-0.0233489990234375;7.11999998202373;713;100 mA;
167.310395577582;-0.79986572265625;-0.0233428955078125;7.12999998199848;714;100 mA;
167.320395577557;-0.79925537109375;-0.0233551025390625;7.13999998197323;715;100 mA;
167.330395577531;-0.79925537109375;-0.0233551025390625;7.14999998194799;716;100 mA;
167.340395577506;-0.79986572265625;-0.0233551025390625;7.15999998192274;717;100 mA;
167.350395577481;-0.8001708984375;-0.0233612060546875;7.16999998189749;718;100 mA;
167.360395577456;-0.799560546875;-0.0233612060546875;7.17999998187224;719;100 mA;
167.37039557743;-0.79925537109375;-0.023370361328125;7.189999981847;720;100 mA;
167.380395577405;-0.799560546875;-0.0233642578125;7.19999998182175;721;100 mA;
167.39039557738;-0.7989501953125;-0.0233673095703125;7.2099999817965;722;100 mA;
167.400395577355;-0.79986572265625;-0.0233673095703125;7.21999998177125;723;100 mA;
167.410395577329;-0.79986572265625;-0.0233673095703125;7.229999981746;724;100 mA;
167.420395577304;-0.799560546875;-0.02337646484375;7.23999998172076;725;100 mA;
167.430395577279;-0.799560546875;-0.0233734130859375;7.24999998169551;726;100 mA;
167.440395577254;-0.799560546875;-0.02337646484375;7.25999998167026;727;100 mA;
167.450395577228;-0.79986572265625;-0.0233795166015625;7.26999998164501;728;100 mA;
167.460395577203;-0.799560546875;-0.0233795166015625;7.27999998161977;729;100 mA;
167.470395577178;-0.79925537109375;-0.02337646484375;7.28999998159452;730;100 mA;
167.480395577153;-0.79925537109375;-0.02337646484375;7.29999998156927;731;100 mA;
167.490395577127;-0.79925537109375;-0.0233734130859375;7.30999998154402;732;100 mA;
167.500395577102;-0.7989501953125;-0.023370361328125;7.31999998151878;733;100 mA;
167.510395577077;-0.799560546875;-0.0233673095703125;7.32999998149353;734;100 mA;
167.520395577052;-0.79925537109375;-0.023370361328125;7.33999998146828;735;100 mA;
167.530395577026;-0.799560546875;-0.0233612060546875;7.34999998144303;736;100 mA;
167.540395577001;-0.799560546875;-0.023358154296875;7.35999998141779;737;100 mA;
167.550395576976;-0.79986572265625;-0.0233612060546875;7.36999998139254;738;100 mA;
167.560395576951;-0.79925537109375;-0.0233489990234375;7.37999998136729;739;100 mA;
167.570395576925;-0.799560546875;-0.02335205078125;7.38999998134204;740;100 mA;
167.5803955769;-0.79925537109375;-0.02335205078125;7.3999999813168;741;100 mA;
167.590395576875;-0.799560546875;-0.0233428955078125;7.40999998129155;742;100 mA;
167.60039557685;-0.79925537109375;-0.023345947265625;7.4199999812663;743;100 mA;
167.610395576824;-0.799560546875;-0.02332763671875;7.42999998124105;744;100 mA;
167.620395576799;-0.79986572265625;-0.023333740234375;7.43999998121581;745;100 mA;
167.630395576774;-0.79925537109375;-0.02332763671875;7.44999998119056;746;100 mA;
167.640395576749;-0.79986572265625;-0.0233154296875;7.45999998116531;747;100 mA;
167.650395576723;-0.799560546875;-0.023321533203125;7.46999998114006;748;100 mA;
167.660395576698;-0.799560546875;-0.023309326171875;7.47999998111482;749;100 mA;
167.670395576673;-0.79925537109375;-0.0233062744140625;7.48999998108957;750;100 mA;
167.680395576648;-0.79925537109375;-0.0233001708984375;7.49999998106432;751;100 mA;
167.690395576622;-0.799560546875;-0.0232940673828125;7.50999998103907;752;100 mA;
167.700395576597;-0.799560546875;-0.0232940673828125;7.51999998101383;753;100 mA;
167.710395576572;-0.79925537109375;-0.02327880859375;7.52999998098858;754;100 mA;
167.720395576547;-0.79925537109375;-0.02327880859375;7.53999998096333;755;100 mA;
167.730395576521;-0.79986572265625;-0.0232696533203125;7.54999998093808;756;100 mA;
167.740395576496;-0.8001708984375;-0.0232635498046875;7.55999998091283;757;100 mA;
167.750395576471;-0.79986572265625;-0.0232574462890625;7.56999998088759;758;100 mA;
167.760395576446;-0.799560546875;-0.023248291015625;7.57999998086234;759;100 mA;
167.77039557642;-0.79925537109375;-0.0232452392578125;7.58999998083709;760;100 mA;
167.780395576395;-0.799560546875;-0.0232330322265625;7.59999998081184;761;100 mA;
167.79039557637;-0.79925537109375;-0.0232269287109375;7.6099999807866;762;100 mA;
167.800395576345;-0.79925537109375;-0.023223876953125;7.61999998076135;763;100 mA;
167.810395576319;-0.799560546875;-0.0232086181640625;7.6299999807361;764;100 mA;
167.820395576294;-0.79986572265625;-0.0232086181640625;7.63999998071085;765;100 mA;
167.830395576269;-0.799560546875;-0.023199462890625;7.64999998068561;766;100 mA;
167.840395576244;-0.799560546875;-0.0231903076171875;7.65999998066036;767;100 mA;
167.850395576218;-0.79986572265625;-0.023187255859375;7.66999998063511;768;100 mA;
167.860395576193;-0.79986572265625;-0.023175048828125;7.67999998060986;769;100 mA;
167.870395576168;-0.799560546875;-0.0231719970703125;7.68999998058462;770;100 mA;
167.880395576143;-0.799560546875;-0.023162841796875;7.69999998055937;771;100 mA;
167.890395576117;-0.79925537109375;-0.0231597900390625;7.70999998053412;772;100 mA;
167.900395576092;-0.79925537109375;-0.023150634765625;7.71999998050887;773;100 mA;
167.910395576067;-0.799560546875;-0.0231414794921875;7.72999998048363;774;100 mA;
167.920395576042;-0.8001708984375;-0.02314453125;7.73999998045838;775;100 mA;
167.930395576017;-0.799560546875;-0.0231353759765625;7.74999998043313;776;100 mA;
167.940395575991;-0.7989501953125;-0.0231292724609375;7.75999998040788;777;100 mA;
167.950395575966;-0.79864501953125;-0.0231292724609375;7.76999998038264;778;100 mA;
167.960395575941;-0.799560546875;-0.0231231689453125;7.77999998035739;779;100 mA;
167.970395575916;-0.79986572265625;-0.0231292724609375;7.78999998033214;780;100 mA;
167.98039557589;-0.79925537109375;-0.023126220703125;7.79999998030689;781;100 mA;
167.990395575865;-0.799560546875;-0.023126220703125;7.80999998028165;782;100 mA;
168.00039557584;-0.79925537109375;-0.0231353759765625;7.8199999802564;783;100 mA;
168.010395575815;-0.79986572265625;-0.0231292724609375;7.82999998023115;784;100 mA;
168.020395575789;-0.799560546875;-0.02314453125;7.8399999802059;785;100 mA;
168.030395575764;-0.7989501953125;-0.023150634765625;7.84999998018066;786;100 mA;
168.040395575739;-0.799560546875;-0.023162841796875;7.85999998015541;787;100 mA;
168.050395575714;-0.7989501953125;-0.02318115234375;7.86999998013016;788;100 mA;
168.060395575688;-0.79925537109375;-0.023199462890625;7.87999998010491;789;100 mA;
168.070395575663;-0.799560546875;-0.0232208251953125;7.88999998007966;790;100 mA;
168.080395575638;-0.79925537109375;-0.023236083984375;7.89999998005442;791;100 mA;
168.090395575613;-0.80047607421875;-0.0232574462890625;7.90999998002917;792;100 mA;
168.100395575587;-0.799560546875;-0.0232818603515625;7.91999998000392;793;100 mA;
168.110395575562;-0.7989501953125;-0.02330322265625;7.92999997997867;794;100 mA;
168.120395575537;-0.79986572265625;-0.023333740234375;7.93999997995343;795;100 mA;
168.130395575512;-0.799560546875;-0.0233551025390625;7.94999997992818;796;100 mA;
168.140395575486;-0.799560546875;-0.023382568359375;7.95999997990293;797;100 mA;
168.150395575461;-0.79925537109375;-0.0234130859375;7.96999997987768;798;100 mA;
168.160395575436;-0.7989501953125;-0.0234344482421875;7.97999997985244;799;100 mA;
168.170395575411;-0.799560546875;-0.0234710693359375;7.98999997982719;800;100 mA;
168.180395575385;-0.799560546875;-0.0235015869140625;7.99999997980194;801;100 mA;
168.19039557536;-0.799560546875;-0.023529052734375;8.00999997977669;802;100 mA;
168.200395575335;-0.79925537109375;-0.0235626220703125;8.01999997975145;803;100 mA;
168.21039557531;-0.79925537109375;-0.023583984375;8.0299999797262;804;100 mA;
168.220395575284;-0.799560546875;-0.02362060546875;8.03999997970095;805;100 mA;
168.230395575259;-0.79925537109375;-0.0236480712890625;8.0499999796757;806;100 mA;
168.240395575234;-0.799560546875;-0.023675537109375;8.05999997965046;807;100 mA;
168.250395575209;-0.799560546875;-0.0237091064453125;8.06999997962521;808;100 mA;
168.260395575183;-0.799560546875;-0.0237335205078125;8.07999997959996;809;100 mA;
168.270395575158;-0.799560546875;-0.02376708984375;8.08999997957471;810;100 mA;
168.280395575133;-0.799560546875;-0.02379150390625;8.09999997954947;811;100 mA;
168.290395575108;-0.79986572265625;-0.02381591796875;8.10999997952422;812;100 mA;
168.300395575082;-0.799560546875;-0.0238433837890625;8.11999997949897;813;100 mA;
168.310395575057;-0.799560546875;-0.0238616943359375;8.12999997947372;814;100 mA;
168.320395575032;-0.79925537109375;-0.0238922119140625;8.13999997944848;815;100 mA;
168.330395575007;-0.79986572265625;-0.023907470703125;8.14999997942323;816;100 mA;
168.340395574981;-0.799560546875;-0.0239349365234375;8.15999997939798;817;100 mA;
168.350395574956;-0.79925537109375;-0.0239593505859375;8.16999997937273;818;100 mA;
168.360395574931;-0.79864501953125;-0.0239776611328125;8.17999997934749;819;100 mA;
168.370395574906;-0.7989501953125;-0.0239990234375;8.18999997932224;820;100 mA;
168.38039557488;-0.79925537109375;-0.024017333984375;8.19999997929699;821;100 mA;
168.390395574855;-0.79925537109375;-0.024029541015625;8.20999997927174;822;100 mA;
168.40039557483;-0.7989501953125;-0.0240478515625;8.2199999792465;823;100 mA;
168.410395574805;-0.79925537109375;-0.02406005859375;8.22999997922125;824;100 mA;
168.420395574779;-0.799560546875;-0.0240814208984375;8.239999979196;825;100 mA;
168.430395574754;-0.799560546875;-0.0240875244140625;8.24999997917075;826;100 mA;
168.440395574729;-0.799560546875;-0.0240997314453125;8.2599999791455;827;100 mA;
168.450395574704;-0.7989501953125;-0.0241119384765625;8.26999997912026;828;100 mA;
168.460395574678;-0.799560546875;-0.0241180419921875;8.27999997909501;829;100 mA;
168.470395574653;-0.79925537109375;-0.02413330078125;8.28999997906976;830;100 mA;
168.480395574628;-0.79986572265625;-0.0241424560546875;8.29999997904451;831;100 mA;
168.490395574603;-0.799560546875;-0.0241485595703125;8.30999997901927;832;100 mA;
168.500395574577;-0.8001708984375;-0.024163818359375;8.31999997899402;833;100 mA;
168.510395574552;-0.7989501953125;-0.024163818359375;8.32999997896877;834;100 mA;
168.520395574527;-0.799560546875;-0.02418212890625;8.33999997894352;835;100 mA;
168.530395574502;-0.79925537109375;-0.0241790771484375;8.34999997891828;836;100 mA;
168.540395574476;-0.79925537109375;-0.0241851806640625;8.35999997889303;837;100 mA;
168.550395574451;-0.79986572265625;-0.0241973876953125;8.36999997886778;838;100 mA;
168.560395574426;-0.799560546875;-0.0241973876953125;8.37999997884253;839;100 mA;
168.570395574401;-0.799560546875;-0.02420654296875;8.38999997881729;840;100 mA;
168.580395574375;-0.79925537109375;-0.0242095947265625;8.39999997879204;841;100 mA;
168.59039557435;-0.799560546875;-0.0242095947265625;8.40999997876679;842;100 mA;
168.600395574325;-0.799560546875;-0.0242156982421875;8.41999997874154;843;100 mA;
168.6103955743;-0.799560546875;-0.024212646484375;8.4299999787163;844;100 mA;
168.620395574274;-0.79925537109375;-0.0242279052734375;8.43999997869105;845;100 mA;
168.630395574249;-0.799560546875;-0.0242218017578125;8.4499999786658;846;100 mA;
168.640395574224;-0.79925537109375;-0.0242218017578125;8.45999997864055;847;100 mA;
168.650395574199;-0.79986572265625;-0.0242279052734375;8.46999997861531;848;100 mA;
168.660395574173;-0.799560546875;-0.0242279052734375;8.47999997859006;849;100 mA;
168.670395574148;-0.79925537109375;-0.0242340087890625;8.48999997856481;850;100 mA;
168.680395574123;-0.79986572265625;-0.0242279052734375;8.49999997853956;851;100 mA;
168.690395574098;-0.79986572265625;-0.02423095703125;8.50999997851432;852;100 mA;
168.700395574072;-0.79986572265625;-0.02423095703125;8.51999997848907;853;100 mA;
168.710395574047;-0.799560546875;-0.024224853515625;8.52999997846382;854;100 mA;
168.720395574022;-0.79925537109375;-0.02423095703125;8.53999997843857;855;100 mA;
168.730395573997;-0.799560546875;-0.024224853515625;8.54999997841333;856;100 mA;
168.740395573971;-0.79986572265625;-0.02421875;8.55999997838808;857;100 mA;
168.750395573946;-0.799560546875;-0.0242218017578125;8.56999997836283;858;100 mA;
168.760395573921;-0.799560546875;-0.024212646484375;8.57999997833758;859;100 mA;
168.770395573896;-0.799560546875;-0.0242156982421875;8.58999997831233;860;100 mA;
168.78039557387;-0.799560546875;-0.02420654296875;8.59999997828709;861;100 mA;
168.790395573845;-0.79986572265625;-0.0242034912109375;8.60999997826184;862;100 mA;
168.80039557382;-0.79986572265625;-0.024200439453125;8.61999997823659;863;100 mA;
168.810395573795;-0.79986572265625;-0.0241912841796875;8.62999997821134;864;100 mA;
168.820395573769;-0.799560546875;-0.0241973876953125;8.6399999781861;865;100 mA;
168.830395573744;-0.79925537109375;-0.0241851806640625;8.64999997816085;866;100 mA;
168.840395573719;-0.79986572265625;-0.02418212890625;8.6599999781356;867;100 mA;
168.850395573694;-0.799560546875;-0.0241851806640625;8.66999997811035;868;100 mA;
168.860395573668;-0.79986572265625;-0.0241729736328125;8.67999997808511;869;100 mA;
168.870395573643;-0.79925537109375;-0.0241790771484375;8.68999997805986;870;100 mA;
168.880395573618;-0.799560546875;-0.0241668701171875;8.69999997803461;871;100 mA;
168.890395573593;-0.79986572265625;-0.024163818359375;8.70999997800936;872;100 mA;
168.900395573567;-0.79986572265625;-0.0241546630859375;8.71999997798412;873;100 mA;
168.910395573542;-0.799560546875;-0.024151611328125;8.72999997795887;874;100 mA;
168.920395573517;-0.799560546875;-0.024151611328125;8.73999997793362;875;100 mA;
168.930395573492;-0.799560546875;-0.024139404296875;8.74999997790837;876;100 mA;
168.940395573467;-0.79986572265625;-0.024127197265625;8.75999997788313;877;100 mA;
168.950395573441;-0.79986572265625;-0.024127197265625;8.76999997785788;878;100 mA;
168.960395573416;-0.79925537109375;-0.0241180419921875;8.77999997783263;879;100 mA;
168.970395573391;-0.79925537109375;-0.024114990234375;8.78999997780738;880;100 mA;
168.980395573366;-0.799560546875;-0.0241058349609375;8.79999997778214;881;100 mA;
168.99039557334;-0.79986572265625;-0.024090576171875;8.80999997775689;882;100 mA;
169.000395573315;-0.79925537109375;-0.02408447265625;8.81999997773164;883;100 mA;
169.01039557329;-0.799560546875;-0.0240692138671875;8.82999997770639;884;100 mA;
169.020395573265;-0.799560546875;-0.0240631103515625;8.83999997768115;885;100 mA;
169.030395573239;-0.79925537109375;-0.0240447998046875;8.8499999776559;886;100 mA;
169.040395573214;-0.79925537109375;-0.0240325927734375;8.85999997763065;887;100 mA;
169.050395573189;-0.79925537109375;-0.0240234375;8.8699999776054;888;100 mA;
169.060395573164;-0.799560546875;-0.0240020751953125;8.87999997758016;889;100 mA;
169.070395573138;-0.799560546875;-0.0239898681640625;8.88999997755491;890;100 mA;
169.080395573113;-0.799560546875;-0.0239654541015625;8.89999997752966;891;100 mA;
169.090395573088;-0.79925537109375;-0.0239471435546875;8.90999997750441;892;100 mA;
169.100395573063;-0.799560546875;-0.023931884765625;8.91999997747916;893;100 mA;
169.110395573037;-0.79925537109375;-0.023907470703125;8.92999997745392;894;100 mA;
169.120395573012;-0.799560546875;-0.023895263671875;8.93999997742867;895;100 mA;
169.130395572987;-0.799560546875;-0.0238677978515625;8.94999997740342;896;100 mA;
169.140395572962;-0.79925537109375;-0.0238433837890625;8.95999997737817;897;100 mA;
169.150395572936;-0.79925537109375;-0.0238311767578125;8.96999997735293;898;100 mA;
169.160395572911;-0.7989501953125;-0.0238067626953125;8.97999997732768;899;100 mA;
169.170395572886;-0.79925537109375;-0.023785400390625;8.98999997730243;900;100 mA;
169.180395572861;-0.79925537109375;-0.023760986328125;8.99999997727718;901;100 mA;
169.190395572835;-0.799560546875;-0.0237396240234375;9.00999997725194;902;100 mA;
169.20039557281;-0.799560546875;-0.0237152099609375;9.01999997722669;903;100 mA;
169.210395572785;-0.79925537109375;-0.0236907958984375;9.02999997720144;904;100 mA;
169.22039557276;-0.799560546875;-0.0236663818359375;9.03999997717619;905;100 mA;
169.230395572734;-0.79986572265625;-0.0236419677734375;9.04999997715095;906;100 mA;
169.240395572709;-0.799560546875;-0.0236236572265625;9.0599999771257;907;100 mA;
169.250395572684;-0.799560546875;-0.0235992431640625;9.06999997710045;908;100 mA;
169.260395572659;-0.79986572265625;-0.0235687255859375;9.0799999770752;909;100 mA;
169.270395572633;-0.79986572265625;-0.0235504150390625;9.08999997704996;910;100 mA;
169.280395572608;-0.79986572265625;-0.0235198974609375;9.09999997702471;911;100 mA;
169.290395572583;-0.79925537109375;-0.02349853515625;9.10999997699946;912;100 mA;
169.300395572558;-0.79925537109375;-0.023480224609375;9.11999997697421;913;100 mA;
169.310395572532;-0.79925537109375;-0.02344970703125;9.12999997694897;914;100 mA;
169.320395572507;-0.799560546875;-0.0234375;9.13999997692372;915;100 mA;
169.330395572482;-0.79986572265625;-0.023406982421875;9.14999997689847;916;100 mA;
169.340395572457;-0.799560546875;-0.0233856201171875;9.15999997687322;917;100 mA;
169.350395572431;-0.79986572265625;-0.0233642578125;9.16999997684798;918;100 mA;
169.360395572406;-0.799560546875;-0.02333984375;9.17999997682273;919;100 mA;
169.370395572381;-0.799560546875;-0.0233245849609375;9.18999997679748;920;100 mA;
169.380395572356;-0.799560546875;-0.02330322265625;9.19999997677223;921;100 mA;
169.39039557233;-0.79986572265625;-0.02327880859375;9.20999997674699;922;100 mA;
169.400395572305;-0.799560546875;-0.0232696533203125;9.21999997672174;923;100 mA;
169.41039557228;-0.79925537109375;-0.0232391357421875;9.22999997669649;924;100 mA;
169.420395572255;-0.79925537109375;-0.0232269287109375;9.23999997667124;925;100 mA;
169.430395572229;-0.7989501953125;-0.0232025146484375;9.249999976646;926;100 mA;
169.440395572204;-0.799560546875;-0.0231842041015625;9.25999997662075;927;100 mA;
169.450395572179;-0.79986572265625;-0.0231689453125;9.2699999765955;928;100 mA;
169.460395572154;-0.79925537109375;-0.0231475830078125;9.27999997657025;929;100 mA;
169.470395572128;-0.79986572265625;-0.023138427734375;9.289999976545;930;100 mA;
169.480395572103;-0.79925537109375;-0.0231109619140625;9.29999997651976;931;100 mA;
169.490395572078;-0.799560546875;-0.023095703125;9.30999997649451;932;100 mA;
169.500395572053;-0.799560546875;-0.02308349609375;9.31999997646926;933;100 mA;
169.510395572027;-0.799560546875;-0.02305908203125;9.32999997644401;934;100 mA;
169.520395572002;-0.799560546875;-0.023046875;9.33999997641877;935;100 mA;
169.530395571977;-0.799560546875;-0.0230194091796875;9.34999997639352;936;100 mA;
169.540395571952;-0.799560546875;-0.022998046875;9.35999997636827;937;100 mA;
169.550395571926;-0.79986572265625;-0.0229888916015625;9.36999997634302;938;100 mA;
169.560395571901;-0.8001708984375;-0.02296142578125;9.37999997631778;939;100 mA;
169.570395571876;-0.7989501953125;-0.02294921875;9.38999997629253;940;100 mA;
169.580395571851;-0.7989501953125;-0.0229217529296875;9.39999997626728;941;100 mA;
169.590395571825;-0.8001708984375;-0.022900390625;9.40999997624203;942;100 mA;
169.6003955718;-0.79925537109375;-0.022882080078125;9.41999997621679;943;100 mA;
169.610395571775;-0.799560546875;-0.022857666015625;9.42999997619154;944;100 mA;
169.62039557175;-0.8001708984375;-0.0228424072265625;9.43999997616629;945;100 mA;
169.630395571724;-0.799560546875;-0.022808837890625;9.44999997614104;946;100 mA;
169.640395571699;-0.799560546875;-0.0227874755859375;9.4599999761158;947;100 mA;
169.650395571674;-0.79925537109375;-0.0227691650390625;9.46999997609055;948;100 mA;
169.660395571649;-0.799560546875;-0.02274169921875;9.4799999760653;949;100 mA;
169.670395571623;-0.79925537109375;-0.022723388671875;9.48999997604005;950;100 mA;
169.680395571598;-0.799560546875;-0.02269287109375;9.49999997601481;951;100 mA;
169.690395571573;-0.799560546875;-0.0226654052734375;9.50999997598956;952;100 mA;
169.700395571548;-0.799560546875;-0.022650146484375;9.51999997596431;953;100 mA;
169.710395571522;-0.799560546875;-0.02261962890625;9.52999997593906;954;100 mA;
169.720395571497;-0.79925537109375;-0.02259521484375;9.53999997591382;955;100 mA;
169.730395571472;-0.7989501953125;-0.0225616455078125;9.54999997588857;956;100 mA;
169.740395571447;-0.79986572265625;-0.022540283203125;9.55999997586332;957;100 mA;
169.750395571421;-0.79986572265625;-0.022515869140625;9.56999997583807;958;100 mA;
169.760395571396;-0.79925537109375;-0.0224853515625;9.57999997581283;959;100 mA;
169.770395571371;-0.799560546875;-0.0224578857421875;9.58999997578758;960;100 mA;
169.780395571346;-0.799560546875;-0.0224273681640625;9.59999997576233;961;100 mA;
169.79039557132;-0.79925537109375;-0.0224029541015625;9.60999997573708;962;100 mA;
169.800395571295;-0.79925537109375;-0.0223785400390625;9.61999997571183;963;100 mA;
169.81039557127;-0.799560546875;-0.0223480224609375;9.62999997568659;964;100 mA;
169.820395571245;-0.79986572265625;-0.0223236083984375;9.63999997566134;965;100 mA;
169.830395571219;-0.79925537109375;-0.0222869873046875;9.64999997563609;966;100 mA;
169.840395571194;-0.7989501953125;-0.022265625;9.65999997561084;967;100 mA;
169.850395571169;-0.79925537109375;-0.0222381591796875;9.6699999755856;968;100 mA;
169.860395571144;-0.79925537109375;-0.02220458984375;9.67999997556035;969;100 mA;
169.870395571118;-0.799560546875;-0.022186279296875;9.6899999755351;970;100 mA;
169.880395571093;-0.79925537109375;-0.0221527099609375;9.69999997550985;971;100 mA;
169.890395571068;-0.7989501953125;-0.022125244140625;9.70999997548461;972;100 mA;
169.900395571043;-0.79925537109375;-0.0220977783203125;9.71999997545936;973;100 mA;
169.910395571017;-0.799560546875;-0.0220703125;9.72999997543411;974;100 mA;
169.920395570992;-0.799560546875;-0.0220428466796875;9.73999997540886;975;100 mA;
169.930395570967;-0.79986572265625;-0.02200927734375;9.74999997538362;976;100 mA;
169.940395570942;-0.799560546875;-0.0219818115234375;9.75999997535837;977;100 mA;
169.950395570916;-0.799560546875;-0.0219573974609375;9.76999997533312;978;100 mA;
169.960395570891;-0.799560546875;-0.021929931640625;9.77999997530787;979;100 mA;
169.970395570866;-0.799560546875;-0.021905517578125;9.78999997528263;980;100 mA;
169.980395570841;-0.799560546875;-0.021868896484375;9.79999997525738;981;100 mA;
169.990395570816;-0.7989501953125;-0.0218475341796875;9.80999997523213;982;100 mA;
170.00039557079;-0.79925537109375;-0.0218170166015625;9.81999997520688;983;100 mA;
170.010395570765;-0.799560546875;-0.02178955078125;9.82999997518164;984;100 mA;
170.02039557074;-0.79925537109375;-0.0217681884765625;9.83999997515639;985;100 mA;
170.030395570715;-0.79925537109375;-0.021734619140625;9.84999997513114;986;100 mA;
170.040395570689;-0.799560546875;-0.021710205078125;9.85999997510589;987;100 mA;
170.050395570664;-0.799560546875;-0.0216888427734375;9.86999997508065;988;100 mA;
170.060395570639;-0.799560546875;-0.0216522216796875;9.8799999750554;989;100 mA;
170.070395570614;-0.799560546875;-0.021630859375;9.88999997503015;990;100 mA;
170.080395570588;-0.79986572265625;-0.0215972900390625;9.8999999750049;991;100 mA;
170.090395570563;-0.799560546875;-0.021575927734375;9.90999997497966;992;100 mA;
170.100395570538;-0.8001708984375;-0.021551513671875;9.91999997495441;993;100 mA;
170.110395570513;-0.8001708984375;-0.0215240478515625;9.92999997492916;994;100 mA;
170.120395570487;-0.799560546875;-0.0215057373046875;9.93999997490391;995;100 mA;
170.130395570462;-0.799560546875;-0.02147216796875;9.94999997487866;996;100 mA;
170.140395570437;-0.799560546875;-0.02144775390625;9.95999997485342;997;100 mA;
170.150395570412;-0.799560546875;-0.0214324951171875;9.96999997482817;998;100 mA;
170.160395570386;-0.79925537109375;-0.0213958740234375;9.97999997480292;999;100 mA;
170.170395570361;-0.799560546875;-0.021380615234375;9.98999997477767;1000;100 mA;
