Time (s);WE(1).Potential (V);WE(1).Current (A);Corrected time (s);Index;Current range;Overload
231.600796415264;-0.85174560546875;-0.382354736328125;0;1;100 mA;Current overload
231.610796415239;-0.849609375;-0.25982666015625;0.00999999997475243;2;100 mA;
231.620796415214;-0.84930419921875;-0.20892333984375;0.0199999999495049;3;100 mA;
231.630796415188;-0.84930419921875;-0.17901611328125;0.0299999999242573;4;100 mA;
231.640796415163;-0.84930419921875;-0.15887451171875;0.0399999998990097;5;100 mA;
231.650796415138;-0.849609375;-0.144195556640625;0.0499999998737621;6;100 mA;
231.660796415113;-0.849609375;-0.132965087890625;0.0599999998485146;7;100 mA;
231.670796415087;-0.84930419921875;-0.12396240234375;0.069999999823267;8;100 mA;
231.680796415062;-0.84991455078125;-0.1165771484375;0.0799999997980194;9;100 mA;
231.690796415037;-0.849609375;-0.1103515625;0.0899999997727718;10;100 mA;
231.700796415012;-0.84991455078125;-0.105072021484375;0.0999999997475243;11;100 mA;
231.710796414986;-0.84930419921875;-0.1004638671875;0.109999999722277;12;100 mA;
231.720796414961;-0.849609375;-0.096405029296875;0.119999999697029;13;100 mA;
231.730796414936;-0.84930419921875;-0.092803955078125;0.129999999671782;14;100 mA;
231.740796414911;-0.84930419921875;-0.089569091796875;0.139999999646534;15;100 mA;
231.750796414885;-0.84930419921875;-0.086669921875;0.149999999621286;16;100 mA;
231.76079641486;-0.84930419921875;-0.084014892578125;0.159999999596039;17;100 mA;
231.770796414835;-0.849609375;-0.08160400390625;0.169999999570791;18;100 mA;
231.78079641481;-0.849609375;-0.079376220703125;0.179999999545544;19;100 mA;
231.790796414784;-0.849609375;-0.07733154296875;0.189999999520296;20;100 mA;
231.800796414759;-0.84930419921875;-0.075439453125;0.199999999495049;21;100 mA;
231.810796414734;-0.849609375;-0.07366943359375;0.209999999469801;22;100 mA;
231.820796414709;-0.849609375;-0.072021484375;0.219999999444553;23;100 mA;
231.830796414684;-0.84930419921875;-0.07049560546875;0.229999999419306;24;100 mA;
231.840796414658;-0.849609375;-0.069061279296875;0.239999999394058;25;100 mA;
231.850796414633;-0.849609375;-0.06768798828125;0.249999999368811;26;100 mA;
231.860796414608;-0.84930419921875;-0.066436767578125;0.259999999343563;27;100 mA;
231.870796414583;-0.849609375;-0.065216064453125;0.269999999318316;28;100 mA;
231.880796414557;-0.84930419921875;-0.0640869140625;0.279999999293068;29;100 mA;
231.890796414532;-0.849609375;-0.06298828125;0.28999999926782;30;100 mA;
231.900796414507;-0.84930419921875;-0.061981201171875;0.299999999242573;31;100 mA;
231.910796414482;-0.849609375;-0.06097412109375;0.309999999217325;32;100 mA;
231.920796414456;-0.84991455078125;-0.06005859375;0.319999999192078;33;100 mA;
231.930796414431;-0.849609375;-0.05914306640625;0.32999999916683;34;100 mA;
231.940796414406;-0.84930419921875;-0.05828857421875;0.339999999141583;35;100 mA;
231.950796414381;-0.84930419921875;-0.0574951171875;0.349999999116335;36;100 mA;
231.960796414355;-0.849609375;-0.05670166015625;0.359999999091087;37;100 mA;
231.97079641433;-0.84930419921875;-0.055938720703125;0.36999999906584;38;100 mA;
231.980796414305;-0.849609375;-0.05523681640625;0.379999999040592;39;100 mA;
231.99079641428;-0.84930419921875;-0.054534912109375;0.389999999015345;40;100 mA;
232.000796414254;-0.849609375;-0.05389404296875;0.399999998990097;41;100 mA;
232.010796414229;-0.849609375;-0.053253173828125;0.40999999896485;42;100 mA;
232.020796414204;-0.84930419921875;-0.0526123046875;0.419999998939602;43;100 mA;
232.030796414179;-0.849609375;-0.052032470703125;0.429999998914354;44;100 mA;
232.040796414153;-0.849609375;-0.05145263671875;0.439999998889107;45;100 mA;
232.050796414128;-0.849609375;-0.0509033203125;0.449999998863859;46;100 mA;
232.060796414103;-0.84991455078125;-0.05035400390625;0.459999998838612;47;100 mA;
232.070796414078;-0.849609375;-0.049835205078125;0.469999998813364;48;100 mA;
232.080796414052;-0.849609375;-0.049334716796875;0.479999998788116;49;100 mA;
232.090796414027;-0.84991455078125;-0.04884033203125;0.489999998762869;50;100 mA;
232.100796414002;-0.849609375;-0.0483795166015625;0.499999998737621;51;100 mA;
232.110796413977;-0.84991455078125;-0.0479095458984375;0.509999998712374;52;100 mA;
232.120796413951;-0.84930419921875;-0.0474639892578125;0.519999998687126;53;100 mA;
232.130796413926;-0.849609375;-0.0470428466796875;0.529999998661879;54;100 mA;
232.140796413901;-0.84930419921875;-0.0466094970703125;0.539999998636631;55;100 mA;
232.150796413876;-0.84930419921875;-0.046209716796875;0.549999998611383;56;100 mA;
232.16079641385;-0.84930419921875;-0.04581298828125;0.559999998586136;57;100 mA;
232.170796413825;-0.849609375;-0.04542236328125;0.569999998560888;58;100 mA;
232.1807964138;-0.849609375;-0.04505615234375;0.579999998535641;59;100 mA;
232.190796413775;-0.8489990234375;-0.044683837890625;0.589999998510393;60;100 mA;
232.200796413749;-0.849609375;-0.0443359375;0.599999998485146;61;100 mA;
232.210796413724;-0.8502197265625;-0.0439849853515625;0.609999998459898;62;100 mA;
232.220796413699;-0.84930419921875;-0.043646240234375;0.61999999843465;63;100 mA;
232.230796413674;-0.8489990234375;-0.04332275390625;0.629999998409403;64;100 mA;
232.240796413648;-0.84930419921875;-0.0429962158203125;0.639999998384155;65;100 mA;
232.250796413623;-0.84991455078125;-0.0426849365234375;0.649999998358908;66;100 mA;
232.260796413598;-0.849609375;-0.042376708984375;0.65999999833366;67;100 mA;
232.270796413573;-0.849609375;-0.042071533203125;0.669999998308413;68;100 mA;
232.280796413547;-0.8502197265625;-0.04178466796875;0.679999998283165;69;100 mA;
232.290796413522;-0.849609375;-0.0414886474609375;0.689999998257917;70;100 mA;
232.300796413497;-0.84930419921875;-0.041217041015625;0.69999999823267;71;100 mA;
232.310796413472;-0.84930419921875;-0.040936279296875;0.709999998207422;72;100 mA;
232.320796413446;-0.849609375;-0.0406768798828125;0.719999998182175;73;100 mA;
232.330796413421;-0.84991455078125;-0.040411376953125;0.729999998156927;74;100 mA;
232.340796413396;-0.84930419921875;-0.0401458740234375;0.73999999813168;75;100 mA;
232.350796413371;-0.84930419921875;-0.03990478515625;0.749999998106432;76;100 mA;
232.360796413345;-0.849609375;-0.0396575927734375;0.759999998081184;77;100 mA;
232.37079641332;-0.84930419921875;-0.03941650390625;0.769999998055937;78;100 mA;
232.380796413295;-0.84930419921875;-0.0391815185546875;0.779999998030689;79;100 mA;
232.39079641327;-0.849609375;-0.038946533203125;0.789999998005442;80;100 mA;
232.400796413244;-0.849609375;-0.0387298583984375;0.799999997980194;81;100 mA;
232.410796413219;-0.84930419921875;-0.0384979248046875;0.809999997954947;82;100 mA;
232.420796413194;-0.849609375;-0.03828125;0.819999997929699;83;100 mA;
232.430796413169;-0.849609375;-0.038067626953125;0.829999997904451;84;100 mA;
232.440796413143;-0.849609375;-0.0378509521484375;0.839999997879204;85;100 mA;
232.450796413118;-0.84930419921875;-0.0376495361328125;0.849999997853956;86;100 mA;
232.460796413093;-0.84991455078125;-0.037445068359375;0.859999997828709;87;100 mA;
232.470796413068;-0.84930419921875;-0.03724365234375;0.869999997803461;88;100 mA;
232.480796413042;-0.849609375;-0.0370574951171875;0.879999997778214;89;100 mA;
232.490796413017;-0.849609375;-0.0368560791015625;0.889999997752966;90;100 mA;
232.500796412992;-0.849609375;-0.036676025390625;0.899999997727718;91;100 mA;
232.510796412967;-0.849609375;-0.0364898681640625;0.909999997702471;92;100 mA;
232.520796412941;-0.84930419921875;-0.036309814453125;0.919999997677223;93;100 mA;
232.530796412916;-0.84991455078125;-0.0361328125;0.929999997651976;94;100 mA;
232.540796412891;-0.84930419921875;-0.035955810546875;0.939999997626728;95;100 mA;
232.550796412866;-0.849609375;-0.035784912109375;0.949999997601481;96;100 mA;
232.56079641284;-0.849609375;-0.0356109619140625;0.959999997576233;97;100 mA;
232.570796412815;-0.84991455078125;-0.035443115234375;0.969999997550985;98;100 mA;
232.58079641279;-0.84930419921875;-0.0352813720703125;0.979999997525738;99;100 mA;
232.590796412765;-0.84930419921875;-0.0351104736328125;0.98999999750049;100;100 mA;
232.600796412739;-0.84930419921875;-0.0349609375;0.999999997475243;101;100 mA;
232.610796412714;-0.84991455078125;-0.0347991943359375;1.00999999745;102;100 mA;
232.620796412689;-0.849609375;-0.0346466064453125;1.01999999742475;103;100 mA;
232.630796412664;-0.8489990234375;-0.0344970703125;1.0299999973995;104;100 mA;
232.640796412638;-0.849609375;-0.034344482421875;1.03999999737425;105;100 mA;
232.650796412613;-0.849609375;-0.0342132568359375;1.049999997349;106;100 mA;
232.660796412588;-0.849609375;-0.0340576171875;1.05999999732376;107;100 mA;
232.670796412563;-0.84930419921875;-0.0339202880859375;1.06999999729851;108;100 mA;
232.680796412537;-0.84930419921875;-0.033782958984375;1.07999999727326;109;100 mA;
232.690796412512;-0.84930419921875;-0.033636474609375;1.08999999724801;110;100 mA;
232.700796412487;-0.849609375;-0.0335113525390625;1.09999999722277;111;100 mA;
232.710796412462;-0.84930419921875;-0.033367919921875;1.10999999719752;112;100 mA;
232.720796412436;-0.849609375;-0.0332366943359375;1.11999999717227;113;100 mA;
232.730796412411;-0.84991455078125;-0.033111572265625;1.12999999714702;114;100 mA;
232.740796412386;-0.84930419921875;-0.032977294921875;1.13999999712178;115;100 mA;
232.750796412361;-0.849609375;-0.032861328125;1.14999999709653;116;100 mA;
232.760796412335;-0.849609375;-0.0327362060546875;1.15999999707128;117;100 mA;
232.77079641231;-0.84991455078125;-0.0326080322265625;1.16999999704603;118;100 mA;
232.780796412285;-0.84930419921875;-0.0324920654296875;1.17999999702079;119;100 mA;
232.79079641226;-0.84991455078125;-0.0323699951171875;1.18999999699554;120;100 mA;
232.800796412234;-0.849609375;-0.03226318359375;1.19999999697029;121;100 mA;
232.810796412209;-0.84930419921875;-0.03214111328125;1.20999999694504;122;100 mA;
232.820796412184;-0.849609375;-0.03203125;1.2199999969198;123;100 mA;
232.830796412159;-0.849609375;-0.0319183349609375;1.22999999689455;124;100 mA;
232.840796412133;-0.849609375;-0.0318023681640625;1.2399999968693;125;100 mA;
232.850796412108;-0.849609375;-0.03170166015625;1.24999999684405;126;100 mA;
232.860796412083;-0.84930419921875;-0.031591796875;1.25999999681881;127;100 mA;
232.870796412058;-0.849609375;-0.0314849853515625;1.26999999679356;128;100 mA;
232.880796412033;-0.8489990234375;-0.031378173828125;1.27999999676831;129;100 mA;
232.890796412007;-0.849609375;-0.0312774658203125;1.28999999674306;130;100 mA;
232.900796411982;-0.84930419921875;-0.0311859130859375;1.29999999671782;131;100 mA;
232.910796411957;-0.84930419921875;-0.0310760498046875;1.30999999669257;132;100 mA;
232.920796411932;-0.849609375;-0.030975341796875;1.31999999666732;133;100 mA;
232.930796411906;-0.849609375;-0.0308837890625;1.32999999664207;134;100 mA;
232.940796411881;-0.8489990234375;-0.0307830810546875;1.33999999661683;135;100 mA;
232.950796411856;-0.84930419921875;-0.030694580078125;1.34999999659158;136;100 mA;
232.960796411831;-0.84930419921875;-0.0305938720703125;1.35999999656633;137;100 mA;
232.970796411805;-0.84991455078125;-0.0305084228515625;1.36999999654108;138;100 mA;
232.98079641178;-0.8489990234375;-0.030419921875;1.37999999651583;139;100 mA;
232.990796411755;-0.84930419921875;-0.0303253173828125;1.38999999649059;140;100 mA;
233.00079641173;-0.849609375;-0.030242919921875;1.39999999646534;141;100 mA;
233.010796411704;-0.84930419921875;-0.030145263671875;1.40999999644009;142;100 mA;
233.020796411679;-0.8502197265625;-0.0300628662109375;1.41999999641484;143;100 mA;
233.030796411654;-0.84991455078125;-0.0299774169921875;1.4299999963896;144;100 mA;
233.040796411629;-0.84991455078125;-0.02989501953125;1.43999999636435;145;100 mA;
233.050796411603;-0.84991455078125;-0.029815673828125;1.4499999963391;146;100 mA;
233.060796411578;-0.84991455078125;-0.029730224609375;1.45999999631385;147;100 mA;
233.070796411553;-0.84930419921875;-0.02965087890625;1.46999999628861;148;100 mA;
233.080796411528;-0.849609375;-0.0295745849609375;1.47999999626336;149;100 mA;
233.090796411502;-0.84991455078125;-0.0294952392578125;1.48999999623811;150;100 mA;
233.100796411477;-0.84930419921875;-0.0294219970703125;1.49999999621286;151;100 mA;
233.110796411452;-0.84991455078125;-0.029339599609375;1.50999999618762;152;100 mA;
233.120796411427;-0.849609375;-0.029266357421875;1.51999999616237;153;100 mA;
233.130796411401;-0.84930419921875;-0.0291961669921875;1.52999999613712;154;100 mA;
233.140796411376;-0.849609375;-0.0291168212890625;1.53999999611187;155;100 mA;
233.150796411351;-0.84930419921875;-0.029052734375;1.54999999608663;156;100 mA;
233.160796411326;-0.84991455078125;-0.0289764404296875;1.55999999606138;157;100 mA;
233.1707964113;-0.84930419921875;-0.0289031982421875;1.56999999603613;158;100 mA;
233.180796411275;-0.849609375;-0.0288421630859375;1.57999999601088;159;100 mA;
233.19079641125;-0.849609375;-0.0287689208984375;1.58999999598564;160;100 mA;
233.200796411225;-0.849609375;-0.0287109375;1.59999999596039;161;100 mA;
233.210796411199;-0.84991455078125;-0.0286376953125;1.60999999593514;162;100 mA;
233.220796411174;-0.849609375;-0.02857666015625;1.61999999590989;163;100 mA;
233.230796411149;-0.84930419921875;-0.0285125732421875;1.62999999588465;164;100 mA;
233.240796411124;-0.84930419921875;-0.028448486328125;1.6399999958594;165;100 mA;
233.250796411098;-0.84930419921875;-0.0283935546875;1.64999999583415;166;100 mA;
233.260796411073;-0.8489990234375;-0.028326416015625;1.6599999958089;167;100 mA;
233.270796411048;-0.8502197265625;-0.0282623291015625;1.66999999578366;168;100 mA;
233.280796411023;-0.84930419921875;-0.028204345703125;1.67999999575841;169;100 mA;
233.290796410997;-0.84930419921875;-0.0281463623046875;1.68999999573316;170;100 mA;
233.300796410972;-0.849609375;-0.028082275390625;1.69999999570791;171;100 mA;
233.310796410947;-0.84991455078125;-0.02802734375;1.70999999568267;172;100 mA;
233.320796410922;-0.84930419921875;-0.0279693603515625;1.71999999565742;173;100 mA;
233.330796410896;-0.849609375;-0.0279144287109375;1.72999999563217;174;100 mA;
233.340796410871;-0.84930419921875;-0.0278594970703125;1.73999999560692;175;100 mA;
233.350796410846;-0.84991455078125;-0.027801513671875;1.74999999558167;176;100 mA;
233.360796410821;-0.84930419921875;-0.02774658203125;1.75999999555643;177;100 mA;
233.370796410795;-0.849609375;-0.0276947021484375;1.76999999553118;178;100 mA;
233.38079641077;-0.84930419921875;-0.0276397705078125;1.77999999550593;179;100 mA;
233.390796410745;-0.84930419921875;-0.027593994140625;1.78999999548068;180;100 mA;
233.40079641072;-0.849609375;-0.0275390625;1.79999999545544;181;100 mA;
233.410796410694;-0.84930419921875;-0.0274932861328125;1.80999999543019;182;100 mA;
233.420796410669;-0.849609375;-0.0274444580078125;1.81999999540494;183;100 mA;
233.430796410644;-0.84930419921875;-0.02740478515625;1.82999999537969;184;100 mA;
233.440796410619;-0.84930419921875;-0.027349853515625;1.83999999535445;185;100 mA;
233.450796410593;-0.849609375;-0.0273162841796875;1.8499999953292;186;100 mA;
233.460796410568;-0.849609375;-0.0272705078125;1.85999999530395;187;100 mA;
233.470796410543;-0.8502197265625;-0.0272308349609375;1.8699999952787;188;100 mA;
233.480796410518;-0.849609375;-0.0271942138671875;1.87999999525346;189;100 mA;
233.490796410492;-0.84930419921875;-0.027154541015625;1.88999999522821;190;100 mA;
233.500796410467;-0.84991455078125;-0.0271240234375;1.89999999520296;191;100 mA;
233.510796410442;-0.84930419921875;-0.027081298828125;1.90999999517771;192;100 mA;
233.520796410417;-0.8502197265625;-0.0270477294921875;1.91999999515247;193;100 mA;
233.530796410391;-0.84930419921875;-0.0270172119140625;1.92999999512722;194;100 mA;
233.540796410366;-0.84930419921875;-0.026983642578125;1.93999999510197;195;100 mA;
233.550796410341;-0.84991455078125;-0.0269500732421875;1.94999999507672;196;100 mA;
233.560796410316;-0.84991455078125;-0.0269134521484375;1.95999999505148;197;100 mA;
233.57079641029;-0.849609375;-0.0268798828125;1.96999999502623;198;100 mA;
233.580796410265;-0.8502197265625;-0.0268524169921875;1.97999999500098;199;100 mA;
233.59079641024;-0.849609375;-0.02681884765625;1.98999999497573;200;100 mA;
233.600796410215;-0.84930419921875;-0.0267852783203125;1.99999999495049;201;100 mA;
233.610796410189;-0.8502197265625;-0.0267547607421875;2.00999999492524;202;100 mA;
233.620796410164;-0.849609375;-0.0267242431640625;2.01999999489999;203;100 mA;
233.630796410139;-0.84991455078125;-0.02669677734375;2.02999999487474;204;100 mA;
233.640796410114;-0.849609375;-0.026666259765625;2.0399999948495;205;100 mA;
233.650796410088;-0.84930419921875;-0.0266387939453125;2.04999999482425;206;100 mA;
233.660796410063;-0.84991455078125;-0.0266021728515625;2.059999994799;207;100 mA;
233.670796410038;-0.849609375;-0.0265716552734375;2.06999999477375;208;100 mA;
233.680796410013;-0.849609375;-0.0265472412109375;2.0799999947485;209;100 mA;
233.690796409987;-0.84930419921875;-0.026513671875;2.08999999472326;210;100 mA;
233.700796409962;-0.849609375;-0.0264862060546875;2.09999999469801;211;100 mA;
233.710796409937;-0.849609375;-0.02645263671875;2.10999999467276;212;100 mA;
233.720796409912;-0.849609375;-0.026422119140625;2.11999999464751;213;100 mA;
233.730796409886;-0.84930419921875;-0.0263946533203125;2.12999999462227;214;100 mA;
233.740796409861;-0.849609375;-0.0263641357421875;2.13999999459702;215;100 mA;
233.750796409836;-0.84930419921875;-0.02633056640625;2.14999999457177;216;100 mA;
233.760796409811;-0.849609375;-0.026300048828125;2.15999999454652;217;100 mA;
233.770796409785;-0.849609375;-0.0262725830078125;2.16999999452128;218;100 mA;
233.78079640976;-0.84991455078125;-0.0262481689453125;2.17999999449603;219;100 mA;
233.790796409735;-0.849609375;-0.0262115478515625;2.18999999447078;220;100 mA;
233.80079640971;-0.84930419921875;-0.0261871337890625;2.19999999444553;221;100 mA;
233.810796409684;-0.84930419921875;-0.026153564453125;2.20999999442029;222;100 mA;
233.820796409659;-0.84930419921875;-0.0261322021484375;2.21999999439504;223;100 mA;
233.830796409634;-0.84930419921875;-0.0260986328125;2.22999999436979;224;100 mA;
233.840796409609;-0.84930419921875;-0.02607421875;2.23999999434454;225;100 mA;
233.850796409583;-0.84930419921875;-0.0260467529296875;2.2499999943193;226;100 mA;
233.860796409558;-0.849609375;-0.0260101318359375;2.25999999429405;227;100 mA;
233.870796409533;-0.849609375;-0.02598876953125;2.2699999942688;228;100 mA;
233.880796409508;-0.84991455078125;-0.02596435546875;2.27999999424355;229;100 mA;
233.890796409483;-0.84930419921875;-0.0259368896484375;2.28999999421831;230;100 mA;
233.900796409457;-0.84930419921875;-0.0259124755859375;2.29999999419306;231;100 mA;
233.910796409432;-0.84991455078125;-0.0258758544921875;2.30999999416781;232;100 mA;
233.920796409407;-0.84991455078125;-0.0258636474609375;2.31999999414256;233;100 mA;
233.930796409382;-0.84930419921875;-0.0258392333984375;2.32999999411732;234;100 mA;
233.940796409356;-0.84930419921875;-0.0258056640625;2.33999999409207;235;100 mA;
233.950796409331;-0.849609375;-0.025787353515625;2.34999999406682;236;100 mA;
233.960796409306;-0.84930419921875;-0.0257598876953125;2.35999999404157;237;100 mA;
233.970796409281;-0.84930419921875;-0.0257354736328125;2.36999999401633;238;100 mA;
233.980796409255;-0.849609375;-0.025714111328125;2.37999999399108;239;100 mA;
233.99079640923;-0.84930419921875;-0.0256866455078125;2.38999999396583;240;100 mA;
234.000796409205;-0.84991455078125;-0.02567138671875;2.39999999394058;241;100 mA;
234.01079640918;-0.849609375;-0.0256439208984375;2.40999999391533;242;100 mA;
234.020796409154;-0.84991455078125;-0.0256256103515625;2.41999999389009;243;100 mA;
234.030796409129;-0.84991455078125;-0.0256011962890625;2.42999999386484;244;100 mA;
234.040796409104;-0.84930419921875;-0.0255828857421875;2.43999999383959;245;100 mA;
234.050796409079;-0.84991455078125;-0.0255706787109375;2.44999999381434;246;100 mA;
234.060796409053;-0.849609375;-0.0255401611328125;2.4599999937891;247;100 mA;
234.070796409028;-0.84991455078125;-0.0255279541015625;2.46999999376385;248;100 mA;
234.080796409003;-0.84930419921875;-0.0255096435546875;2.4799999937386;249;100 mA;
234.090796408978;-0.84991455078125;-0.025482177734375;2.48999999371335;250;100 mA;
234.100796408952;-0.849609375;-0.02547607421875;2.49999999368811;251;100 mA;
234.110796408927;-0.849609375;-0.0254425048828125;2.50999999366286;252;100 mA;
234.120796408902;-0.8489990234375;-0.0254302978515625;2.51999999363761;253;100 mA;
234.130796408877;-0.849609375;-0.0254119873046875;2.52999999361236;254;100 mA;
234.140796408851;-0.84991455078125;-0.025390625;2.53999999358712;255;100 mA;
234.150796408826;-0.84930419921875;-0.0253753662109375;2.54999999356187;256;100 mA;
234.160796408801;-0.84991455078125;-0.025360107421875;2.55999999353662;257;100 mA;
234.170796408776;-0.849609375;-0.0253387451171875;2.56999999351137;258;100 mA;
234.18079640875;-0.8489990234375;-0.0253265380859375;2.57999999348613;259;100 mA;
234.190796408725;-0.84991455078125;-0.02530517578125;2.58999999346088;260;100 mA;
234.2007964087;-0.84930419921875;-0.0252960205078125;2.59999999343563;261;100 mA;
234.210796408675;-0.84930419921875;-0.0252716064453125;2.60999999341038;262;100 mA;
234.220796408649;-0.849609375;-0.025262451171875;2.61999999338514;263;100 mA;
234.230796408624;-0.84991455078125;-0.025244140625;2.62999999335989;264;100 mA;
234.240796408599;-0.84930419921875;-0.02523193359375;2.63999999333464;265;100 mA;
234.250796408574;-0.84930419921875;-0.0252105712890625;2.64999999330939;266;100 mA;
234.260796408548;-0.849609375;-0.0251953125;2.65999999328415;267;100 mA;
234.270796408523;-0.8502197265625;-0.0251800537109375;2.6699999932589;268;100 mA;
234.280796408498;-0.8502197265625;-0.025164794921875;2.67999999323365;269;100 mA;
234.290796408473;-0.84991455078125;-0.0251495361328125;2.6899999932084;270;100 mA;
234.300796408447;-0.849609375;-0.025140380859375;2.69999999318316;271;100 mA;
234.310796408422;-0.849609375;-0.0251220703125;2.70999999315791;272;100 mA;
234.320796408397;-0.84991455078125;-0.02510986328125;2.71999999313266;273;100 mA;
234.330796408372;-0.84930419921875;-0.0251007080078125;2.72999999310741;274;100 mA;
234.340796408346;-0.84991455078125;-0.02508544921875;2.73999999308217;275;100 mA;
234.350796408321;-0.849609375;-0.0250732421875;2.74999999305692;276;100 mA;
234.360796408296;-0.84930419921875;-0.0250579833984375;2.75999999303167;277;100 mA;
234.370796408271;-0.84930419921875;-0.025048828125;2.76999999300642;278;100 mA;
234.380796408245;-0.84991455078125;-0.02503662109375;2.77999999298117;279;100 mA;
234.39079640822;-0.849609375;-0.025018310546875;2.78999999295593;280;100 mA;
234.400796408195;-0.84991455078125;-0.02501220703125;2.79999999293068;281;100 mA;
234.41079640817;-0.84991455078125;-0.02498779296875;2.80999999290543;282;100 mA;
234.420796408144;-0.849609375;-0.024981689453125;2.81999999288018;283;100 mA;
234.430796408119;-0.849609375;-0.024969482421875;2.82999999285494;284;100 mA;
234.440796408094;-0.84930419921875;-0.0249542236328125;2.83999999282969;285;100 mA;
234.450796408069;-0.849609375;-0.0249481201171875;2.84999999280444;286;100 mA;
234.460796408043;-0.84869384765625;-0.024932861328125;2.85999999277919;287;100 mA;
234.470796408018;-0.84930419921875;-0.0249267578125;2.86999999275395;288;100 mA;
234.480796407993;-0.84991455078125;-0.024920654296875;2.8799999927287;289;100 mA;
234.490796407968;-0.84991455078125;-0.0249053955078125;2.88999999270345;290;100 mA;
234.500796407942;-0.849609375;-0.0249053955078125;2.8999999926782;291;100 mA;
234.510796407917;-0.84991455078125;-0.0248870849609375;2.90999999265296;292;100 mA;
234.520796407892;-0.8489990234375;-0.024884033203125;2.91999999262771;293;100 mA;
234.530796407867;-0.84991455078125;-0.0248809814453125;2.92999999260246;294;100 mA;
234.540796407841;-0.849609375;-0.02486572265625;2.93999999257721;295;100 mA;
234.550796407816;-0.849609375;-0.0248687744140625;2.94999999255197;296;100 mA;
234.560796407791;-0.8489990234375;-0.024853515625;2.95999999252672;297;100 mA;
234.570796407766;-0.84930419921875;-0.024853515625;2.96999999250147;298;100 mA;
234.58079640774;-0.849609375;-0.024847412109375;2.97999999247622;299;100 mA;
234.590796407715;-0.84930419921875;-0.02484130859375;2.98999999245098;300;100 mA;
234.60079640769;-0.8489990234375;-0.024847412109375;2.99999999242573;301;100 mA;
234.610796407665;-0.84991455078125;-0.0248382568359375;3.00999999240048;302;100 mA;
234.620796407639;-0.84930419921875;-0.02484130859375;3.01999999237523;303;100 mA;
234.630796407614;-0.84930419921875;-0.02484130859375;3.02999999234999;304;100 mA;
234.640796407589;-0.8489990234375;-0.0248382568359375;3.03999999232474;305;100 mA;
234.650796407564;-0.849609375;-0.0248443603515625;3.04999999229949;306;100 mA;
234.660796407538;-0.84930419921875;-0.02484130859375;3.05999999227424;307;100 mA;
234.670796407513;-0.849609375;-0.02484130859375;3.069999992249;308;100 mA;
234.680796407488;-0.849609375;-0.02484130859375;3.07999999222375;309;100 mA;
234.690796407463;-0.849609375;-0.024835205078125;3.0899999921985;310;100 mA;
234.700796407437;-0.84991455078125;-0.024847412109375;3.09999999217325;311;100 mA;
234.710796407412;-0.84991455078125;-0.0248321533203125;3.109999992148;312;100 mA;
234.720796407387;-0.849609375;-0.0248382568359375;3.11999999212276;313;100 mA;
234.730796407362;-0.84991455078125;-0.02484130859375;3.12999999209751;314;100 mA;
234.740796407336;-0.84991455078125;-0.0248443603515625;3.13999999207226;315;100 mA;
234.750796407311;-0.849609375;-0.024853515625;3.14999999204701;316;100 mA;
234.760796407286;-0.84991455078125;-0.024847412109375;3.15999999202177;317;100 mA;
234.770796407261;-0.84930419921875;-0.0248504638671875;3.16999999199652;318;100 mA;
234.780796407235;-0.84991455078125;-0.024853515625;3.17999999197127;319;100 mA;
234.79079640721;-0.849609375;-0.024853515625;3.18999999194602;320;100 mA;
234.800796407185;-0.84991455078125;-0.024859619140625;3.19999999192078;321;100 mA;
234.81079640716;-0.84930419921875;-0.024853515625;3.20999999189553;322;100 mA;
234.820796407134;-0.84991455078125;-0.024859619140625;3.21999999187028;323;100 mA;
234.830796407109;-0.84930419921875;-0.024859619140625;3.22999999184503;324;100 mA;
234.840796407084;-0.849609375;-0.0248565673828125;3.23999999181979;325;100 mA;
234.850796407059;-0.849609375;-0.024859619140625;3.24999999179454;326;100 mA;
234.860796407033;-0.849609375;-0.0248565673828125;3.25999999176929;327;100 mA;
234.870796407008;-0.849609375;-0.024853515625;3.26999999174404;328;100 mA;
234.880796406983;-0.849609375;-0.0248565673828125;3.2799999917188;329;100 mA;
234.890796406958;-0.849609375;-0.0248504638671875;3.28999999169355;330;100 mA;
234.900796406932;-0.8489990234375;-0.0248565673828125;3.2999999916683;331;100 mA;
234.910796406907;-0.84930419921875;-0.024853515625;3.30999999164305;332;100 mA;
234.920796406882;-0.849609375;-0.0248504638671875;3.31999999161781;333;100 mA;
234.930796406857;-0.84991455078125;-0.024853515625;3.32999999159256;334;100 mA;
234.940796406832;-0.849609375;-0.0248504638671875;3.33999999156731;335;100 mA;
234.950796406806;-0.84991455078125;-0.0248565673828125;3.34999999154206;336;100 mA;
234.960796406781;-0.849609375;-0.024847412109375;3.35999999151682;337;100 mA;
234.970796406756;-0.849609375;-0.0248443603515625;3.36999999149157;338;100 mA;
234.980796406731;-0.84930419921875;-0.024847412109375;3.37999999146632;339;100 mA;
234.990796406705;-0.84991455078125;-0.0248443603515625;3.38999999144107;340;100 mA;
235.00079640668;-0.849609375;-0.02484130859375;3.39999999141583;341;100 mA;
235.010796406655;-0.84930419921875;-0.024835205078125;3.40999999139058;342;100 mA;
235.02079640663;-0.84930419921875;-0.0248321533203125;3.41999999136533;343;100 mA;
235.030796406604;-0.84930419921875;-0.0248321533203125;3.42999999134008;344;100 mA;
235.040796406579;-0.849609375;-0.0248260498046875;3.43999999131483;345;100 mA;
235.050796406554;-0.849609375;-0.0248291015625;3.44999999128959;346;100 mA;
235.060796406529;-0.84930419921875;-0.0248199462890625;3.45999999126434;347;100 mA;
235.070796406503;-0.849609375;-0.024822998046875;3.46999999123909;348;100 mA;
235.080796406478;-0.84991455078125;-0.02481689453125;3.47999999121384;349;100 mA;
235.090796406453;-0.849609375;-0.024810791015625;3.4899999911886;350;100 mA;
235.100796406428;-0.8502197265625;-0.0248138427734375;3.49999999116335;351;100 mA;
235.110796406402;-0.849609375;-0.0248016357421875;3.5099999911381;352;100 mA;
235.120796406377;-0.84991455078125;-0.024798583984375;3.51999999111285;353;100 mA;
235.130796406352;-0.8502197265625;-0.02479248046875;3.52999999108761;354;100 mA;
235.140796406327;-0.84930419921875;-0.0247833251953125;3.53999999106236;355;100 mA;
235.150796406301;-0.849609375;-0.0247802734375;3.54999999103711;356;100 mA;
235.160796406276;-0.84930419921875;-0.02476806640625;3.55999999101186;357;100 mA;
235.170796406251;-0.849609375;-0.024761962890625;3.56999999098662;358;100 mA;
235.180796406226;-0.849609375;-0.024755859375;3.57999999096137;359;100 mA;
235.1907964062;-0.849609375;-0.0247528076171875;3.58999999093612;360;100 mA;
235.200796406175;-0.84991455078125;-0.0247467041015625;3.59999999091087;361;100 mA;
235.21079640615;-0.84930419921875;-0.0247314453125;3.60999999088563;362;100 mA;
235.220796406125;-0.8489990234375;-0.0247283935546875;3.61999999086038;363;100 mA;
235.230796406099;-0.849609375;-0.0247161865234375;3.62999999083513;364;100 mA;
235.240796406074;-0.84930419921875;-0.0247100830078125;3.63999999080988;365;100 mA;
235.250796406049;-0.849609375;-0.0247039794921875;3.64999999078464;366;100 mA;
235.260796406024;-0.84930419921875;-0.024688720703125;3.65999999075939;367;100 mA;
235.270796405998;-0.84930419921875;-0.024676513671875;3.66999999073414;368;100 mA;
235.280796405973;-0.84930419921875;-0.0246673583984375;3.67999999070889;369;100 mA;
235.290796405948;-0.849609375;-0.02464599609375;3.68999999068365;370;100 mA;
235.300796405923;-0.84930419921875;-0.024639892578125;3.6999999906584;371;100 mA;
235.310796405897;-0.849609375;-0.024615478515625;3.70999999063315;372;100 mA;
235.320796405872;-0.84930419921875;-0.0246063232421875;3.7199999906079;373;100 mA;
235.330796405847;-0.84930419921875;-0.0245880126953125;3.72999999058266;374;100 mA;
235.340796405822;-0.84930419921875;-0.02457275390625;3.73999999055741;375;100 mA;
235.350796405796;-0.849609375;-0.0245574951171875;3.74999999053216;376;100 mA;
235.360796405771;-0.84930419921875;-0.0245391845703125;3.75999999050691;377;100 mA;
235.370796405746;-0.84930419921875;-0.0245208740234375;3.76999999048167;378;100 mA;
235.380796405721;-0.84930419921875;-0.0245025634765625;3.77999999045642;379;100 mA;
235.390796405695;-0.849609375;-0.024481201171875;3.78999999043117;380;100 mA;
235.40079640567;-0.84991455078125;-0.0244659423828125;3.79999999040592;381;100 mA;
235.410796405645;-0.849609375;-0.0244415283203125;3.80999999038067;382;100 mA;
235.42079640562;-0.84930419921875;-0.024420166015625;3.81999999035543;383;100 mA;
235.430796405594;-0.84930419921875;-0.0243988037109375;3.82999999033018;384;100 mA;
235.440796405569;-0.849609375;-0.02437744140625;3.83999999030493;385;100 mA;
235.450796405544;-0.84930419921875;-0.0243499755859375;3.84999999027968;386;100 mA;
235.460796405519;-0.84930419921875;-0.02432861328125;3.85999999025444;387;100 mA;
235.470796405493;-0.84991455078125;-0.0243072509765625;3.86999999022919;388;100 mA;
235.480796405468;-0.84991455078125;-0.02427978515625;3.87999999020394;389;100 mA;
235.490796405443;-0.84991455078125;-0.0242584228515625;3.88999999017869;390;100 mA;
235.500796405418;-0.84930419921875;-0.0242340087890625;3.89999999015345;391;100 mA;
235.510796405392;-0.8502197265625;-0.02420654296875;3.9099999901282;392;100 mA;
235.520796405367;-0.84930419921875;-0.02418212890625;3.91999999010295;393;100 mA;
235.530796405342;-0.84930419921875;-0.024163818359375;3.9299999900777;394;100 mA;
235.540796405317;-0.849609375;-0.0241363525390625;3.93999999005246;395;100 mA;
235.550796405291;-0.849609375;-0.02410888671875;3.94999999002721;396;100 mA;
235.560796405266;-0.84991455078125;-0.02408447265625;3.95999999000196;397;100 mA;
235.570796405241;-0.849609375;-0.024053955078125;3.96999998997671;398;100 mA;
235.580796405216;-0.8502197265625;-0.0240325927734375;3.97999998995147;399;100 mA;
235.59079640519;-0.849609375;-0.0240020751953125;3.98999998992622;400;100 mA;
235.600796405165;-0.849609375;-0.023980712890625;3.99999998990097;401;100 mA;
235.61079640514;-0.84991455078125;-0.0239501953125;4.00999998987572;402;100 mA;
235.620796405115;-0.84991455078125;-0.0239227294921875;4.01999998985048;403;100 mA;
235.630796405089;-0.849609375;-0.0239044189453125;4.02999998982523;404;100 mA;
235.640796405064;-0.8489990234375;-0.023870849609375;4.03999998979998;405;100 mA;
235.650796405039;-0.84991455078125;-0.0238525390625;4.04999998977473;406;100 mA;
235.660796405014;-0.849609375;-0.0238189697265625;4.05999998974949;407;100 mA;
235.670796404988;-0.84930419921875;-0.0237945556640625;4.06999998972424;408;100 mA;
235.680796404963;-0.84930419921875;-0.023773193359375;4.07999998969899;409;100 mA;
235.690796404938;-0.849609375;-0.0237396240234375;4.08999998967374;410;100 mA;
235.700796404913;-0.84991455078125;-0.02371826171875;4.0999999896485;411;100 mA;
235.710796404887;-0.8502197265625;-0.023681640625;4.10999998962325;412;100 mA;
235.720796404862;-0.84991455078125;-0.0236602783203125;4.119999989598;413;100 mA;
235.730796404837;-0.8489990234375;-0.0236358642578125;4.12999998957275;414;100 mA;
235.740796404812;-0.84991455078125;-0.023602294921875;4.1399999895475;415;100 mA;
235.750796404786;-0.8489990234375;-0.023577880859375;4.14999998952226;416;100 mA;
235.760796404761;-0.84991455078125;-0.0235443115234375;4.15999998949701;417;100 mA;
235.770796404736;-0.8502197265625;-0.0235198974609375;4.16999998947176;418;100 mA;
235.780796404711;-0.849609375;-0.02349853515625;4.17999998944651;419;100 mA;
235.790796404685;-0.84991455078125;-0.0234649658203125;4.18999998942127;420;100 mA;
235.80079640466;-0.84930419921875;-0.0234405517578125;4.19999998939602;421;100 mA;
235.810796404635;-0.84991455078125;-0.0234161376953125;4.20999998937077;422;100 mA;
235.82079640461;-0.849609375;-0.0233856201171875;4.21999998934552;423;100 mA;
235.830796404584;-0.849609375;-0.0233673095703125;4.22999998932028;424;100 mA;
235.840796404559;-0.84930419921875;-0.0233306884765625;4.23999998929503;425;100 mA;
235.850796404534;-0.849609375;-0.0233062744140625;4.24999998926978;426;100 mA;
235.860796404509;-0.849609375;-0.02327880859375;4.25999998924453;427;100 mA;
235.870796404483;-0.84991455078125;-0.02325439453125;4.26999998921929;428;100 mA;
235.880796404458;-0.84991455078125;-0.0232330322265625;4.27999998919404;429;100 mA;
235.890796404433;-0.849609375;-0.023199462890625;4.28999998916879;430;100 mA;
235.900796404408;-0.84991455078125;-0.0231781005859375;4.29999998914354;431;100 mA;
235.910796404382;-0.849609375;-0.02314453125;4.3099999891183;432;100 mA;
235.920796404357;-0.849609375;-0.0231201171875;4.31999998909305;433;100 mA;
235.930796404332;-0.84930419921875;-0.023101806640625;4.3299999890678;434;100 mA;
235.940796404307;-0.849609375;-0.0230743408203125;4.33999998904255;435;100 mA;
235.950796404282;-0.849609375;-0.023052978515625;4.34999998901731;436;100 mA;
235.960796404256;-0.849609375;-0.0230224609375;4.35999998899206;437;100 mA;
235.970796404231;-0.849609375;-0.0230010986328125;4.36999998896681;438;100 mA;
235.980796404206;-0.84930419921875;-0.022979736328125;4.37999998894156;439;100 mA;
235.990796404181;-0.849609375;-0.022955322265625;4.38999998891632;440;100 mA;
236.000796404155;-0.84930419921875;-0.02293701171875;4.39999998889107;441;100 mA;
236.01079640413;-0.84991455078125;-0.022906494140625;4.40999998886582;442;100 mA;
236.020796404105;-0.8502197265625;-0.0228912353515625;4.41999998884057;443;100 mA;
236.03079640408;-0.849609375;-0.0228668212890625;4.42999998881533;444;100 mA;
236.040796404054;-0.849609375;-0.0228424072265625;4.43999998879008;445;100 mA;
236.050796404029;-0.84991455078125;-0.0228240966796875;4.44999998876483;446;100 mA;
236.060796404004;-0.84991455078125;-0.022796630859375;4.45999998873958;447;100 mA;
236.070796403979;-0.849609375;-0.0227813720703125;4.46999998871433;448;100 mA;
236.080796403953;-0.84930419921875;-0.0227630615234375;4.47999998868909;449;100 mA;
236.090796403928;-0.8489990234375;-0.0227386474609375;4.48999998866384;450;100 mA;
236.100796403903;-0.84930419921875;-0.0227264404296875;4.49999998863859;451;100 mA;
236.110796403878;-0.84930419921875;-0.02269287109375;4.50999998861334;452;100 mA;
236.120796403852;-0.849609375;-0.022686767578125;4.5199999885881;453;100 mA;
236.130796403827;-0.84930419921875;-0.022662353515625;4.52999998856285;454;100 mA;
236.140796403802;-0.849609375;-0.0226409912109375;4.5399999885376;455;100 mA;
236.150796403777;-0.84930419921875;-0.02261962890625;4.54999998851235;456;100 mA;
236.160796403751;-0.849609375;-0.0225982666015625;4.55999998848711;457;100 mA;
236.170796403726;-0.84930419921875;-0.0225799560546875;4.56999998846186;458;100 mA;
236.180796403701;-0.84930419921875;-0.02255859375;4.57999998843661;459;100 mA;
236.190796403676;-0.84991455078125;-0.0225372314453125;4.58999998841136;460;100 mA;
236.20079640365;-0.849609375;-0.02252197265625;4.59999998838612;461;100 mA;
236.210796403625;-0.84930419921875;-0.0224945068359375;4.60999998836087;462;100 mA;
236.2207964036;-0.84930419921875;-0.022479248046875;4.61999998833562;463;100 mA;
236.230796403575;-0.84930419921875;-0.0224578857421875;4.62999998831037;464;100 mA;
236.240796403549;-0.84930419921875;-0.0224365234375;4.63999998828513;465;100 mA;
236.250796403524;-0.84930419921875;-0.02242431640625;4.64999998825988;466;100 mA;
236.260796403499;-0.849609375;-0.0223907470703125;4.65999998823463;467;100 mA;
236.270796403474;-0.84930419921875;-0.022381591796875;4.66999998820938;468;100 mA;
236.280796403448;-0.84930419921875;-0.022357177734375;4.67999998818414;469;100 mA;
236.290796403423;-0.84930419921875;-0.0223388671875;4.68999998815889;470;100 mA;
236.300796403398;-0.84991455078125;-0.0223236083984375;4.69999998813364;471;100 mA;
236.310796403373;-0.84930419921875;-0.0222930908203125;4.70999998810839;472;100 mA;
236.320796403347;-0.849609375;-0.022283935546875;4.71999998808315;473;100 mA;
236.330796403322;-0.84930419921875;-0.022259521484375;4.7299999880579;474;100 mA;
236.340796403297;-0.849609375;-0.0222381591796875;4.73999998803265;475;100 mA;
236.350796403272;-0.84991455078125;-0.0222198486328125;4.7499999880074;476;100 mA;
236.360796403246;-0.849609375;-0.0221923828125;4.75999998798216;477;100 mA;
236.370796403221;-0.849609375;-0.0221771240234375;4.76999998795691;478;100 mA;
236.380796403196;-0.84991455078125;-0.02215576171875;4.77999998793166;479;100 mA;
236.390796403171;-0.849609375;-0.02213134765625;4.78999998790641;480;100 mA;
236.400796403145;-0.849609375;-0.022119140625;4.79999998788116;481;100 mA;
236.41079640312;-0.84930419921875;-0.022088623046875;4.80999998785592;482;100 mA;
236.420796403095;-0.84991455078125;-0.0220794677734375;4.81999998783067;483;100 mA;
236.43079640307;-0.849609375;-0.02205810546875;4.82999998780542;484;100 mA;
236.440796403044;-0.849609375;-0.0220367431640625;4.83999998778017;485;100 mA;
236.450796403019;-0.849609375;-0.022021484375;4.84999998775493;486;100 mA;
236.460796402994;-0.84991455078125;-0.0220001220703125;4.85999998772968;487;100 mA;
236.470796402969;-0.8489990234375;-0.02198486328125;4.86999998770443;488;100 mA;
236.480796402943;-0.849609375;-0.021966552734375;4.87999998767918;489;100 mA;
236.490796402918;-0.849609375;-0.0219451904296875;4.88999998765394;490;100 mA;
236.500796402893;-0.84930419921875;-0.021929931640625;4.89999998762869;491;100 mA;
236.510796402868;-0.84930419921875;-0.021905517578125;4.90999998760344;492;100 mA;
236.520796402842;-0.84930419921875;-0.0218963623046875;4.91999998757819;493;100 mA;
236.530796402817;-0.84991455078125;-0.021875;4.92999998755295;494;100 mA;
236.540796402792;-0.84991455078125;-0.0218597412109375;4.9399999875277;495;100 mA;
236.550796402767;-0.849609375;-0.021844482421875;4.94999998750245;496;100 mA;
236.560796402741;-0.849609375;-0.021826171875;4.9599999874772;497;100 mA;
236.570796402716;-0.84991455078125;-0.021820068359375;4.96999998745196;498;100 mA;
236.580796402691;-0.84991455078125;-0.0218017578125;4.97999998742671;499;100 mA;
236.590796402666;-0.84991455078125;-0.021783447265625;4.98999998740146;500;100 mA;
236.60079640264;-0.849609375;-0.0217742919921875;4.99999998737621;501;100 mA;
236.610796402615;-0.84930419921875;-0.0217529296875;5.00999998735097;502;100 mA;
236.62079640259;-0.84991455078125;-0.0217437744140625;5.01999998732572;503;100 mA;
236.630796402565;-0.849609375;-0.0217254638671875;5.02999998730047;504;100 mA;
236.640796402539;-0.849609375;-0.0217071533203125;5.03999998727522;505;100 mA;
236.650796402514;-0.84930419921875;-0.021697998046875;5.04999998724998;506;100 mA;
236.660796402489;-0.849609375;-0.021673583984375;5.05999998722473;507;100 mA;
236.670796402464;-0.8502197265625;-0.0216705322265625;5.06999998719948;508;100 mA;
236.680796402438;-0.84991455078125;-0.021649169921875;5.07999998717423;509;100 mA;
236.690796402413;-0.849609375;-0.021630859375;5.08999998714899;510;100 mA;
236.700796402388;-0.849609375;-0.0216217041015625;5.09999998712374;511;100 mA;
236.710796402363;-0.849609375;-0.0216033935546875;5.10999998709849;512;100 mA;
236.720796402337;-0.84930419921875;-0.021588134765625;5.11999998707324;513;100 mA;
236.730796402312;-0.84930419921875;-0.0215728759765625;5.129999987048;514;100 mA;
236.740796402287;-0.84930419921875;-0.0215576171875;5.13999998702275;515;100 mA;
236.750796402262;-0.84991455078125;-0.02154541015625;5.1499999869975;516;100 mA;
236.760796402236;-0.849609375;-0.0215301513671875;5.15999998697225;517;100 mA;
236.770796402211;-0.84991455078125;-0.02152099609375;5.169999986947;518;100 mA;
236.780796402186;-0.84930419921875;-0.0215057373046875;5.17999998692176;519;100 mA;
236.790796402161;-0.849609375;-0.0214935302734375;5.18999998689651;520;100 mA;
236.800796402135;-0.84930419921875;-0.021478271484375;5.19999998687126;521;100 mA;
236.81079640211;-0.849609375;-0.0214599609375;5.20999998684601;522;100 mA;
236.820796402085;-0.84930419921875;-0.0214508056640625;5.21999998682077;523;100 mA;
236.83079640206;-0.84991455078125;-0.021441650390625;5.22999998679552;524;100 mA;
236.840796402034;-0.84930419921875;-0.0214202880859375;5.23999998677027;525;100 mA;
236.850796402009;-0.849609375;-0.0214111328125;5.24999998674502;526;100 mA;
236.860796401984;-0.849609375;-0.021392822265625;5.25999998671978;527;100 mA;
236.870796401959;-0.84930419921875;-0.0213836669921875;5.26999998669453;528;100 mA;
236.880796401933;-0.84991455078125;-0.021368408203125;5.27999998666928;529;100 mA;
236.890796401908;-0.849609375;-0.0213531494140625;5.28999998664403;530;100 mA;
236.900796401883;-0.849609375;-0.021343994140625;5.29999998661879;531;100 mA;
236.910796401858;-0.8489990234375;-0.0213287353515625;5.30999998659354;532;100 mA;
236.920796401832;-0.84991455078125;-0.0213287353515625;5.31999998656829;533;100 mA;
236.930796401807;-0.84991455078125;-0.0213104248046875;5.32999998654304;534;100 mA;
236.940796401782;-0.84991455078125;-0.0212921142578125;5.3399999865178;535;100 mA;
236.950796401757;-0.849609375;-0.0212890625;5.34999998649255;536;100 mA;
236.960796401731;-0.849609375;-0.0212677001953125;5.3599999864673;537;100 mA;
236.970796401706;-0.84991455078125;-0.0212646484375;5.36999998644205;538;100 mA;
236.980796401681;-0.849609375;-0.0212554931640625;5.37999998641681;539;100 mA;
236.990796401656;-0.84930419921875;-0.021234130859375;5.38999998639156;540;100 mA;
237.000796401631;-0.849609375;-0.02122802734375;5.39999998636631;541;100 mA;
237.010796401605;-0.849609375;-0.0212127685546875;5.40999998634106;542;100 mA;
237.02079640158;-0.84991455078125;-0.021209716796875;5.41999998631582;543;100 mA;
237.030796401555;-0.849609375;-0.021197509765625;5.42999998629057;544;100 mA;
237.04079640153;-0.84930419921875;-0.021185302734375;5.43999998626532;545;100 mA;
237.050796401504;-0.849609375;-0.02117919921875;5.44999998624007;546;100 mA;
237.060796401479;-0.84930419921875;-0.021160888671875;5.45999998621483;547;100 mA;
237.070796401454;-0.84930419921875;-0.0211578369140625;5.46999998618958;548;100 mA;
237.080796401429;-0.8502197265625;-0.0211456298828125;5.47999998616433;549;100 mA;
237.090796401403;-0.84991455078125;-0.02113037109375;5.48999998613908;550;100 mA;
237.100796401378;-0.84930419921875;-0.0211273193359375;5.49999998611383;551;100 mA;
237.110796401353;-0.849609375;-0.0211090087890625;5.50999998608859;552;100 mA;
237.120796401328;-0.84930419921875;-0.02110595703125;5.51999998606334;553;100 mA;
237.130796401302;-0.849609375;-0.0210968017578125;5.52999998603809;554;100 mA;
237.140796401277;-0.849609375;-0.0210845947265625;5.53999998601284;555;100 mA;
237.150796401252;-0.849609375;-0.02108154296875;5.5499999859876;556;100 mA;
237.160796401227;-0.8502197265625;-0.0210662841796875;5.55999998596235;557;100 mA;
237.170796401201;-0.849609375;-0.021063232421875;5.5699999859371;558;100 mA;
237.180796401176;-0.849609375;-0.021051025390625;5.57999998591185;559;100 mA;
237.190796401151;-0.849609375;-0.021038818359375;5.58999998588661;560;100 mA;
237.200796401126;-0.84930419921875;-0.0210357666015625;5.59999998586136;561;100 mA;
237.2107964011;-0.8502197265625;-0.0210205078125;5.60999998583611;562;100 mA;
237.220796401075;-0.84930419921875;-0.021014404296875;5.61999998581086;563;100 mA;
237.23079640105;-0.849609375;-0.02100830078125;5.62999998578562;564;100 mA;
237.240796401025;-0.84930419921875;-0.0209930419921875;5.63999998576037;565;100 mA;
237.250796400999;-0.84991455078125;-0.02098388671875;5.64999998573512;566;100 mA;
237.260796400974;-0.849609375;-0.0209686279296875;5.65999998570987;567;100 mA;
237.270796400949;-0.84930419921875;-0.0209686279296875;5.66999998568463;568;100 mA;
237.280796400924;-0.84930419921875;-0.0209503173828125;5.67999998565938;569;100 mA;
237.290796400898;-0.84930419921875;-0.02093505859375;5.68999998563413;570;100 mA;
237.300796400873;-0.849609375;-0.020928955078125;5.69999998560888;571;100 mA;
237.310796400848;-0.849609375;-0.0209075927734375;5.70999998558364;572;100 mA;
237.320796400823;-0.84930419921875;-0.020904541015625;5.71999998555839;573;100 mA;
237.330796400797;-0.849609375;-0.0208953857421875;5.72999998553314;574;100 mA;
237.340796400772;-0.849609375;-0.020880126953125;5.73999998550789;575;100 mA;
237.350796400747;-0.849609375;-0.020867919921875;5.74999998548265;576;100 mA;
237.360796400722;-0.84991455078125;-0.020855712890625;5.7599999854574;577;100 mA;
237.370796400696;-0.849609375;-0.0208465576171875;5.76999998543215;578;100 mA;
237.380796400671;-0.8502197265625;-0.0208404541015625;5.7799999854069;579;100 mA;
237.390796400646;-0.84991455078125;-0.0208221435546875;5.78999998538166;580;100 mA;
237.400796400621;-0.84991455078125;-0.02081298828125;5.79999998535641;581;100 mA;
237.410796400595;-0.84991455078125;-0.02080078125;5.80999998533116;582;100 mA;
237.42079640057;-0.84930419921875;-0.0207977294921875;5.81999998530591;583;100 mA;
237.430796400545;-0.84930419921875;-0.020794677734375;5.82999998528066;584;100 mA;
237.44079640052;-0.84930419921875;-0.0207855224609375;5.83999998525542;585;100 mA;
237.450796400494;-0.84930419921875;-0.0207855224609375;5.84999998523017;586;100 mA;
237.460796400469;-0.849609375;-0.0207763671875;5.85999998520492;587;100 mA;
237.470796400444;-0.84930419921875;-0.0207855224609375;5.86999998517967;588;100 mA;
237.480796400419;-0.84930419921875;-0.0207763671875;5.87999998515443;589;100 mA;
237.490796400393;-0.84991455078125;-0.0207763671875;5.88999998512918;590;100 mA;
237.500796400368;-0.849609375;-0.0207763671875;5.89999998510393;591;100 mA;
237.510796400343;-0.849609375;-0.0207794189453125;5.90999998507868;592;100 mA;
237.520796400318;-0.84991455078125;-0.020782470703125;5.91999998505344;593;100 mA;
237.530796400292;-0.849609375;-0.0207855224609375;5.92999998502819;594;100 mA;
237.540796400267;-0.84930419921875;-0.0207916259765625;5.93999998500294;595;100 mA;
237.550796400242;-0.849609375;-0.020794677734375;5.94999998497769;596;100 mA;
237.560796400217;-0.84930419921875;-0.020794677734375;5.95999998495245;597;100 mA;
237.570796400191;-0.84930419921875;-0.02081298828125;5.9699999849272;598;100 mA;
237.580796400166;-0.84991455078125;-0.02081298828125;5.97999998490195;599;100 mA;
237.590796400141;-0.849609375;-0.0208221435546875;5.9899999848767;600;100 mA;
237.600796400116;-0.849609375;-0.0208343505859375;5.99999998485146;601;100 mA;
237.61079640009;-0.849609375;-0.02083740234375;6.00999998482621;602;100 mA;
237.620796400065;-0.84991455078125;-0.020855712890625;6.01999998480096;603;100 mA;
237.63079640004;-0.84991455078125;-0.0208648681640625;6.02999998477571;604;100 mA;
237.640796400015;-0.84930419921875;-0.0208709716796875;6.03999998475047;605;100 mA;
237.650796399989;-0.84930419921875;-0.0208831787109375;6.04999998472522;606;100 mA;
237.660796399964;-0.849609375;-0.02088623046875;6.05999998469997;607;100 mA;
237.670796399939;-0.8502197265625;-0.0208984375;6.06999998467472;608;100 mA;
237.680796399914;-0.84930419921875;-0.0209014892578125;6.07999998464948;609;100 mA;
237.690796399888;-0.84930419921875;-0.02091064453125;6.08999998462423;610;100 mA;
237.700796399863;-0.84930419921875;-0.0209228515625;6.09999998459898;611;100 mA;
237.710796399838;-0.849609375;-0.0209197998046875;6.10999998457373;612;100 mA;
237.720796399813;-0.84930419921875;-0.02093505859375;6.11999998454849;613;100 mA;
237.730796399787;-0.84930419921875;-0.020941162109375;6.12999998452324;614;100 mA;
237.740796399762;-0.849609375;-0.0209442138671875;6.13999998449799;615;100 mA;
237.750796399737;-0.84930419921875;-0.020953369140625;6.14999998447274;616;100 mA;
237.760796399712;-0.84930419921875;-0.020953369140625;6.1599999844475;617;100 mA;
237.770796399686;-0.849609375;-0.02095947265625;6.16999998442225;618;100 mA;
237.780796399661;-0.849609375;-0.0209564208984375;6.179999984397;619;100 mA;
237.790796399636;-0.84991455078125;-0.0209625244140625;6.18999998437175;620;100 mA;
237.800796399611;-0.84991455078125;-0.0209625244140625;6.1999999843465;621;100 mA;
237.810796399585;-0.84991455078125;-0.020953369140625;6.20999998432126;622;100 mA;
237.82079639956;-0.849609375;-0.0209564208984375;6.21999998429601;623;100 mA;
237.830796399535;-0.849609375;-0.02095947265625;6.22999998427076;624;100 mA;
237.84079639951;-0.84991455078125;-0.0209503173828125;6.23999998424551;625;100 mA;
237.850796399484;-0.849609375;-0.020953369140625;6.24999998422027;626;100 mA;
237.860796399459;-0.84930419921875;-0.0209442138671875;6.25999998419502;627;100 mA;
237.870796399434;-0.84930419921875;-0.0209442138671875;6.26999998416977;628;100 mA;
237.880796399409;-0.849609375;-0.02093505859375;6.27999998414452;629;100 mA;
237.890796399383;-0.849609375;-0.020928955078125;6.28999998411928;630;100 mA;
237.900796399358;-0.84930419921875;-0.0209259033203125;6.29999998409403;631;100 mA;
237.910796399333;-0.849609375;-0.0209075927734375;6.30999998406878;632;100 mA;
237.920796399308;-0.8489990234375;-0.0209075927734375;6.31999998404353;633;100 mA;
237.930796399282;-0.849609375;-0.0208953857421875;6.32999998401829;634;100 mA;
237.940796399257;-0.849609375;-0.0208831787109375;6.33999998399304;635;100 mA;
237.950796399232;-0.849609375;-0.020867919921875;6.34999998396779;636;100 mA;
237.960796399207;-0.84930419921875;-0.02086181640625;6.35999998394254;637;100 mA;
237.970796399181;-0.849609375;-0.0208526611328125;6.3699999839173;638;100 mA;
237.980796399156;-0.849609375;-0.0208404541015625;6.37999998389205;639;100 mA;
237.990796399131;-0.84991455078125;-0.0208251953125;6.3899999838668;640;100 mA;
238.000796399106;-0.84991455078125;-0.0208160400390625;6.39999998384155;641;100 mA;
238.010796399081;-0.84930419921875;-0.020794677734375;6.40999998381631;642;100 mA;
238.020796399055;-0.849609375;-0.02078857421875;6.41999998379106;643;100 mA;
238.03079639903;-0.84991455078125;-0.020770263671875;6.42999998376581;644;100 mA;
238.040796399005;-0.84991455078125;-0.020758056640625;6.43999998374056;645;100 mA;
238.05079639898;-0.8489990234375;-0.020745849609375;6.44999998371532;646;100 mA;
238.060796398954;-0.84930419921875;-0.0207305908203125;6.45999998369007;647;100 mA;
238.070796398929;-0.849609375;-0.020721435546875;6.46999998366482;648;100 mA;
238.080796398904;-0.84991455078125;-0.0207061767578125;6.47999998363957;649;100 mA;
238.090796398879;-0.84930419921875;-0.020684814453125;6.48999998361433;650;100 mA;
238.100796398853;-0.84991455078125;-0.0206787109375;6.49999998358908;651;100 mA;
238.110796398828;-0.84991455078125;-0.020654296875;6.50999998356383;652;100 mA;
238.120796398803;-0.84991455078125;-0.0206451416015625;6.51999998353858;653;100 mA;
238.130796398778;-0.849609375;-0.0206329345703125;6.52999998351333;654;100 mA;
238.140796398752;-0.849609375;-0.020611572265625;6.53999998348809;655;100 mA;
238.150796398727;-0.84930419921875;-0.02060546875;6.54999998346284;656;100 mA;
238.160796398702;-0.84930419921875;-0.0205902099609375;6.55999998343759;657;100 mA;
238.170796398677;-0.84991455078125;-0.0205780029296875;6.56999998341234;658;100 mA;
238.180796398651;-0.84991455078125;-0.0205657958984375;6.5799999833871;659;100 mA;
238.190796398626;-0.849609375;-0.020550537109375;6.58999998336185;660;100 mA;
238.200796398601;-0.84991455078125;-0.0205413818359375;6.5999999833366;661;100 mA;
238.210796398576;-0.849609375;-0.0205291748046875;6.60999998331135;662;100 mA;
238.22079639855;-0.84930419921875;-0.02052001953125;6.61999998328611;663;100 mA;
238.230796398525;-0.84930419921875;-0.0205108642578125;6.62999998326086;664;100 mA;
238.2407963985;-0.849609375;-0.0204986572265625;6.63999998323561;665;100 mA;
238.250796398475;-0.849609375;-0.0204864501953125;6.64999998321036;666;100 mA;
238.260796398449;-0.84991455078125;-0.020477294921875;6.65999998318512;667;100 mA;
238.270796398424;-0.849609375;-0.02047119140625;6.66999998315987;668;100 mA;
238.280796398399;-0.849609375;-0.020458984375;6.67999998313462;669;100 mA;
238.290796398374;-0.84930419921875;-0.02044677734375;6.68999998310937;670;100 mA;
238.300796398348;-0.84930419921875;-0.020440673828125;6.69999998308413;671;100 mA;
238.310796398323;-0.84930419921875;-0.0204254150390625;6.70999998305888;672;100 mA;
238.320796398298;-0.8489990234375;-0.02042236328125;6.71999998303363;673;100 mA;
238.330796398273;-0.84930419921875;-0.020416259765625;6.72999998300838;674;100 mA;
238.340796398247;-0.849609375;-0.0204010009765625;6.73999998298314;675;100 mA;
238.350796398222;-0.8502197265625;-0.02039794921875;6.74999998295789;676;100 mA;
238.360796398197;-0.849609375;-0.0203826904296875;6.75999998293264;677;100 mA;
238.370796398172;-0.849609375;-0.020379638671875;6.76999998290739;678;100 mA;
238.380796398146;-0.84991455078125;-0.020367431640625;6.77999998288215;679;100 mA;
238.390796398121;-0.849609375;-0.0203582763671875;6.7899999828569;680;100 mA;
238.400796398096;-0.84991455078125;-0.0203521728515625;6.79999998283165;681;100 mA;
238.410796398071;-0.849609375;-0.0203399658203125;6.8099999828064;682;100 mA;
238.420796398045;-0.84991455078125;-0.0203399658203125;6.81999998278116;683;100 mA;
238.43079639802;-0.849609375;-0.020330810546875;6.82999998275591;684;100 mA;
238.440796397995;-0.84930419921875;-0.0203216552734375;6.83999998273066;685;100 mA;
238.45079639797;-0.84930419921875;-0.020318603515625;6.84999998270541;686;100 mA;
238.460796397944;-0.849609375;-0.020306396484375;6.85999998268016;687;100 mA;
238.470796397919;-0.849609375;-0.0203033447265625;6.86999998265492;688;100 mA;
238.480796397894;-0.849609375;-0.0202911376953125;6.87999998262967;689;100 mA;
238.490796397869;-0.84991455078125;-0.0202850341796875;6.88999998260442;690;100 mA;
238.500796397843;-0.84991455078125;-0.0202789306640625;6.89999998257917;691;100 mA;
238.510796397818;-0.849609375;-0.020269775390625;6.90999998255393;692;100 mA;
238.520796397793;-0.84930419921875;-0.020269775390625;6.91999998252868;693;100 mA;
238.530796397768;-0.84991455078125;-0.020257568359375;6.92999998250343;694;100 mA;
238.540796397742;-0.84930419921875;-0.020257568359375;6.93999998247818;695;100 mA;
238.550796397717;-0.84930419921875;-0.0202484130859375;6.94999998245294;696;100 mA;
238.560796397692;-0.84991455078125;-0.0202484130859375;6.95999998242769;697;100 mA;
238.570796397667;-0.849609375;-0.0202484130859375;6.96999998240244;698;100 mA;
238.580796397641;-0.84930419921875;-0.0202362060546875;6.97999998237719;699;100 mA;
238.590796397616;-0.8489990234375;-0.0202392578125;6.98999998235195;700;100 mA;
238.600796397591;-0.84991455078125;-0.0202423095703125;6.9999999823267;701;100 mA;
238.610796397566;-0.84991455078125;-0.02022705078125;7.00999998230145;702;100 mA;
238.62079639754;-0.84930419921875;-0.0202362060546875;7.0199999822762;703;100 mA;
238.630796397515;-0.84930419921875;-0.020233154296875;7.02999998225096;704;100 mA;
238.64079639749;-0.84930419921875;-0.0202301025390625;7.03999998222571;705;100 mA;
238.650796397465;-0.84930419921875;-0.0202362060546875;7.04999998220046;706;100 mA;
238.660796397439;-0.849609375;-0.0202301025390625;7.05999998217521;707;100 mA;
238.670796397414;-0.8489990234375;-0.0202392578125;7.06999998214997;708;100 mA;
238.680796397389;-0.849609375;-0.0202423095703125;7.07999998212472;709;100 mA;
238.690796397364;-0.8489990234375;-0.0202392578125;7.08999998209947;710;100 mA;
238.700796397338;-0.849609375;-0.0202423095703125;7.09999998207422;711;100 mA;
238.710796397313;-0.84869384765625;-0.0202484130859375;7.10999998204898;712;100 mA;
238.720796397288;-0.849609375;-0.020257568359375;7.11999998202373;713;100 mA;
238.730796397263;-0.84991455078125;-0.020257568359375;7.12999998199848;714;100 mA;
238.740796397237;-0.8502197265625;-0.020263671875;7.13999998197323;715;100 mA;
238.750796397212;-0.8489990234375;-0.020269775390625;7.14999998194799;716;100 mA;
238.760796397187;-0.849609375;-0.0202728271484375;7.15999998192274;717;100 mA;
238.770796397162;-0.84930419921875;-0.0202880859375;7.16999998189749;718;100 mA;
238.780796397136;-0.849609375;-0.0202911376953125;7.17999998187224;719;100 mA;
238.790796397111;-0.84930419921875;-0.0202972412109375;7.189999981847;720;100 mA;
238.800796397086;-0.84991455078125;-0.0203125;7.19999998182175;721;100 mA;
238.810796397061;-0.8502197265625;-0.0203125;7.2099999817965;722;100 mA;
238.820796397035;-0.849609375;-0.0203338623046875;7.21999998177125;723;100 mA;
238.83079639701;-0.84930419921875;-0.020343017578125;7.229999981746;724;100 mA;
238.840796396985;-0.84930419921875;-0.020355224609375;7.23999998172076;725;100 mA;
238.85079639696;-0.84991455078125;-0.0203704833984375;7.24999998169551;726;100 mA;
238.860796396934;-0.849609375;-0.0203857421875;7.25999998167026;727;100 mA;
238.870796396909;-0.84930419921875;-0.0204071044921875;7.26999998164501;728;100 mA;
238.880796396884;-0.84930419921875;-0.02042236328125;7.27999998161977;729;100 mA;
238.890796396859;-0.84991455078125;-0.0204315185546875;7.28999998159452;730;100 mA;
238.900796396833;-0.849609375;-0.0204620361328125;7.29999998156927;731;100 mA;
238.910796396808;-0.8502197265625;-0.0204681396484375;7.30999998154402;732;100 mA;
238.920796396783;-0.84991455078125;-0.02049560546875;7.31999998151878;733;100 mA;
238.930796396758;-0.84991455078125;-0.0205108642578125;7.32999998149353;734;100 mA;
238.940796396732;-0.84991455078125;-0.0205291748046875;7.33999998146828;735;100 mA;
238.950796396707;-0.84991455078125;-0.020556640625;7.34999998144303;736;100 mA;
238.960796396682;-0.84991455078125;-0.0205718994140625;7.35999998141779;737;100 mA;
238.970796396657;-0.8489990234375;-0.0206024169921875;7.36999998139254;738;100 mA;
238.980796396631;-0.849609375;-0.0206298828125;7.37999998136729;739;100 mA;
238.990796396606;-0.84930419921875;-0.020654296875;7.38999998134204;740;100 mA;
239.000796396581;-0.849609375;-0.020684814453125;7.3999999813168;741;100 mA;
239.010796396556;-0.849609375;-0.0207122802734375;7.40999998129155;742;100 mA;
239.02079639653;-0.849609375;-0.0207550048828125;7.4199999812663;743;100 mA;
239.030796396505;-0.84930419921875;-0.0207763671875;7.42999998124105;744;100 mA;
239.04079639648;-0.849609375;-0.02080078125;7.43999998121581;745;100 mA;
239.050796396455;-0.84991455078125;-0.020831298828125;7.44999998119056;746;100 mA;
239.06079639643;-0.84930419921875;-0.02086181640625;7.45999998116531;747;100 mA;
239.070796396404;-0.849609375;-0.02088623046875;7.46999998114006;748;100 mA;
239.080796396379;-0.84991455078125;-0.0209136962890625;7.47999998111482;749;100 mA;
239.090796396354;-0.84991455078125;-0.0209320068359375;7.48999998108957;750;100 mA;
239.100796396329;-0.849609375;-0.02095947265625;7.49999998106432;751;100 mA;
239.110796396303;-0.84991455078125;-0.0209747314453125;7.50999998103907;752;100 mA;
239.120796396278;-0.849609375;-0.0210113525390625;7.51999998101383;753;100 mA;
239.130796396253;-0.84930419921875;-0.021026611328125;7.52999998098858;754;100 mA;
239.140796396228;-0.84930419921875;-0.021051025390625;7.53999998096333;755;100 mA;
239.150796396202;-0.849609375;-0.0210723876953125;7.54999998093808;756;100 mA;
239.160796396177;-0.849609375;-0.0210906982421875;7.55999998091283;757;100 mA;
239.170796396152;-0.8502197265625;-0.0211181640625;7.56999998088759;758;100 mA;
239.180796396127;-0.84930419921875;-0.0211334228515625;7.57999998086234;759;100 mA;
239.190796396101;-0.849609375;-0.0211517333984375;7.58999998083709;760;100 mA;
239.200796396076;-0.84991455078125;-0.021173095703125;7.59999998081184;761;100 mA;
239.210796396051;-0.84991455078125;-0.021185302734375;7.6099999807866;762;100 mA;
239.220796396026;-0.84991455078125;-0.0212188720703125;7.61999998076135;763;100 mA;
239.230796396;-0.84991455078125;-0.021234130859375;7.6299999807361;764;100 mA;
239.240796395975;-0.84930419921875;-0.02125244140625;7.63999998071085;765;100 mA;
239.25079639595;-0.84991455078125;-0.02127685546875;7.64999998068561;766;100 mA;
239.260796395925;-0.849609375;-0.0212921142578125;7.65999998066036;767;100 mA;
239.270796395899;-0.84930419921875;-0.0213226318359375;7.66999998063511;768;100 mA;
239.280796395874;-0.849609375;-0.0213409423828125;7.67999998060986;769;100 mA;
239.290796395849;-0.84930419921875;-0.0213623046875;7.68999998058462;770;100 mA;
239.300796395824;-0.84930419921875;-0.02138671875;7.69999998055937;771;100 mA;
239.310796395798;-0.849609375;-0.02139892578125;7.70999998053412;772;100 mA;
239.320796395773;-0.849609375;-0.0214263916015625;7.71999998050887;773;100 mA;
239.330796395748;-0.849609375;-0.0214447021484375;7.72999998048363;774;100 mA;
239.340796395723;-0.84930419921875;-0.0214630126953125;7.73999998045838;775;100 mA;
239.350796395697;-0.84930419921875;-0.021484375;7.74999998043313;776;100 mA;
239.360796395672;-0.849609375;-0.021502685546875;7.75999998040788;777;100 mA;
239.370796395647;-0.84930419921875;-0.021527099609375;7.76999998038264;778;100 mA;
239.380796395622;-0.849609375;-0.0215484619140625;7.77999998035739;779;100 mA;
239.390796395596;-0.84991455078125;-0.021563720703125;7.78999998033214;780;100 mA;
239.400796395571;-0.84930419921875;-0.021588134765625;7.79999998030689;781;100 mA;
239.410796395546;-0.849609375;-0.021600341796875;7.80999998028165;782;100 mA;
239.420796395521;-0.84930419921875;-0.0216278076171875;7.8199999802564;783;100 mA;
239.430796395495;-0.84991455078125;-0.0216461181640625;7.82999998023115;784;100 mA;
239.44079639547;-0.849609375;-0.021661376953125;7.8399999802059;785;100 mA;
239.450796395445;-0.849609375;-0.0216766357421875;7.84999998018066;786;100 mA;
239.46079639542;-0.849609375;-0.0216949462890625;7.85999998015541;787;100 mA;
239.470796395394;-0.84930419921875;-0.0217193603515625;7.86999998013016;788;100 mA;
239.480796395369;-0.849609375;-0.021722412109375;7.87999998010491;789;100 mA;
239.490796395344;-0.84991455078125;-0.0217315673828125;7.88999998007966;790;100 mA;
239.500796395319;-0.849609375;-0.0217437744140625;7.89999998005442;791;100 mA;
239.510796395293;-0.84991455078125;-0.021746826171875;7.90999998002917;792;100 mA;
239.520796395268;-0.84930419921875;-0.02176513671875;7.91999998000392;793;100 mA;
239.530796395243;-0.849609375;-0.021771240234375;7.92999997997867;794;100 mA;
239.540796395218;-0.849609375;-0.0217803955078125;7.93999997995343;795;100 mA;
239.550796395192;-0.84991455078125;-0.0218017578125;7.94999997992818;796;100 mA;
239.560796395167;-0.84930419921875;-0.0218109130859375;7.95999997990293;797;100 mA;
239.570796395142;-0.84930419921875;-0.0218231201171875;7.96999997987768;798;100 mA;
239.580796395117;-0.849609375;-0.0218292236328125;7.97999997985244;799;100 mA;
239.590796395091;-0.849609375;-0.0218414306640625;7.98999997982719;800;100 mA;
239.600796395066;-0.84930419921875;-0.0218536376953125;7.99999997980194;801;100 mA;
239.610796395041;-0.84930419921875;-0.02186279296875;8.00999997977669;802;100 mA;
239.620796395016;-0.84991455078125;-0.0218719482421875;8.01999997975145;803;100 mA;
239.63079639499;-0.849609375;-0.021881103515625;8.0299999797262;804;100 mA;
239.640796394965;-0.849609375;-0.0218841552734375;8.03999997970095;805;100 mA;
239.65079639494;-0.849609375;-0.0219024658203125;8.0499999796757;806;100 mA;
239.660796394915;-0.849609375;-0.021905517578125;8.05999997965046;807;100 mA;
239.670796394889;-0.84991455078125;-0.0219268798828125;8.06999997962521;808;100 mA;
239.680796394864;-0.849609375;-0.021929931640625;8.07999997959996;809;100 mA;
239.690796394839;-0.84930419921875;-0.0219390869140625;8.08999997957471;810;100 mA;
239.700796394814;-0.84991455078125;-0.02196044921875;8.09999997954947;811;100 mA;
239.710796394788;-0.849609375;-0.021966552734375;8.10999997952422;812;100 mA;
239.720796394763;-0.84991455078125;-0.0219818115234375;8.11999997949897;813;100 mA;
239.730796394738;-0.8489990234375;-0.0219940185546875;8.12999997947372;814;100 mA;
239.740796394713;-0.849609375;-0.022003173828125;8.13999997944848;815;100 mA;
239.750796394687;-0.849609375;-0.02200927734375;8.14999997942323;816;100 mA;
239.760796394662;-0.8489990234375;-0.022021484375;8.15999997939798;817;100 mA;
239.770796394637;-0.849609375;-0.022027587890625;8.16999997937273;818;100 mA;
239.780796394612;-0.8489990234375;-0.02203369140625;8.17999997934749;819;100 mA;
239.790796394586;-0.849609375;-0.0220367431640625;8.18999997932224;820;100 mA;
239.800796394561;-0.84991455078125;-0.0220458984375;8.19999997929699;821;100 mA;
239.810796394536;-0.8502197265625;-0.022052001953125;8.20999997927174;822;100 mA;
239.820796394511;-0.84991455078125;-0.0220672607421875;8.2199999792465;823;100 mA;
239.830796394485;-0.8489990234375;-0.0220703125;8.22999997922125;824;100 mA;
239.84079639446;-0.8502197265625;-0.02208251953125;8.239999979196;825;100 mA;
239.850796394435;-0.84991455078125;-0.0220947265625;8.24999997917075;826;100 mA;
239.86079639441;-0.849609375;-0.0221038818359375;8.2599999791455;827;100 mA;
239.870796394384;-0.84991455078125;-0.0221160888671875;8.26999997912026;828;100 mA;
239.880796394359;-0.849609375;-0.022119140625;8.27999997909501;829;100 mA;
239.890796394334;-0.84991455078125;-0.0221221923828125;8.28999997906976;830;100 mA;
239.900796394309;-0.849609375;-0.0221405029296875;8.29999997904451;831;100 mA;
239.910796394283;-0.849609375;-0.0221343994140625;8.30999997901927;832;100 mA;
239.920796394258;-0.84930419921875;-0.0221435546875;8.31999997899402;833;100 mA;
239.930796394233;-0.84991455078125;-0.0221405029296875;8.32999997896877;834;100 mA;
239.940796394208;-0.849609375;-0.0221405029296875;8.33999997894352;835;100 mA;
239.950796394182;-0.84991455078125;-0.0221435546875;8.34999997891828;836;100 mA;
239.960796394157;-0.84930419921875;-0.0221435546875;8.35999997889303;837;100 mA;
239.970796394132;-0.8502197265625;-0.0221527099609375;8.36999997886778;838;100 mA;
239.980796394107;-0.849609375;-0.0221527099609375;8.37999997884253;839;100 mA;
239.990796394081;-0.84930419921875;-0.022161865234375;8.38999997881729;840;100 mA;
240.000796394056;-0.849609375;-0.0221649169921875;8.39999997879204;841;100 mA;
240.010796394031;-0.84991455078125;-0.02216796875;8.40999997876679;842;100 mA;
240.020796394006;-0.849609375;-0.02218017578125;8.41999997874154;843;100 mA;
240.03079639398;-0.8489990234375;-0.022186279296875;8.4299999787163;844;100 mA;
240.040796393955;-0.84930419921875;-0.0221832275390625;8.43999997869105;845;100 mA;
240.05079639393;-0.84991455078125;-0.022186279296875;8.4499999786658;846;100 mA;
240.060796393905;-0.84991455078125;-0.0221893310546875;8.45999997864055;847;100 mA;
240.07079639388;-0.849609375;-0.0221893310546875;8.46999997861531;848;100 mA;
240.080796393854;-0.8502197265625;-0.022186279296875;8.47999997859006;849;100 mA;
240.090796393829;-0.84930419921875;-0.0221832275390625;8.48999997856481;850;100 mA;
240.100796393804;-0.8489990234375;-0.022186279296875;8.49999997853956;851;100 mA;
240.110796393779;-0.849609375;-0.0221832275390625;8.50999997851432;852;100 mA;
240.120796393753;-0.849609375;-0.0221954345703125;8.51999997848907;853;100 mA;
240.130796393728;-0.849609375;-0.022198486328125;8.52999997846382;854;100 mA;
240.140796393703;-0.849609375;-0.0222015380859375;8.53999997843857;855;100 mA;
240.150796393678;-0.849609375;-0.022210693359375;8.54999997841333;856;100 mA;
240.160796393652;-0.84930419921875;-0.0222076416015625;8.55999997838808;857;100 mA;
240.170796393627;-0.849609375;-0.022222900390625;8.56999997836283;858;100 mA;
240.180796393602;-0.84930419921875;-0.022222900390625;8.57999997833758;859;100 mA;
240.190796393577;-0.84991455078125;-0.022216796875;8.58999997831233;860;100 mA;
240.200796393551;-0.849609375;-0.0222259521484375;8.59999997828709;861;100 mA;
240.210796393526;-0.849609375;-0.022222900390625;8.60999997826184;862;100 mA;
240.220796393501;-0.849609375;-0.0222259521484375;8.61999997823659;863;100 mA;
240.230796393476;-0.849609375;-0.0222198486328125;8.62999997821134;864;100 mA;
240.24079639345;-0.84991455078125;-0.022216796875;8.6399999781861;865;100 mA;
240.250796393425;-0.8489990234375;-0.0222198486328125;8.64999997816085;866;100 mA;
240.2607963934;-0.84991455078125;-0.0222198486328125;8.6599999781356;867;100 mA;
240.270796393375;-0.849609375;-0.02222900390625;8.66999997811035;868;100 mA;
240.280796393349;-0.849609375;-0.022222900390625;8.67999997808511;869;100 mA;
240.290796393324;-0.84991455078125;-0.0222259521484375;8.68999997805986;870;100 mA;
240.300796393299;-0.8502197265625;-0.022235107421875;8.69999997803461;871;100 mA;
240.310796393274;-0.84930419921875;-0.0222320556640625;8.70999997800936;872;100 mA;
240.320796393248;-0.84930419921875;-0.0222442626953125;8.71999997798412;873;100 mA;
240.330796393223;-0.84930419921875;-0.0222381591796875;8.72999997795887;874;100 mA;
240.340796393198;-0.84930419921875;-0.0222412109375;8.73999997793362;875;100 mA;
240.350796393173;-0.84991455078125;-0.0222412109375;8.74999997790837;876;100 mA;
240.360796393147;-0.84930419921875;-0.022235107421875;8.75999997788313;877;100 mA;
240.370796393122;-0.84991455078125;-0.022235107421875;8.76999997785788;878;100 mA;
240.380796393097;-0.84930419921875;-0.0222259521484375;8.77999997783263;879;100 mA;
240.390796393072;-0.849609375;-0.0222198486328125;8.78999997780738;880;100 mA;
240.400796393046;-0.84930419921875;-0.02222900390625;8.79999997778214;881;100 mA;
240.410796393021;-0.8489990234375;-0.022216796875;8.80999997775689;882;100 mA;
240.420796392996;-0.84991455078125;-0.022222900390625;8.81999997773164;883;100 mA;
240.430796392971;-0.84930419921875;-0.022216796875;8.82999997770639;884;100 mA;
240.440796392945;-0.84930419921875;-0.022222900390625;8.83999997768115;885;100 mA;
240.45079639292;-0.8489990234375;-0.0222198486328125;8.8499999776559;886;100 mA;
240.460796392895;-0.84991455078125;-0.0222198486328125;8.85999997763065;887;100 mA;
240.47079639287;-0.84930419921875;-0.0222259521484375;8.8699999776054;888;100 mA;
240.480796392844;-0.84930419921875;-0.0222198486328125;8.87999997758016;889;100 mA;
240.490796392819;-0.849609375;-0.022210693359375;8.88999997755491;890;100 mA;
240.500796392794;-0.84991455078125;-0.0222137451171875;8.89999997752966;891;100 mA;
240.510796392769;-0.84930419921875;-0.0222076416015625;8.90999997750441;892;100 mA;
240.520796392743;-0.84930419921875;-0.0222076416015625;8.91999997747916;893;100 mA;
240.530796392718;-0.8489990234375;-0.0221954345703125;8.92999997745392;894;100 mA;
240.540796392693;-0.849609375;-0.022186279296875;8.93999997742867;895;100 mA;
240.550796392668;-0.849609375;-0.0221893310546875;8.94999997740342;896;100 mA;
240.560796392642;-0.8489990234375;-0.0221771240234375;8.95999997737817;897;100 mA;
240.570796392617;-0.849609375;-0.02218017578125;8.96999997735293;898;100 mA;
240.580796392592;-0.849609375;-0.0221771240234375;8.97999997732768;899;100 mA;
240.590796392567;-0.849609375;-0.022174072265625;8.98999997730243;900;100 mA;
240.600796392541;-0.849609375;-0.02218017578125;8.99999997727718;901;100 mA;
240.610796392516;-0.849609375;-0.0221710205078125;9.00999997725194;902;100 mA;
240.620796392491;-0.84930419921875;-0.0221771240234375;9.01999997722669;903;100 mA;
240.630796392466;-0.849609375;-0.022174072265625;9.02999997720144;904;100 mA;
240.64079639244;-0.84930419921875;-0.02216796875;9.03999997717619;905;100 mA;
240.650796392415;-0.849609375;-0.0221649169921875;9.04999997715095;906;100 mA;
240.66079639239;-0.84991455078125;-0.02215576171875;9.0599999771257;907;100 mA;
240.670796392365;-0.849609375;-0.02215576171875;9.06999997710045;908;100 mA;
240.680796392339;-0.84930419921875;-0.022137451171875;9.0799999770752;909;100 mA;
240.690796392314;-0.849609375;-0.022137451171875;9.08999997704996;910;100 mA;
240.700796392289;-0.849609375;-0.0221343994140625;9.09999997702471;911;100 mA;
240.710796392264;-0.849609375;-0.0221282958984375;9.10999997699946;912;100 mA;
240.720796392238;-0.849609375;-0.0221282958984375;9.11999997697421;913;100 mA;
240.730796392213;-0.84991455078125;-0.0221221923828125;9.12999997694897;914;100 mA;
240.740796392188;-0.849609375;-0.0221160888671875;9.13999997692372;915;100 mA;
240.750796392163;-0.849609375;-0.022125244140625;9.14999997689847;916;100 mA;
240.760796392137;-0.849609375;-0.0221221923828125;9.15999997687322;917;100 mA;
240.770796392112;-0.84930419921875;-0.022125244140625;9.16999997684798;918;100 mA;
240.780796392087;-0.849609375;-0.022119140625;9.17999997682273;919;100 mA;
240.790796392062;-0.84991455078125;-0.022119140625;9.18999997679748;920;100 mA;
240.800796392036;-0.84991455078125;-0.0221160888671875;9.19999997677223;921;100 mA;
240.810796392011;-0.849609375;-0.02210693359375;9.20999997674699;922;100 mA;
240.820796391986;-0.84930419921875;-0.0221099853515625;9.21999997672174;923;100 mA;
240.830796391961;-0.84930419921875;-0.0220947265625;9.22999997669649;924;100 mA;
240.840796391935;-0.849609375;-0.0220916748046875;9.23999997667124;925;100 mA;
240.85079639191;-0.849609375;-0.022088623046875;9.249999976646;926;100 mA;
240.860796391885;-0.84930419921875;-0.022088623046875;9.25999997662075;927;100 mA;
240.87079639186;-0.84991455078125;-0.0220916748046875;9.2699999765955;928;100 mA;
240.880796391834;-0.849609375;-0.0220855712890625;9.27999997657025;929;100 mA;
240.890796391809;-0.849609375;-0.0220916748046875;9.289999976545;930;100 mA;
240.900796391784;-0.849609375;-0.022088623046875;9.29999997651976;931;100 mA;
240.910796391759;-0.849609375;-0.0220947265625;9.30999997649451;932;100 mA;
240.920796391733;-0.849609375;-0.022100830078125;9.31999997646926;933;100 mA;
240.930796391708;-0.84930419921875;-0.0220977783203125;9.32999997644401;934;100 mA;
240.940796391683;-0.84930419921875;-0.0220977783203125;9.33999997641877;935;100 mA;
240.950796391658;-0.84991455078125;-0.022100830078125;9.34999997639352;936;100 mA;
240.960796391632;-0.84930419921875;-0.022100830078125;9.35999997636827;937;100 mA;
240.970796391607;-0.8489990234375;-0.0221038818359375;9.36999997634302;938;100 mA;
240.980796391582;-0.84991455078125;-0.0220916748046875;9.37999997631778;939;100 mA;
240.990796391557;-0.849609375;-0.0220947265625;9.38999997629253;940;100 mA;
241.000796391531;-0.84930419921875;-0.022100830078125;9.39999997626728;941;100 mA;
241.010796391506;-0.84991455078125;-0.022100830078125;9.40999997624203;942;100 mA;
241.020796391481;-0.849609375;-0.02210693359375;9.41999997621679;943;100 mA;
241.030796391456;-0.84991455078125;-0.0221099853515625;9.42999997619154;944;100 mA;
241.04079639143;-0.84930419921875;-0.0221160888671875;9.43999997616629;945;100 mA;
241.050796391405;-0.849609375;-0.022125244140625;9.44999997614104;946;100 mA;
241.06079639138;-0.849609375;-0.0221282958984375;9.4599999761158;947;100 mA;
241.070796391355;-0.84930419921875;-0.0221405029296875;9.46999997609055;948;100 mA;
241.080796391329;-0.8489990234375;-0.0221405029296875;9.4799999760653;949;100 mA;
241.090796391304;-0.849609375;-0.0221466064453125;9.48999997604005;950;100 mA;
241.100796391279;-0.84930419921875;-0.0221527099609375;9.49999997601481;951;100 mA;
241.110796391254;-0.84930419921875;-0.022149658203125;9.50999997598956;952;100 mA;
241.120796391229;-0.84930419921875;-0.0221588134765625;9.51999997596431;953;100 mA;
241.130796391203;-0.84991455078125;-0.022149658203125;9.52999997593906;954;100 mA;
241.140796391178;-0.849609375;-0.02215576171875;9.53999997591382;955;100 mA;
241.150796391153;-0.8502197265625;-0.022161865234375;9.54999997588857;956;100 mA;
241.160796391128;-0.84930419921875;-0.022161865234375;9.55999997586332;957;100 mA;
241.170796391102;-0.84930419921875;-0.0221710205078125;9.56999997583807;958;100 mA;
241.180796391077;-0.84930419921875;-0.022174072265625;9.57999997581283;959;100 mA;
241.190796391052;-0.84930419921875;-0.02218017578125;9.58999997578758;960;100 mA;
241.200796391027;-0.84991455078125;-0.0221954345703125;9.59999997576233;961;100 mA;
241.210796391001;-0.849609375;-0.0222015380859375;9.60999997573708;962;100 mA;
241.220796390976;-0.849609375;-0.0222137451171875;9.61999997571183;963;100 mA;
241.230796390951;-0.84991455078125;-0.0222137451171875;9.62999997568659;964;100 mA;
241.240796390926;-0.849609375;-0.022222900390625;9.63999997566134;965;100 mA;
241.2507963909;-0.84991455078125;-0.0222259521484375;9.64999997563609;966;100 mA;
241.260796390875;-0.849609375;-0.0222259521484375;9.65999997561084;967;100 mA;
241.27079639085;-0.84930419921875;-0.022235107421875;9.6699999755856;968;100 mA;
241.280796390825;-0.8489990234375;-0.0222320556640625;9.67999997556035;969;100 mA;
241.290796390799;-0.84930419921875;-0.0222381591796875;9.6899999755351;970;100 mA;
241.300796390774;-0.84930419921875;-0.0222442626953125;9.69999997550985;971;100 mA;
241.310796390749;-0.84930419921875;-0.022247314453125;9.70999997548461;972;100 mA;
241.320796390724;-0.84930419921875;-0.022259521484375;9.71999997545936;973;100 mA;
241.330796390698;-0.849609375;-0.022259521484375;9.72999997543411;974;100 mA;
241.340796390673;-0.84991455078125;-0.02227783203125;9.73999997540886;975;100 mA;
241.350796390648;-0.849609375;-0.0222900390625;9.74999997538362;976;100 mA;
241.360796390623;-0.84930419921875;-0.0222991943359375;9.75999997535837;977;100 mA;
241.370796390597;-0.84991455078125;-0.022308349609375;9.76999997533312;978;100 mA;
241.380796390572;-0.84991455078125;-0.022314453125;9.77999997530787;979;100 mA;
241.390796390547;-0.849609375;-0.0223236083984375;9.78999997528263;980;100 mA;
241.400796390522;-0.8489990234375;-0.022332763671875;9.79999997525738;981;100 mA;
241.410796390496;-0.84991455078125;-0.0223358154296875;9.80999997523213;982;100 mA;
241.420796390471;-0.849609375;-0.0223419189453125;9.81999997520688;983;100 mA;
241.430796390446;-0.84930419921875;-0.022344970703125;9.82999997518164;984;100 mA;
241.440796390421;-0.84930419921875;-0.0223480224609375;9.83999997515639;985;100 mA;
241.450796390395;-0.849609375;-0.022357177734375;9.84999997513114;986;100 mA;
241.46079639037;-0.84991455078125;-0.022369384765625;9.85999997510589;987;100 mA;
241.470796390345;-0.84991455078125;-0.02237548828125;9.86999997508065;988;100 mA;
241.48079639032;-0.84991455078125;-0.0223846435546875;9.8799999750554;989;100 mA;
241.490796390294;-0.849609375;-0.0223968505859375;9.88999997503015;990;100 mA;
241.500796390269;-0.84991455078125;-0.0224151611328125;9.8999999750049;991;100 mA;
241.510796390244;-0.849609375;-0.0224334716796875;9.90999997497966;992;100 mA;
241.520796390219;-0.84930419921875;-0.0224517822265625;9.91999997495441;993;100 mA;
241.530796390193;-0.84991455078125;-0.0224578857421875;9.92999997492916;994;100 mA;
241.540796390168;-0.84991455078125;-0.02247314453125;9.93999997490391;995;100 mA;
241.550796390143;-0.849609375;-0.022479248046875;9.94999997487866;996;100 mA;
241.560796390118;-0.84930419921875;-0.0224853515625;9.95999997485342;997;100 mA;
241.570796390092;-0.84930419921875;-0.02249755859375;9.96999997482817;998;100 mA;
241.580796390067;-0.849609375;-0.022491455078125;9.97999997480292;999;100 mA;
241.590796390042;-0.84991455078125;-0.022503662109375;9.98999997477767;1000;100 mA;
