Time (s);WE(1).Potential (V);WE(1).Current (A);Corrected time (s);Index;Current range;Overload
303.053250234864;-0.9014892578125;-0.38763427734375;0;1;100 mA;Current overload
303.063250234839;-0.9002685546875;-0.261962890625;0.00999999997475243;2;100 mA;
303.073250234814;-0.899658203125;-0.21038818359375;0.0199999999495049;3;100 mA;
303.083250234788;-0.89935302734375;-0.180450439453125;0.0299999999242573;4;100 mA;
303.093250234763;-0.8990478515625;-0.160247802734375;0.0399999998990097;5;100 mA;
303.103250234738;-0.89935302734375;-0.145477294921875;0.0499999998737621;6;100 mA;
303.113250234713;-0.89996337890625;-0.134124755859375;0.0599999998485146;7;100 mA;
303.123250234687;-0.89935302734375;-0.12506103515625;0.069999999823267;8;100 mA;
303.133250234662;-0.899658203125;-0.117584228515625;0.0799999997980194;9;100 mA;
303.143250234637;-0.89996337890625;-0.111297607421875;0.0899999997727718;10;100 mA;
303.153250234612;-0.899658203125;-0.105926513671875;0.0999999997475243;11;100 mA;
303.163250234586;-0.899658203125;-0.10125732421875;0.109999999722277;12;100 mA;
303.173250234561;-0.89996337890625;-0.097137451171875;0.119999999697029;13;100 mA;
303.183250234536;-0.89935302734375;-0.093505859375;0.129999999671782;14;100 mA;
303.193250234511;-0.899658203125;-0.090240478515625;0.139999999646534;15;100 mA;
303.203250234485;-0.89935302734375;-0.087310791015625;0.149999999621286;16;100 mA;
303.21325023446;-0.899658203125;-0.08465576171875;0.159999999596039;17;100 mA;
303.223250234435;-0.89935302734375;-0.08221435546875;0.169999999570791;18;100 mA;
303.23325023441;-0.899658203125;-0.0799560546875;0.179999999545544;19;100 mA;
303.243250234384;-0.8990478515625;-0.07794189453125;0.189999999520296;20;100 mA;
303.253250234359;-0.9002685546875;-0.076019287109375;0.199999999495049;21;100 mA;
303.263250234334;-0.8990478515625;-0.074249267578125;0.209999999469801;22;100 mA;
303.273250234309;-0.89874267578125;-0.072601318359375;0.219999999444553;23;100 mA;
303.283250234283;-0.89996337890625;-0.071044921875;0.229999999419306;24;100 mA;
303.293250234258;-0.89996337890625;-0.069610595703125;0.239999999394058;25;100 mA;
303.303250234233;-0.899658203125;-0.068267822265625;0.249999999368811;26;100 mA;
303.313250234208;-0.89996337890625;-0.066986083984375;0.259999999343563;27;100 mA;
303.323250234182;-0.89935302734375;-0.065765380859375;0.269999999318316;28;100 mA;
303.333250234157;-0.89874267578125;-0.064605712890625;0.279999999293068;29;100 mA;
303.343250234132;-0.89996337890625;-0.06353759765625;0.28999999926782;30;100 mA;
303.353250234107;-0.899658203125;-0.0625;0.299999999242573;31;100 mA;
303.363250234081;-0.89996337890625;-0.0615234375;0.309999999217325;32;100 mA;
303.373250234056;-0.89935302734375;-0.06060791015625;0.319999999192078;33;100 mA;
303.383250234031;-0.89996337890625;-0.0596923828125;0.32999999916683;34;100 mA;
303.393250234006;-0.89935302734375;-0.058868408203125;0.339999999141583;35;100 mA;
303.40325023398;-0.899658203125;-0.05804443359375;0.349999999116335;36;100 mA;
303.413250233955;-0.9002685546875;-0.057281494140625;0.359999999091087;37;100 mA;
303.42325023393;-0.899658203125;-0.0565185546875;0.36999999906584;38;100 mA;
303.433250233905;-0.8990478515625;-0.0557861328125;0.379999999040592;39;100 mA;
303.443250233879;-0.89935302734375;-0.05511474609375;0.389999999015345;40;100 mA;
303.453250233854;-0.8990478515625;-0.054443359375;0.399999998990097;41;100 mA;
303.463250233829;-0.899658203125;-0.0538330078125;0.40999999896485;42;100 mA;
303.473250233804;-0.8990478515625;-0.053192138671875;0.419999998939602;43;100 mA;
303.483250233778;-0.89935302734375;-0.0526123046875;0.429999998914354;44;100 mA;
303.493250233753;-0.899658203125;-0.052032470703125;0.439999998889107;45;100 mA;
303.503250233728;-0.89935302734375;-0.051483154296875;0.449999998863859;46;100 mA;
303.513250233703;-0.899658203125;-0.05096435546875;0.459999998838612;47;100 mA;
303.523250233677;-0.89935302734375;-0.050445556640625;0.469999998813364;48;100 mA;
303.533250233652;-0.89935302734375;-0.0499267578125;0.479999998788116;49;100 mA;
303.543250233627;-0.89935302734375;-0.049456787109375;0.489999998762869;50;100 mA;
303.553250233602;-0.8990478515625;-0.048980712890625;0.499999998737621;51;100 mA;
303.563250233576;-0.899658203125;-0.0485260009765625;0.509999998712374;52;100 mA;
303.573250233551;-0.8990478515625;-0.04808349609375;0.519999998687126;53;100 mA;
303.583250233526;-0.89996337890625;-0.0476531982421875;0.529999998661879;54;100 mA;
303.593250233501;-0.8990478515625;-0.0472442626953125;0.539999998636631;55;100 mA;
303.603250233475;-0.899658203125;-0.0468414306640625;0.549999998611383;56;100 mA;
303.61325023345;-0.899658203125;-0.0464508056640625;0.559999998586136;57;100 mA;
303.623250233425;-0.89935302734375;-0.046075439453125;0.569999998560888;58;100 mA;
303.6332502334;-0.89935302734375;-0.0457061767578125;0.579999998535641;59;100 mA;
303.643250233374;-0.899658203125;-0.045355224609375;0.589999998510393;60;100 mA;
303.653250233349;-0.89935302734375;-0.045013427734375;0.599999998485146;61;100 mA;
303.663250233324;-0.899658203125;-0.0446685791015625;0.609999998459898;62;100 mA;
303.673250233299;-0.899658203125;-0.0443511962890625;0.61999999843465;63;100 mA;
303.683250233273;-0.8990478515625;-0.044024658203125;0.629999998409403;64;100 mA;
303.693250233248;-0.899658203125;-0.0437255859375;0.639999998384155;65;100 mA;
303.703250233223;-0.89874267578125;-0.04342041015625;0.649999998358908;66;100 mA;
303.713250233198;-0.89996337890625;-0.0431243896484375;0.65999999833366;67;100 mA;
303.723250233173;-0.8990478515625;-0.042840576171875;0.669999998308413;68;100 mA;
303.733250233147;-0.89935302734375;-0.0425567626953125;0.679999998283165;69;100 mA;
303.743250233122;-0.89996337890625;-0.04228515625;0.689999998257917;70;100 mA;
303.753250233097;-0.89935302734375;-0.042022705078125;0.69999999823267;71;100 mA;
303.763250233072;-0.899658203125;-0.041766357421875;0.709999998207422;72;100 mA;
303.773250233046;-0.899658203125;-0.04151611328125;0.719999998182175;73;100 mA;
303.783250233021;-0.89935302734375;-0.041265869140625;0.729999998156927;74;100 mA;
303.793250232996;-0.899658203125;-0.0410308837890625;0.73999999813168;75;100 mA;
303.803250232971;-0.89935302734375;-0.0407958984375;0.749999998106432;76;100 mA;
303.813250232945;-0.89996337890625;-0.0405609130859375;0.759999998081184;77;100 mA;
303.82325023292;-0.89935302734375;-0.0403350830078125;0.769999998055937;78;100 mA;
303.833250232895;-0.89935302734375;-0.0401123046875;0.779999998030689;79;100 mA;
303.84325023287;-0.89935302734375;-0.039898681640625;0.789999998005442;80;100 mA;
303.853250232844;-0.899658203125;-0.03968505859375;0.799999997980194;81;100 mA;
303.863250232819;-0.899658203125;-0.039471435546875;0.809999997954947;82;100 mA;
303.873250232794;-0.89996337890625;-0.03927001953125;0.819999997929699;83;100 mA;
303.883250232769;-0.89935302734375;-0.0390594482421875;0.829999997904451;84;100 mA;
303.893250232743;-0.89935302734375;-0.038873291015625;0.839999997879204;85;100 mA;
303.903250232718;-0.899658203125;-0.0386810302734375;0.849999997853956;86;100 mA;
303.913250232693;-0.89935302734375;-0.03848876953125;0.859999997828709;87;100 mA;
303.923250232668;-0.89935302734375;-0.0383056640625;0.869999997803461;88;100 mA;
303.933250232642;-0.89874267578125;-0.0381195068359375;0.879999997778214;89;100 mA;
303.943250232617;-0.89935302734375;-0.0379486083984375;0.889999997752966;90;100 mA;
303.953250232592;-0.8990478515625;-0.0377716064453125;0.899999997727718;91;100 mA;
303.963250232567;-0.89935302734375;-0.03759765625;0.909999997702471;92;100 mA;
303.973250232541;-0.89996337890625;-0.0374298095703125;0.919999997677223;93;100 mA;
303.983250232516;-0.899658203125;-0.0372528076171875;0.929999997651976;94;100 mA;
303.993250232491;-0.89935302734375;-0.03709716796875;0.939999997626728;95;100 mA;
304.003250232466;-0.8990478515625;-0.03692626953125;0.949999997601481;96;100 mA;
304.01325023244;-0.899658203125;-0.0367645263671875;0.959999997576233;97;100 mA;
304.023250232415;-0.8990478515625;-0.03660888671875;0.969999997550985;98;100 mA;
304.03325023239;-0.89935302734375;-0.0364471435546875;0.979999997525738;99;100 mA;
304.043250232365;-0.89935302734375;-0.0363006591796875;0.98999999750049;100;100 mA;
304.053250232339;-0.89935302734375;-0.036151123046875;0.999999997475243;101;100 mA;
304.063250232314;-0.8990478515625;-0.0359954833984375;1.00999999745;102;100 mA;
304.073250232289;-0.899658203125;-0.035858154296875;1.01999999742475;103;100 mA;
304.083250232264;-0.89935302734375;-0.035711669921875;1.0299999973995;104;100 mA;
304.093250232238;-0.89935302734375;-0.0355743408203125;1.03999999737425;105;100 mA;
304.103250232213;-0.89996337890625;-0.0354278564453125;1.049999997349;106;100 mA;
304.113250232188;-0.899658203125;-0.0352935791015625;1.05999999732376;107;100 mA;
304.123250232163;-0.899658203125;-0.0351531982421875;1.06999999729851;108;100 mA;
304.133250232137;-0.899658203125;-0.035009765625;1.07999999727326;109;100 mA;
304.143250232112;-0.899658203125;-0.0348785400390625;1.08999999724801;110;100 mA;
304.153250232087;-0.89935302734375;-0.0347442626953125;1.09999999722277;111;100 mA;
304.163250232062;-0.89935302734375;-0.0346099853515625;1.10999999719752;112;100 mA;
304.173250232036;-0.89935302734375;-0.0344818115234375;1.11999999717227;113;100 mA;
304.183250232011;-0.8990478515625;-0.034344482421875;1.12999999714702;114;100 mA;
304.193250231986;-0.8990478515625;-0.0342315673828125;1.13999999712178;115;100 mA;
304.203250231961;-0.89935302734375;-0.0340972900390625;1.14999999709653;116;100 mA;
304.213250231935;-0.89935302734375;-0.033978271484375;1.15999999707128;117;100 mA;
304.22325023191;-0.89935302734375;-0.033856201171875;1.16999999704603;118;100 mA;
304.233250231885;-0.899658203125;-0.033734130859375;1.17999999702079;119;100 mA;
304.24325023186;-0.8990478515625;-0.0336181640625;1.18999999699554;120;100 mA;
304.253250231834;-0.8990478515625;-0.033502197265625;1.19999999697029;121;100 mA;
304.263250231809;-0.89996337890625;-0.0333831787109375;1.20999999694504;122;100 mA;
304.273250231784;-0.89935302734375;-0.033270263671875;1.2199999969198;123;100 mA;
304.283250231759;-0.89996337890625;-0.0331451416015625;1.22999999689455;124;100 mA;
304.293250231733;-0.899658203125;-0.0330413818359375;1.2399999968693;125;100 mA;
304.303250231708;-0.899658203125;-0.0329193115234375;1.24999999684405;126;100 mA;
304.313250231683;-0.9002685546875;-0.032806396484375;1.25999999681881;127;100 mA;
304.323250231658;-0.899658203125;-0.032696533203125;1.26999999679356;128;100 mA;
304.333250231632;-0.899658203125;-0.0325836181640625;1.27999999676831;129;100 mA;
304.343250231607;-0.899658203125;-0.03248291015625;1.28999999674306;130;100 mA;
304.353250231582;-0.89935302734375;-0.032373046875;1.29999999671782;131;100 mA;
304.363250231557;-0.8990478515625;-0.0322662353515625;1.30999999669257;132;100 mA;
304.373250231531;-0.89935302734375;-0.0321685791015625;1.31999999666732;133;100 mA;
304.383250231506;-0.899658203125;-0.0320556640625;1.32999999664207;134;100 mA;
304.393250231481;-0.89935302734375;-0.0319671630859375;1.33999999661683;135;100 mA;
304.403250231456;-0.89996337890625;-0.0318603515625;1.34999999659158;136;100 mA;
304.41325023143;-0.899658203125;-0.0317535400390625;1.35999999656633;137;100 mA;
304.423250231405;-0.899658203125;-0.031658935546875;1.36999999654108;138;100 mA;
304.43325023138;-0.89935302734375;-0.0315521240234375;1.37999999651583;139;100 mA;
304.443250231355;-0.899658203125;-0.0314605712890625;1.38999999649059;140;100 mA;
304.453250231329;-0.89935302734375;-0.03135986328125;1.39999999646534;141;100 mA;
304.463250231304;-0.89996337890625;-0.0312652587890625;1.40999999644009;142;100 mA;
304.473250231279;-0.899658203125;-0.031170654296875;1.41999999641484;143;100 mA;
304.483250231254;-0.89935302734375;-0.031072998046875;1.4299999963896;144;100 mA;
304.493250231228;-0.899658203125;-0.0309906005859375;1.43999999636435;145;100 mA;
304.503250231203;-0.899658203125;-0.03089599609375;1.4499999963391;146;100 mA;
304.513250231178;-0.89996337890625;-0.0308074951171875;1.45999999631385;147;100 mA;
304.523250231153;-0.899658203125;-0.030718994140625;1.46999999628861;148;100 mA;
304.533250231127;-0.899658203125;-0.0306365966796875;1.47999999626336;149;100 mA;
304.543250231102;-0.89935302734375;-0.030548095703125;1.48999999623811;150;100 mA;
304.553250231077;-0.89935302734375;-0.030462646484375;1.49999999621286;151;100 mA;
304.563250231052;-0.89935302734375;-0.0303802490234375;1.50999999618762;152;100 mA;
304.573250231026;-0.899658203125;-0.030291748046875;1.51999999616237;153;100 mA;
304.583250231001;-0.8990478515625;-0.0302001953125;1.52999999613712;154;100 mA;
304.593250230976;-0.8990478515625;-0.0301239013671875;1.53999999611187;155;100 mA;
304.603250230951;-0.899658203125;-0.0300445556640625;1.54999999608663;156;100 mA;
304.613250230925;-0.8990478515625;-0.0299591064453125;1.55999999606138;157;100 mA;
304.6232502309;-0.8990478515625;-0.0298828125;1.56999999603613;158;100 mA;
304.633250230875;-0.899658203125;-0.029803466796875;1.57999999601088;159;100 mA;
304.64325023085;-0.899658203125;-0.029736328125;1.58999999598564;160;100 mA;
304.653250230824;-0.899658203125;-0.0296539306640625;1.59999999596039;161;100 mA;
304.663250230799;-0.89935302734375;-0.0295806884765625;1.60999999593514;162;100 mA;
304.673250230774;-0.89935302734375;-0.0295135498046875;1.61999999590989;163;100 mA;
304.683250230749;-0.899658203125;-0.029437255859375;1.62999999588465;164;100 mA;
304.693250230723;-0.899658203125;-0.0293731689453125;1.6399999958594;165;100 mA;
304.703250230698;-0.89935302734375;-0.0292999267578125;1.64999999583415;166;100 mA;
304.713250230673;-0.89935302734375;-0.029229736328125;1.6599999958089;167;100 mA;
304.723250230648;-0.899658203125;-0.02916259765625;1.66999999578366;168;100 mA;
304.733250230623;-0.89935302734375;-0.0290863037109375;1.67999999575841;169;100 mA;
304.743250230597;-0.89874267578125;-0.0290283203125;1.68999999573316;170;100 mA;
304.753250230572;-0.89935302734375;-0.028955078125;1.69999999570791;171;100 mA;
304.763250230547;-0.89935302734375;-0.028887939453125;1.70999999568267;172;100 mA;
304.773250230522;-0.899658203125;-0.028826904296875;1.71999999565742;173;100 mA;
304.783250230496;-0.89935302734375;-0.0287628173828125;1.72999999563217;174;100 mA;
304.793250230471;-0.899658203125;-0.0287078857421875;1.73999999560692;175;100 mA;
304.803250230446;-0.89874267578125;-0.0286468505859375;1.74999999558167;176;100 mA;
304.813250230421;-0.89935302734375;-0.028582763671875;1.75999999555643;177;100 mA;
304.823250230395;-0.89935302734375;-0.02852783203125;1.76999999553118;178;100 mA;
304.83325023037;-0.899658203125;-0.0284637451171875;1.77999999550593;179;100 mA;
304.843250230345;-0.89996337890625;-0.0284088134765625;1.78999999548068;180;100 mA;
304.85325023032;-0.89935302734375;-0.0283477783203125;1.79999999545544;181;100 mA;
304.863250230294;-0.89935302734375;-0.028289794921875;1.80999999543019;182;100 mA;
304.873250230269;-0.89935302734375;-0.0282318115234375;1.81999999540494;183;100 mA;
304.883250230244;-0.89935302734375;-0.028167724609375;1.82999999537969;184;100 mA;
304.893250230219;-0.89935302734375;-0.0281158447265625;1.83999999535445;185;100 mA;
304.903250230193;-0.89935302734375;-0.0280609130859375;1.8499999953292;186;100 mA;
304.913250230168;-0.89935302734375;-0.0279937744140625;1.85999999530395;187;100 mA;
304.923250230143;-0.8990478515625;-0.027947998046875;1.8699999952787;188;100 mA;
304.933250230118;-0.899658203125;-0.0278961181640625;1.87999999525346;189;100 mA;
304.943250230092;-0.89935302734375;-0.027850341796875;1.88999999522821;190;100 mA;
304.953250230067;-0.89935302734375;-0.027789306640625;1.89999999520296;191;100 mA;
304.963250230042;-0.89935302734375;-0.027740478515625;1.90999999517771;192;100 mA;
304.973250230017;-0.899658203125;-0.027691650390625;1.91999999515247;193;100 mA;
304.983250229991;-0.8990478515625;-0.02763671875;1.92999999512722;194;100 mA;
304.993250229966;-0.8990478515625;-0.027593994140625;1.93999999510197;195;100 mA;
305.003250229941;-0.899658203125;-0.027532958984375;1.94999999507672;196;100 mA;
305.013250229916;-0.89935302734375;-0.0274810791015625;1.95999999505148;197;100 mA;
305.02325022989;-0.89935302734375;-0.02742919921875;1.96999999502623;198;100 mA;
305.033250229865;-0.89935302734375;-0.0273773193359375;1.97999999500098;199;100 mA;
305.04325022984;-0.89935302734375;-0.02733154296875;1.98999999497573;200;100 mA;
305.053250229815;-0.89935302734375;-0.027276611328125;1.99999999495049;201;100 mA;
305.063250229789;-0.899658203125;-0.0272247314453125;2.00999999492524;202;100 mA;
305.073250229764;-0.899658203125;-0.02718505859375;2.01999999489999;203;100 mA;
305.083250229739;-0.89935302734375;-0.027130126953125;2.02999999487474;204;100 mA;
305.093250229714;-0.89935302734375;-0.027093505859375;2.0399999948495;205;100 mA;
305.103250229688;-0.899658203125;-0.0270416259765625;2.04999999482425;206;100 mA;
305.113250229663;-0.89935302734375;-0.0269927978515625;2.059999994799;207;100 mA;
305.123250229638;-0.899658203125;-0.0269561767578125;2.06999999477375;208;100 mA;
305.133250229613;-0.89935302734375;-0.0269012451171875;2.0799999947485;209;100 mA;
305.143250229587;-0.8990478515625;-0.026861572265625;2.08999999472326;210;100 mA;
305.153250229562;-0.89935302734375;-0.026812744140625;2.09999999469801;211;100 mA;
305.163250229537;-0.899658203125;-0.026763916015625;2.10999999467276;212;100 mA;
305.173250229512;-0.89935302734375;-0.0267181396484375;2.11999999464751;213;100 mA;
305.183250229486;-0.89935302734375;-0.026666259765625;2.12999999462227;214;100 mA;
305.193250229461;-0.899658203125;-0.026629638671875;2.13999999459702;215;100 mA;
305.203250229436;-0.89935302734375;-0.026580810546875;2.14999999457177;216;100 mA;
305.213250229411;-0.899658203125;-0.026531982421875;2.15999999454652;217;100 mA;
305.223250229385;-0.89935302734375;-0.026495361328125;2.16999999452128;218;100 mA;
305.23325022936;-0.8990478515625;-0.0264495849609375;2.17999999449603;219;100 mA;
305.243250229335;-0.89935302734375;-0.0264129638671875;2.18999999447078;220;100 mA;
305.25325022931;-0.89935302734375;-0.026373291015625;2.19999999444553;221;100 mA;
305.263250229284;-0.8990478515625;-0.02633056640625;2.20999999442029;222;100 mA;
305.273250229259;-0.899658203125;-0.0262908935546875;2.21999999439504;223;100 mA;
305.283250229234;-0.89935302734375;-0.0262451171875;2.22999999436979;224;100 mA;
305.293250229209;-0.899658203125;-0.0262115478515625;2.23999999434454;225;100 mA;
305.303250229183;-0.89935302734375;-0.0261627197265625;2.2499999943193;226;100 mA;
305.313250229158;-0.899658203125;-0.0261199951171875;2.25999999429405;227;100 mA;
305.323250229133;-0.89935302734375;-0.02608642578125;2.2699999942688;228;100 mA;
305.333250229108;-0.8990478515625;-0.02603759765625;2.27999999424355;229;100 mA;
305.343250229082;-0.89935302734375;-0.0260009765625;2.28999999421831;230;100 mA;
305.353250229057;-0.89935302734375;-0.025958251953125;2.29999999419306;231;100 mA;
305.363250229032;-0.89935302734375;-0.0259124755859375;2.30999999416781;232;100 mA;
305.373250229007;-0.899658203125;-0.025885009765625;2.31999999414256;233;100 mA;
305.383250228981;-0.89935302734375;-0.0258453369140625;2.32999999411732;234;100 mA;
305.393250228956;-0.899658203125;-0.0258148193359375;2.33999999409207;235;100 mA;
305.403250228931;-0.899658203125;-0.025775146484375;2.34999999406682;236;100 mA;
305.413250228906;-0.899658203125;-0.0257415771484375;2.35999999404157;237;100 mA;
305.42325022888;-0.8990478515625;-0.0257049560546875;2.36999999401633;238;100 mA;
305.433250228855;-0.899658203125;-0.025665283203125;2.37999999399108;239;100 mA;
305.44325022883;-0.899658203125;-0.025634765625;2.38999999396583;240;100 mA;
305.453250228805;-0.89935302734375;-0.0255889892578125;2.39999999394058;241;100 mA;
305.463250228779;-0.8990478515625;-0.0255523681640625;2.40999999391533;242;100 mA;
305.473250228754;-0.899658203125;-0.0255218505859375;2.41999999389009;243;100 mA;
305.483250228729;-0.899658203125;-0.0254791259765625;2.42999999386484;244;100 mA;
305.493250228704;-0.899658203125;-0.02545166015625;2.43999999383959;245;100 mA;
305.503250228678;-0.899658203125;-0.025408935546875;2.44999999381434;246;100 mA;
305.513250228653;-0.89935302734375;-0.02537841796875;2.4599999937891;247;100 mA;
305.523250228628;-0.899658203125;-0.0253509521484375;2.46999999376385;248;100 mA;
305.533250228603;-0.899658203125;-0.0253143310546875;2.4799999937386;249;100 mA;
305.543250228577;-0.89935302734375;-0.0252899169921875;2.48999999371335;250;100 mA;
305.553250228552;-0.89935302734375;-0.02525634765625;2.49999999368811;251;100 mA;
305.563250228527;-0.899658203125;-0.025225830078125;2.50999999366286;252;100 mA;
305.573250228502;-0.89935302734375;-0.0251953125;2.51999999363761;253;100 mA;
305.583250228476;-0.8990478515625;-0.0251678466796875;2.52999999361236;254;100 mA;
305.593250228451;-0.89996337890625;-0.0251373291015625;2.53999999358712;255;100 mA;
305.603250228426;-0.89935302734375;-0.02509765625;2.54999999356187;256;100 mA;
305.613250228401;-0.899658203125;-0.0250732421875;2.55999999353662;257;100 mA;
305.623250228375;-0.899658203125;-0.025042724609375;2.56999999351137;258;100 mA;
305.63325022835;-0.89935302734375;-0.0250091552734375;2.57999999348613;259;100 mA;
305.643250228325;-0.8990478515625;-0.0249908447265625;2.58999999346088;260;100 mA;
305.6532502283;-0.89935302734375;-0.024957275390625;2.59999999343563;261;100 mA;
305.663250228274;-0.9002685546875;-0.024932861328125;2.60999999341038;262;100 mA;
305.673250228249;-0.899658203125;-0.024908447265625;2.61999999338514;263;100 mA;
305.683250228224;-0.89935302734375;-0.024884033203125;2.62999999335989;264;100 mA;
305.693250228199;-0.89996337890625;-0.0248687744140625;2.63999999333464;265;100 mA;
305.703250228173;-0.89935302734375;-0.024835205078125;2.64999999330939;266;100 mA;
305.713250228148;-0.89935302734375;-0.0248138427734375;2.65999999328415;267;100 mA;
305.723250228123;-0.89996337890625;-0.02479248046875;2.6699999932589;268;100 mA;
305.733250228098;-0.89935302734375;-0.0247650146484375;2.67999999323365;269;100 mA;
305.743250228072;-0.89935302734375;-0.0247406005859375;2.6899999932084;270;100 mA;
305.753250228047;-0.89935302734375;-0.0247100830078125;2.69999999318316;271;100 mA;
305.763250228022;-0.89935302734375;-0.0246826171875;2.70999999315791;272;100 mA;
305.773250227997;-0.8990478515625;-0.024658203125;2.71999999313266;273;100 mA;
305.783250227972;-0.899658203125;-0.0246307373046875;2.72999999310741;274;100 mA;
305.793250227946;-0.899658203125;-0.0246124267578125;2.73999999308217;275;100 mA;
305.803250227921;-0.89935302734375;-0.0245849609375;2.74999999305692;276;100 mA;
305.813250227896;-0.8990478515625;-0.0245635986328125;2.75999999303167;277;100 mA;
305.823250227871;-0.8990478515625;-0.02454833984375;2.76999999300642;278;100 mA;
305.833250227845;-0.899658203125;-0.0245269775390625;2.77999999298117;279;100 mA;
305.84325022782;-0.899658203125;-0.02449951171875;2.78999999295593;280;100 mA;
305.853250227795;-0.899658203125;-0.02447509765625;2.79999999293068;281;100 mA;
305.86325022777;-0.89935302734375;-0.02445068359375;2.80999999290543;282;100 mA;
305.873250227744;-0.899658203125;-0.0244354248046875;2.81999999288018;283;100 mA;
305.883250227719;-0.89935302734375;-0.02440185546875;2.82999999285494;284;100 mA;
305.893250227694;-0.8990478515625;-0.024383544921875;2.83999999282969;285;100 mA;
305.903250227669;-0.89935302734375;-0.02435302734375;2.84999999280444;286;100 mA;
305.913250227643;-0.89874267578125;-0.0243194580078125;2.85999999277919;287;100 mA;
305.923250227618;-0.8990478515625;-0.024298095703125;2.86999999275395;288;100 mA;
305.933250227593;-0.899658203125;-0.024273681640625;2.8799999927287;289;100 mA;
305.943250227568;-0.899658203125;-0.0242584228515625;2.88999999270345;290;100 mA;
305.953250227542;-0.899658203125;-0.0242218017578125;2.8999999926782;291;100 mA;
305.963250227517;-0.899658203125;-0.02420654296875;2.90999999265296;292;100 mA;
305.973250227492;-0.899658203125;-0.024188232421875;2.91999999262771;293;100 mA;
305.983250227467;-0.899658203125;-0.0241607666015625;2.92999999260246;294;100 mA;
305.993250227441;-0.8990478515625;-0.0241455078125;2.93999999257721;295;100 mA;
306.003250227416;-0.89935302734375;-0.024114990234375;2.94999999255197;296;100 mA;
306.013250227391;-0.899658203125;-0.0240966796875;2.95999999252672;297;100 mA;
306.023250227366;-0.89935302734375;-0.024072265625;2.96999999250147;298;100 mA;
306.03325022734;-0.9002685546875;-0.0240447998046875;2.97999999247622;299;100 mA;
306.043250227315;-0.89935302734375;-0.0240203857421875;2.98999999245098;300;100 mA;
306.05325022729;-0.899658203125;-0.0239959716796875;2.99999999242573;301;100 mA;
306.063250227265;-0.899658203125;-0.023974609375;3.00999999240048;302;100 mA;
306.073250227239;-0.89935302734375;-0.0239532470703125;3.01999999237523;303;100 mA;
306.083250227214;-0.89935302734375;-0.0239227294921875;3.02999999234999;304;100 mA;
306.093250227189;-0.89935302734375;-0.02391357421875;3.03999999232474;305;100 mA;
306.103250227164;-0.89935302734375;-0.023883056640625;3.04999999229949;306;100 mA;
306.113250227138;-0.89935302734375;-0.0238616943359375;3.05999999227424;307;100 mA;
306.123250227113;-0.89996337890625;-0.023846435546875;3.069999992249;308;100 mA;
306.133250227088;-0.89935302734375;-0.0238250732421875;3.07999999222375;309;100 mA;
306.143250227063;-0.899658203125;-0.023809814453125;3.0899999921985;310;100 mA;
306.153250227037;-0.89935302734375;-0.023785400390625;3.09999999217325;311;100 mA;
306.163250227012;-0.899658203125;-0.0237640380859375;3.109999992148;312;100 mA;
306.173250226987;-0.89935302734375;-0.0237457275390625;3.11999999212276;313;100 mA;
306.183250226962;-0.89935302734375;-0.0237213134765625;3.12999999209751;314;100 mA;
306.193250226936;-0.89935302734375;-0.023699951171875;3.13999999207226;315;100 mA;
306.203250226911;-0.899658203125;-0.0236724853515625;3.14999999204701;316;100 mA;
306.213250226886;-0.899658203125;-0.0236541748046875;3.15999999202177;317;100 mA;
306.223250226861;-0.8990478515625;-0.0236358642578125;3.16999999199652;318;100 mA;
306.233250226835;-0.899658203125;-0.023614501953125;3.17999999197127;319;100 mA;
306.24325022681;-0.89935302734375;-0.02359619140625;3.18999999194602;320;100 mA;
306.253250226785;-0.899658203125;-0.0235748291015625;3.19999999192078;321;100 mA;
306.26325022676;-0.899658203125;-0.0235504150390625;3.20999999189553;322;100 mA;
306.273250226734;-0.89935302734375;-0.0235382080078125;3.21999999187028;323;100 mA;
306.283250226709;-0.89996337890625;-0.023516845703125;3.22999999184503;324;100 mA;
306.293250226684;-0.89935302734375;-0.0235015869140625;3.23999999181979;325;100 mA;
306.303250226659;-0.89935302734375;-0.02347412109375;3.24999999179454;326;100 mA;
306.313250226633;-0.89935302734375;-0.023455810546875;3.25999999176929;327;100 mA;
306.323250226608;-0.8990478515625;-0.0234405517578125;3.26999999174404;328;100 mA;
306.333250226583;-0.89935302734375;-0.0234161376953125;3.2799999917188;329;100 mA;
306.343250226558;-0.89935302734375;-0.0233978271484375;3.28999999169355;330;100 mA;
306.353250226532;-0.899658203125;-0.0233734130859375;3.2999999916683;331;100 mA;
306.363250226507;-0.8990478515625;-0.0233551025390625;3.30999999164305;332;100 mA;
306.373250226482;-0.899658203125;-0.0233367919921875;3.31999999161781;333;100 mA;
306.383250226457;-0.89935302734375;-0.0233123779296875;3.32999999159256;334;100 mA;
306.393250226431;-0.899658203125;-0.023297119140625;3.33999999156731;335;100 mA;
306.403250226406;-0.89935302734375;-0.023272705078125;3.34999999154206;336;100 mA;
306.413250226381;-0.9002685546875;-0.0232574462890625;3.35999999151682;337;100 mA;
306.423250226356;-0.8990478515625;-0.0232391357421875;3.36999999149157;338;100 mA;
306.43325022633;-0.89935302734375;-0.0232177734375;3.37999999146632;339;100 mA;
306.443250226305;-0.89935302734375;-0.023199462890625;3.38999999144107;340;100 mA;
306.45325022628;-0.89935302734375;-0.0231689453125;3.39999999141583;341;100 mA;
306.463250226255;-0.899658203125;-0.023150634765625;3.40999999139058;342;100 mA;
306.473250226229;-0.9002685546875;-0.0231292724609375;3.41999999136533;343;100 mA;
306.483250226204;-0.899658203125;-0.0231048583984375;3.42999999134008;344;100 mA;
306.493250226179;-0.8990478515625;-0.02308349609375;3.43999999131483;345;100 mA;
306.503250226154;-0.89935302734375;-0.0230499267578125;3.44999999128959;346;100 mA;
306.513250226128;-0.899658203125;-0.0230316162109375;3.45999999126434;347;100 mA;
306.523250226103;-0.899658203125;-0.0230133056640625;3.46999999123909;348;100 mA;
306.533250226078;-0.9002685546875;-0.02298583984375;3.47999999121384;349;100 mA;
306.543250226053;-0.899658203125;-0.022967529296875;3.4899999911886;350;100 mA;
306.553250226027;-0.89935302734375;-0.0229400634765625;3.49999999116335;351;100 mA;
306.563250226002;-0.8990478515625;-0.022918701171875;3.5099999911381;352;100 mA;
306.573250225977;-0.8990478515625;-0.022900390625;3.51999999111285;353;100 mA;
306.583250225952;-0.8990478515625;-0.0228729248046875;3.52999999108761;354;100 mA;
306.593250225926;-0.899658203125;-0.0228515625;3.53999999106236;355;100 mA;
306.603250225901;-0.89874267578125;-0.0228179931640625;3.54999999103711;356;100 mA;
306.613250225876;-0.8990478515625;-0.022796630859375;3.55999999101186;357;100 mA;
306.623250225851;-0.89935302734375;-0.022772216796875;3.56999999098662;358;100 mA;
306.633250225825;-0.899658203125;-0.02274169921875;3.57999999096137;359;100 mA;
306.6432502258;-0.899658203125;-0.022723388671875;3.58999999093612;360;100 mA;
306.653250225775;-0.8990478515625;-0.0226898193359375;3.59999999091087;361;100 mA;
306.66325022575;-0.8990478515625;-0.0226654052734375;3.60999999088563;362;100 mA;
306.673250225724;-0.899658203125;-0.0226470947265625;3.61999999086038;363;100 mA;
306.683250225699;-0.899658203125;-0.0226165771484375;3.62999999083513;364;100 mA;
306.693250225674;-0.89935302734375;-0.0225982666015625;3.63999999080988;365;100 mA;
306.703250225649;-0.89935302734375;-0.02257080078125;3.64999999078464;366;100 mA;
306.713250225623;-0.899658203125;-0.0225494384765625;3.65999999075939;367;100 mA;
306.723250225598;-0.89935302734375;-0.022528076171875;3.66999999073414;368;100 mA;
306.733250225573;-0.89935302734375;-0.0225006103515625;3.67999999070889;369;100 mA;
306.743250225548;-0.899658203125;-0.0224822998046875;3.68999999068365;370;100 mA;
306.753250225522;-0.89996337890625;-0.02244873046875;3.6999999906584;371;100 mA;
306.763250225497;-0.8990478515625;-0.0224273681640625;3.70999999063315;372;100 mA;
306.773250225472;-0.89935302734375;-0.0224029541015625;3.7199999906079;373;100 mA;
306.783250225447;-0.89935302734375;-0.02237548828125;3.72999999058266;374;100 mA;
306.793250225422;-0.89935302734375;-0.0223602294921875;3.73999999055741;375;100 mA;
306.803250225396;-0.899658203125;-0.0223236083984375;3.74999999053216;376;100 mA;
306.813250225371;-0.9002685546875;-0.0223052978515625;3.75999999050691;377;100 mA;
306.823250225346;-0.89935302734375;-0.0222869873046875;3.76999999048167;378;100 mA;
306.833250225321;-0.899658203125;-0.022265625;3.77999999045642;379;100 mA;
306.843250225295;-0.89996337890625;-0.0222412109375;3.78999999043117;380;100 mA;
306.85325022527;-0.89935302734375;-0.0222198486328125;3.79999999040592;381;100 mA;
306.863250225245;-0.8990478515625;-0.02220458984375;3.80999999038067;382;100 mA;
306.87325022522;-0.8990478515625;-0.022186279296875;3.81999999035543;383;100 mA;
306.883250225194;-0.89996337890625;-0.022161865234375;3.82999999033018;384;100 mA;
306.893250225169;-0.89935302734375;-0.0221405029296875;3.83999999030493;385;100 mA;
306.903250225144;-0.89996337890625;-0.0221160888671875;3.84999999027968;386;100 mA;
306.913250225119;-0.89935302734375;-0.0220977783203125;3.85999999025444;387;100 mA;
306.923250225093;-0.8990478515625;-0.0220794677734375;3.86999999022919;388;100 mA;
306.933250225068;-0.8990478515625;-0.02205810546875;3.87999999020394;389;100 mA;
306.943250225043;-0.89935302734375;-0.022039794921875;3.88999999017869;390;100 mA;
306.953250225018;-0.899658203125;-0.0220123291015625;3.89999999015345;391;100 mA;
306.963250224992;-0.8990478515625;-0.022003173828125;3.9099999901282;392;100 mA;
306.973250224967;-0.899658203125;-0.0219879150390625;3.91999999010295;393;100 mA;
306.983250224942;-0.89935302734375;-0.0219696044921875;3.9299999900777;394;100 mA;
306.993250224917;-0.89996337890625;-0.021954345703125;3.93999999005246;395;100 mA;
307.003250224891;-0.8990478515625;-0.0219329833984375;3.94999999002721;396;100 mA;
307.013250224866;-0.899658203125;-0.021917724609375;3.95999999000196;397;100 mA;
307.023250224841;-0.89935302734375;-0.021905517578125;3.96999998997671;398;100 mA;
307.033250224816;-0.89935302734375;-0.02188720703125;3.97999998995147;399;100 mA;
307.04325022479;-0.89935302734375;-0.021868896484375;3.98999998992622;400;100 mA;
307.053250224765;-0.899658203125;-0.0218505859375;3.99999998990097;401;100 mA;
307.06325022474;-0.89935302734375;-0.0218353271484375;4.00999998987572;402;100 mA;
307.073250224715;-0.899658203125;-0.021820068359375;4.01999998985048;403;100 mA;
307.083250224689;-0.89935302734375;-0.0217987060546875;4.02999998982523;404;100 mA;
307.093250224664;-0.899658203125;-0.0217864990234375;4.03999998979998;405;100 mA;
307.103250224639;-0.899658203125;-0.02176513671875;4.04999998977473;406;100 mA;
307.113250224614;-0.89935302734375;-0.0217498779296875;4.05999998974949;407;100 mA;
307.123250224588;-0.89935302734375;-0.02174072265625;4.06999998972424;408;100 mA;
307.133250224563;-0.89996337890625;-0.021722412109375;4.07999998969899;409;100 mA;
307.143250224538;-0.89935302734375;-0.02171630859375;4.08999998967374;410;100 mA;
307.153250224513;-0.8990478515625;-0.021697998046875;4.0999999896485;411;100 mA;
307.163250224487;-0.89996337890625;-0.0216888427734375;4.10999998962325;412;100 mA;
307.173250224462;-0.89996337890625;-0.0216827392578125;4.119999989598;413;100 mA;
307.183250224437;-0.89935302734375;-0.0216705322265625;4.12999998957275;414;100 mA;
307.193250224412;-0.89935302734375;-0.021661376953125;4.1399999895475;415;100 mA;
307.203250224386;-0.89935302734375;-0.0216461181640625;4.14999998952226;416;100 mA;
307.213250224361;-0.899658203125;-0.0216339111328125;4.15999998949701;417;100 mA;
307.223250224336;-0.89996337890625;-0.021624755859375;4.16999998947176;418;100 mA;
307.233250224311;-0.89935302734375;-0.021612548828125;4.17999998944651;419;100 mA;
307.243250224285;-0.89935302734375;-0.0216033935546875;4.18999998942127;420;100 mA;
307.25325022426;-0.89996337890625;-0.0215850830078125;4.19999998939602;421;100 mA;
307.263250224235;-0.89935302734375;-0.02158203125;4.20999998937077;422;100 mA;
307.27325022421;-0.8990478515625;-0.0215728759765625;4.21999998934552;423;100 mA;
307.283250224184;-0.89874267578125;-0.02156982421875;4.22999998932028;424;100 mA;
307.293250224159;-0.8990478515625;-0.0215728759765625;4.23999998929503;425;100 mA;
307.303250224134;-0.8990478515625;-0.0215576171875;4.24999998926978;426;100 mA;
307.313250224109;-0.899658203125;-0.0215576171875;4.25999998924453;427;100 mA;
307.323250224083;-0.8990478515625;-0.0215576171875;4.26999998921929;428;100 mA;
307.333250224058;-0.89935302734375;-0.02154541015625;4.27999998919404;429;100 mA;
307.343250224033;-0.899658203125;-0.02154541015625;4.28999998916879;430;100 mA;
307.353250224008;-0.89935302734375;-0.0215301513671875;4.29999998914354;431;100 mA;
307.363250223982;-0.89935302734375;-0.0215179443359375;4.3099999891183;432;100 mA;
307.373250223957;-0.89935302734375;-0.0215179443359375;4.31999998909305;433;100 mA;
307.383250223932;-0.89935302734375;-0.02149658203125;4.3299999890678;434;100 mA;
307.393250223907;-0.899658203125;-0.021490478515625;4.33999998904255;435;100 mA;
307.403250223881;-0.899658203125;-0.021466064453125;4.34999998901731;436;100 mA;
307.413250223856;-0.899658203125;-0.0214599609375;4.35999998899206;437;100 mA;
307.423250223831;-0.89935302734375;-0.021453857421875;4.36999998896681;438;100 mA;
307.433250223806;-0.89935302734375;-0.021435546875;4.37999998894156;439;100 mA;
307.44325022378;-0.89935302734375;-0.021435546875;4.38999998891632;440;100 mA;
307.453250223755;-0.89935302734375;-0.0214202880859375;4.39999998889107;441;100 mA;
307.46325022373;-0.89935302734375;-0.0214202880859375;4.40999998886582;442;100 mA;
307.473250223705;-0.89935302734375;-0.0214111328125;4.41999998884057;443;100 mA;
307.483250223679;-0.8990478515625;-0.0213897705078125;4.42999998881533;444;100 mA;
307.493250223654;-0.8990478515625;-0.021380615234375;4.43999998879008;445;100 mA;
307.503250223629;-0.89935302734375;-0.0213592529296875;4.44999998876483;446;100 mA;
307.513250223604;-0.899658203125;-0.021343994140625;4.45999998873958;447;100 mA;
307.523250223578;-0.899658203125;-0.0213287353515625;4.46999998871433;448;100 mA;
307.533250223553;-0.899658203125;-0.021307373046875;4.47999998868909;449;100 mA;
307.543250223528;-0.8990478515625;-0.021295166015625;4.48999998866384;450;100 mA;
307.553250223503;-0.899658203125;-0.02127685546875;4.49999998863859;451;100 mA;
307.563250223477;-0.89935302734375;-0.0212646484375;4.50999998861334;452;100 mA;
307.573250223452;-0.8990478515625;-0.0212493896484375;4.5199999885881;453;100 mA;
307.583250223427;-0.8990478515625;-0.021240234375;4.52999998856285;454;100 mA;
307.593250223402;-0.89996337890625;-0.0212371826171875;4.5399999885376;455;100 mA;
307.603250223376;-0.899658203125;-0.0212127685546875;4.54999998851235;456;100 mA;
307.613250223351;-0.89935302734375;-0.02120361328125;4.55999998848711;457;100 mA;
307.623250223326;-0.8990478515625;-0.021185302734375;4.56999998846186;458;100 mA;
307.633250223301;-0.89935302734375;-0.0211700439453125;4.57999998843661;459;100 mA;
307.643250223275;-0.89996337890625;-0.02115478515625;4.58999998841136;460;100 mA;
307.65325022325;-0.89874267578125;-0.0211334228515625;4.59999998838612;461;100 mA;
307.663250223225;-0.8990478515625;-0.0211181640625;4.60999998836087;462;100 mA;
307.6732502232;-0.8990478515625;-0.021099853515625;4.61999998833562;463;100 mA;
307.683250223174;-0.8990478515625;-0.02108154296875;4.62999998831037;464;100 mA;
307.693250223149;-0.899658203125;-0.0210693359375;4.63999998828513;465;100 mA;
307.703250223124;-0.89935302734375;-0.0210479736328125;4.64999998825988;466;100 mA;
307.713250223099;-0.89935302734375;-0.0210357666015625;4.65999998823463;467;100 mA;
307.723250223073;-0.8990478515625;-0.0210296630859375;4.66999998820938;468;100 mA;
307.733250223048;-0.899658203125;-0.0210052490234375;4.67999998818414;469;100 mA;
307.743250223023;-0.8990478515625;-0.02099609375;4.68999998815889;470;100 mA;
307.753250222998;-0.89935302734375;-0.020977783203125;4.69999998813364;471;100 mA;
307.763250222972;-0.89935302734375;-0.0209686279296875;4.70999998810839;472;100 mA;
307.773250222947;-0.89935302734375;-0.0209503173828125;4.71999998808315;473;100 mA;
307.783250222922;-0.899658203125;-0.0209320068359375;4.7299999880579;474;100 mA;
307.793250222897;-0.8990478515625;-0.0209228515625;4.73999998803265;475;100 mA;
307.803250222871;-0.899658203125;-0.0208953857421875;4.7499999880074;476;100 mA;
307.813250222846;-0.899658203125;-0.0208831787109375;4.75999998798216;477;100 mA;
307.823250222821;-0.899658203125;-0.0208587646484375;4.76999998795691;478;100 mA;
307.833250222796;-0.8990478515625;-0.02083740234375;4.77999998793166;479;100 mA;
307.843250222771;-0.899658203125;-0.0208221435546875;4.78999998790641;480;100 mA;
307.853250222745;-0.899658203125;-0.020806884765625;4.79999998788116;481;100 mA;
307.86325022272;-0.8990478515625;-0.02078857421875;4.80999998785592;482;100 mA;
307.873250222695;-0.89935302734375;-0.0207763671875;4.81999998783067;483;100 mA;
307.88325022267;-0.899658203125;-0.0207611083984375;4.82999998780542;484;100 mA;
307.893250222644;-0.89996337890625;-0.020751953125;4.83999998778017;485;100 mA;
307.903250222619;-0.89996337890625;-0.0207305908203125;4.84999998775493;486;100 mA;
307.913250222594;-0.89935302734375;-0.0207183837890625;4.85999998772968;487;100 mA;
307.923250222569;-0.899658203125;-0.0207000732421875;4.86999998770443;488;100 mA;
307.933250222543;-0.89935302734375;-0.0206756591796875;4.87999998767918;489;100 mA;
307.943250222518;-0.89935302734375;-0.020660400390625;4.88999998765394;490;100 mA;
307.953250222493;-0.899658203125;-0.0206390380859375;4.89999998762869;491;100 mA;
307.963250222468;-0.899658203125;-0.02061767578125;4.90999998760344;492;100 mA;
307.973250222442;-0.899658203125;-0.0205963134765625;4.91999998757819;493;100 mA;
307.983250222417;-0.899658203125;-0.0205810546875;4.92999998755295;494;100 mA;
307.993250222392;-0.89935302734375;-0.0205657958984375;4.9399999875277;495;100 mA;
308.003250222367;-0.899658203125;-0.0205413818359375;4.94999998750245;496;100 mA;
308.013250222341;-0.899658203125;-0.0205291748046875;4.9599999874772;497;100 mA;
308.023250222316;-0.89935302734375;-0.020513916015625;4.96999998745196;498;100 mA;
308.033250222291;-0.899658203125;-0.0204986572265625;4.97999998742671;499;100 mA;
308.043250222266;-0.89996337890625;-0.0204925537109375;4.98999998740146;500;100 mA;
308.05325022224;-0.899658203125;-0.020465087890625;4.99999998737621;501;100 mA;
308.063250222215;-0.89935302734375;-0.0204559326171875;5.00999998735097;502;100 mA;
308.07325022219;-0.89935302734375;-0.020440673828125;5.01999998732572;503;100 mA;
308.083250222165;-0.8990478515625;-0.0204254150390625;5.02999998730047;504;100 mA;
308.093250222139;-0.89935302734375;-0.0204132080078125;5.03999998727522;505;100 mA;
308.103250222114;-0.89935302734375;-0.020379638671875;5.04999998724998;506;100 mA;
308.113250222089;-0.89935302734375;-0.0203643798828125;5.05999998722473;507;100 mA;
308.123250222064;-0.899658203125;-0.02034912109375;5.06999998719948;508;100 mA;
308.133250222038;-0.89935302734375;-0.02032470703125;5.07999998717423;509;100 mA;
308.143250222013;-0.8990478515625;-0.020318603515625;5.08999998714899;510;100 mA;
308.153250221988;-0.89935302734375;-0.020294189453125;5.09999998712374;511;100 mA;
308.163250221963;-0.89996337890625;-0.0202789306640625;5.10999998709849;512;100 mA;
308.173250221937;-0.899658203125;-0.020263671875;5.11999998707324;513;100 mA;
308.183250221912;-0.899658203125;-0.020245361328125;5.129999987048;514;100 mA;
308.193250221887;-0.89935302734375;-0.0202423095703125;5.13999998702275;515;100 mA;
308.203250221862;-0.899658203125;-0.02021484375;5.1499999869975;516;100 mA;
308.213250221836;-0.8990478515625;-0.0201995849609375;5.15999998697225;517;100 mA;
308.223250221811;-0.899658203125;-0.020184326171875;5.169999986947;518;100 mA;
308.233250221786;-0.8990478515625;-0.020166015625;5.17999998692176;519;100 mA;
308.243250221761;-0.89996337890625;-0.0201507568359375;5.18999998689651;520;100 mA;
308.253250221735;-0.89935302734375;-0.02012939453125;5.19999998687126;521;100 mA;
308.26325022171;-0.899658203125;-0.020111083984375;5.20999998684601;522;100 mA;
308.273250221685;-0.89935302734375;-0.0200927734375;5.21999998682077;523;100 mA;
308.28325022166;-0.89935302734375;-0.020074462890625;5.22999998679552;524;100 mA;
308.293250221634;-0.89996337890625;-0.0200653076171875;5.23999998677027;525;100 mA;
308.303250221609;-0.8990478515625;-0.0200408935546875;5.24999998674502;526;100 mA;
308.313250221584;-0.89935302734375;-0.0200286865234375;5.25999998671978;527;100 mA;
308.323250221559;-0.89935302734375;-0.02001953125;5.26999998669453;528;100 mA;
308.333250221533;-0.899658203125;-0.0199981689453125;5.27999998666928;529;100 mA;
308.343250221508;-0.899658203125;-0.0199920654296875;5.28999998664403;530;100 mA;
308.353250221483;-0.899658203125;-0.019970703125;5.29999998661879;531;100 mA;
308.363250221458;-0.89935302734375;-0.01995849609375;5.30999998659354;532;100 mA;
308.373250221432;-0.89935302734375;-0.019952392578125;5.31999998656829;533;100 mA;
308.383250221407;-0.8990478515625;-0.0199249267578125;5.32999998654304;534;100 mA;
308.393250221382;-0.89935302734375;-0.019915771484375;5.3399999865178;535;100 mA;
308.403250221357;-0.899658203125;-0.0198974609375;5.34999998649255;536;100 mA;
308.413250221331;-0.89935302734375;-0.01988525390625;5.3599999864673;537;100 mA;
308.423250221306;-0.89996337890625;-0.0198699951171875;5.36999998644205;538;100 mA;
308.433250221281;-0.89935302734375;-0.01986083984375;5.37999998641681;539;100 mA;
308.443250221256;-0.89996337890625;-0.0198516845703125;5.38999998639156;540;100 mA;
308.45325022123;-0.899658203125;-0.01983642578125;5.39999998636631;541;100 mA;
308.463250221205;-0.899658203125;-0.0198333740234375;5.40999998634106;542;100 mA;
308.47325022118;-0.8990478515625;-0.01982421875;5.41999998631582;543;100 mA;
308.483250221155;-0.89935302734375;-0.01981201171875;5.42999998629057;544;100 mA;
308.493250221129;-0.899658203125;-0.0198089599609375;5.43999998626532;545;100 mA;
308.503250221104;-0.899658203125;-0.0197967529296875;5.44999998624007;546;100 mA;
308.513250221079;-0.899658203125;-0.0197906494140625;5.45999998621483;547;100 mA;
308.523250221054;-0.899658203125;-0.0197906494140625;5.46999998618958;548;100 mA;
308.533250221028;-0.899658203125;-0.0197784423828125;5.47999998616433;549;100 mA;
308.543250221003;-0.899658203125;-0.019775390625;5.48999998613908;550;100 mA;
308.553250220978;-0.89935302734375;-0.0197662353515625;5.49999998611383;551;100 mA;
308.563250220953;-0.8990478515625;-0.01976318359375;5.50999998608859;552;100 mA;
308.573250220927;-0.89935302734375;-0.01976318359375;5.51999998606334;553;100 mA;
308.583250220902;-0.8990478515625;-0.019757080078125;5.52999998603809;554;100 mA;
308.593250220877;-0.899658203125;-0.0197662353515625;5.53999998601284;555;100 mA;
308.603250220852;-0.8990478515625;-0.0197601318359375;5.5499999859876;556;100 mA;
308.613250220826;-0.89935302734375;-0.0197662353515625;5.55999998596235;557;100 mA;
308.623250220801;-0.89996337890625;-0.019769287109375;5.5699999859371;558;100 mA;
308.633250220776;-0.89935302734375;-0.0197723388671875;5.57999998591185;559;100 mA;
308.643250220751;-0.899658203125;-0.019781494140625;5.58999998588661;560;100 mA;
308.653250220725;-0.89874267578125;-0.0197784423828125;5.59999998586136;561;100 mA;
308.6632502207;-0.89935302734375;-0.019793701171875;5.60999998583611;562;100 mA;
308.673250220675;-0.89935302734375;-0.0197967529296875;5.61999998581086;563;100 mA;
308.68325022065;-0.899658203125;-0.0198028564453125;5.62999998578562;564;100 mA;
308.693250220624;-0.89935302734375;-0.0198150634765625;5.63999998576037;565;100 mA;
308.703250220599;-0.899658203125;-0.0198211669921875;5.64999998573512;566;100 mA;
308.713250220574;-0.89935302734375;-0.0198333740234375;5.65999998570987;567;100 mA;
308.723250220549;-0.89874267578125;-0.0198455810546875;5.66999998568463;568;100 mA;
308.733250220523;-0.899658203125;-0.019854736328125;5.67999998565938;569;100 mA;
308.743250220498;-0.899658203125;-0.019873046875;5.68999998563413;570;100 mA;
308.753250220473;-0.89935302734375;-0.0198822021484375;5.69999998560888;571;100 mA;
308.763250220448;-0.89996337890625;-0.0198974609375;5.70999998558364;572;100 mA;
308.773250220422;-0.899658203125;-0.0199127197265625;5.71999998555839;573;100 mA;
308.783250220397;-0.8990478515625;-0.0199310302734375;5.72999998553314;574;100 mA;
308.793250220372;-0.8984375;-0.0199493408203125;5.73999998550789;575;100 mA;
308.803250220347;-0.89935302734375;-0.01995849609375;5.74999998548265;576;100 mA;
308.813250220321;-0.89935302734375;-0.019976806640625;5.7599999854574;577;100 mA;
308.823250220296;-0.89935302734375;-0.0199951171875;5.76999998543215;578;100 mA;
308.833250220271;-0.899658203125;-0.0200103759765625;5.7799999854069;579;100 mA;
308.843250220246;-0.89935302734375;-0.0200347900390625;5.78999998538166;580;100 mA;
308.853250220221;-0.89996337890625;-0.0200469970703125;5.79999998535641;581;100 mA;
308.863250220195;-0.89996337890625;-0.0200714111328125;5.80999998533116;582;100 mA;
308.87325022017;-0.89874267578125;-0.0200927734375;5.81999998530591;583;100 mA;
308.883250220145;-0.89935302734375;-0.020111083984375;5.82999998528066;584;100 mA;
308.89325022012;-0.89935302734375;-0.0201324462890625;5.83999998525542;585;100 mA;
308.903250220094;-0.89935302734375;-0.0201507568359375;5.84999998523017;586;100 mA;
308.913250220069;-0.899658203125;-0.0201751708984375;5.85999998520492;587;100 mA;
308.923250220044;-0.89935302734375;-0.0201934814453125;5.86999998517967;588;100 mA;
308.933250220019;-0.899658203125;-0.0202117919921875;5.87999998515443;589;100 mA;
308.943250219993;-0.899658203125;-0.0202362060546875;5.88999998512918;590;100 mA;
308.953250219968;-0.89935302734375;-0.0202484130859375;5.89999998510393;591;100 mA;
308.963250219943;-0.899658203125;-0.0202728271484375;5.90999998507868;592;100 mA;
308.973250219918;-0.89935302734375;-0.0202911376953125;5.91999998505344;593;100 mA;
308.983250219892;-0.899658203125;-0.020306396484375;5.92999998502819;594;100 mA;
308.993250219867;-0.8990478515625;-0.0203277587890625;5.93999998500294;595;100 mA;
309.003250219842;-0.89935302734375;-0.020343017578125;5.94999998497769;596;100 mA;
309.013250219817;-0.89935302734375;-0.020361328125;5.95999998495245;597;100 mA;
309.023250219791;-0.899658203125;-0.0203887939453125;5.9699999849272;598;100 mA;
309.033250219766;-0.8990478515625;-0.0204010009765625;5.97999998490195;599;100 mA;
309.043250219741;-0.8990478515625;-0.0204193115234375;5.9899999848767;600;100 mA;
309.053250219716;-0.89935302734375;-0.0204345703125;5.99999998485146;601;100 mA;
309.06325021969;-0.89935302734375;-0.02044677734375;6.00999998482621;602;100 mA;
309.073250219665;-0.89935302734375;-0.0204620361328125;6.01999998480096;603;100 mA;
309.08325021964;-0.8990478515625;-0.02047119140625;6.02999998477571;604;100 mA;
309.093250219615;-0.899658203125;-0.020489501953125;6.03999998475047;605;100 mA;
309.103250219589;-0.89935302734375;-0.0204925537109375;6.04999998472522;606;100 mA;
309.113250219564;-0.8990478515625;-0.0205078125;6.05999998469997;607;100 mA;
309.123250219539;-0.89874267578125;-0.02052001953125;6.06999998467472;608;100 mA;
309.133250219514;-0.89935302734375;-0.0205322265625;6.07999998464948;609;100 mA;
309.143250219488;-0.899658203125;-0.0205413818359375;6.08999998462423;610;100 mA;
309.153250219463;-0.89935302734375;-0.0205474853515625;6.09999998459898;611;100 mA;
309.163250219438;-0.899658203125;-0.0205596923828125;6.10999998457373;612;100 mA;
309.173250219413;-0.899658203125;-0.020574951171875;6.11999998454849;613;100 mA;
309.183250219387;-0.899658203125;-0.0205810546875;6.12999998452324;614;100 mA;
309.193250219362;-0.8990478515625;-0.0205902099609375;6.13999998449799;615;100 mA;
309.203250219337;-0.89935302734375;-0.02059326171875;6.14999998447274;616;100 mA;
309.213250219312;-0.89935302734375;-0.020599365234375;6.1599999844475;617;100 mA;
309.223250219286;-0.89996337890625;-0.020611572265625;6.16999998442225;618;100 mA;
309.233250219261;-0.899658203125;-0.0206146240234375;6.179999984397;619;100 mA;
309.243250219236;-0.899658203125;-0.0206207275390625;6.18999998437175;620;100 mA;
309.253250219211;-0.8990478515625;-0.0206207275390625;6.1999999843465;621;100 mA;
309.263250219185;-0.899658203125;-0.0206268310546875;6.20999998432126;622;100 mA;
309.27325021916;-0.899658203125;-0.0206390380859375;6.21999998429601;623;100 mA;
309.283250219135;-0.899658203125;-0.0206329345703125;6.22999998427076;624;100 mA;
309.29325021911;-0.899658203125;-0.020648193359375;6.23999998424551;625;100 mA;
309.303250219084;-0.899658203125;-0.02064208984375;6.24999998422027;626;100 mA;
309.313250219059;-0.89935302734375;-0.0206512451171875;6.25999998419502;627;100 mA;
309.323250219034;-0.899658203125;-0.020660400390625;6.26999998416977;628;100 mA;
309.333250219009;-0.89935302734375;-0.0206634521484375;6.27999998414452;629;100 mA;
309.343250218983;-0.89935302734375;-0.0206695556640625;6.28999998411928;630;100 mA;
309.353250218958;-0.89935302734375;-0.020672607421875;6.29999998409403;631;100 mA;
309.363250218933;-0.89935302734375;-0.0206787109375;6.30999998406878;632;100 mA;
309.373250218908;-0.8990478515625;-0.0206939697265625;6.31999998404353;633;100 mA;
309.383250218882;-0.89935302734375;-0.020697021484375;6.32999998401829;634;100 mA;
309.393250218857;-0.89996337890625;-0.020703125;6.33999998399304;635;100 mA;
309.403250218832;-0.89935302734375;-0.020709228515625;6.34999998396779;636;100 mA;
309.413250218807;-0.899658203125;-0.0207244873046875;6.35999998394254;637;100 mA;
309.423250218781;-0.89935302734375;-0.0207305908203125;6.3699999839173;638;100 mA;
309.433250218756;-0.89935302734375;-0.0207366943359375;6.37999998389205;639;100 mA;
309.443250218731;-0.899658203125;-0.0207427978515625;6.3899999838668;640;100 mA;
309.453250218706;-0.8990478515625;-0.020751953125;6.39999998384155;641;100 mA;
309.46325021868;-0.899658203125;-0.02076416015625;6.40999998381631;642;100 mA;
309.473250218655;-0.8990478515625;-0.0207763671875;6.41999998379106;643;100 mA;
309.48325021863;-0.89935302734375;-0.0207855224609375;6.42999998376581;644;100 mA;
309.493250218605;-0.89935302734375;-0.0207977294921875;6.43999998374056;645;100 mA;
309.503250218579;-0.89935302734375;-0.0207977294921875;6.44999998371532;646;100 mA;
309.513250218554;-0.89935302734375;-0.020819091796875;6.45999998369007;647;100 mA;
309.523250218529;-0.89935302734375;-0.0208282470703125;6.46999998366482;648;100 mA;
309.533250218504;-0.899658203125;-0.0208343505859375;6.47999998363957;649;100 mA;
309.543250218478;-0.89935302734375;-0.020849609375;6.48999998361433;650;100 mA;
309.553250218453;-0.89935302734375;-0.020855712890625;6.49999998358908;651;100 mA;
309.563250218428;-0.899658203125;-0.020867919921875;6.50999998356383;652;100 mA;
309.573250218403;-0.89935302734375;-0.02088623046875;6.51999998353858;653;100 mA;
309.583250218377;-0.899658203125;-0.02088623046875;6.52999998351333;654;100 mA;
309.593250218352;-0.899658203125;-0.0209075927734375;6.53999998348809;655;100 mA;
309.603250218327;-0.899658203125;-0.0209075927734375;6.54999998346284;656;100 mA;
309.613250218302;-0.89996337890625;-0.0209320068359375;6.55999998343759;657;100 mA;
309.623250218276;-0.899658203125;-0.020947265625;6.56999998341234;658;100 mA;
309.633250218251;-0.899658203125;-0.0209564208984375;6.5799999833871;659;100 mA;
309.643250218226;-0.89935302734375;-0.0209808349609375;6.58999998336185;660;100 mA;
309.653250218201;-0.89996337890625;-0.02098388671875;6.5999999833366;661;100 mA;
309.663250218175;-0.899658203125;-0.0210113525390625;6.60999998331135;662;100 mA;
309.67325021815;-0.899658203125;-0.0210296630859375;6.61999998328611;663;100 mA;
309.683250218125;-0.899658203125;-0.0210479736328125;6.62999998326086;664;100 mA;
309.6932502181;-0.89935302734375;-0.0210723876953125;6.63999998323561;665;100 mA;
309.703250218074;-0.89935302734375;-0.021087646484375;6.64999998321036;666;100 mA;
309.713250218049;-0.8990478515625;-0.0211090087890625;6.65999998318512;667;100 mA;
309.723250218024;-0.899658203125;-0.0211273193359375;6.66999998315987;668;100 mA;
309.733250217999;-0.89935302734375;-0.021142578125;6.67999998313462;669;100 mA;
309.743250217973;-0.89935302734375;-0.0211669921875;6.68999998310937;670;100 mA;
309.753250217948;-0.89996337890625;-0.021185302734375;6.69999998308413;671;100 mA;
309.763250217923;-0.89935302734375;-0.021209716796875;6.70999998305888;672;100 mA;
309.773250217898;-0.899658203125;-0.021234130859375;6.71999998303363;673;100 mA;
309.783250217872;-0.8990478515625;-0.0212554931640625;6.72999998300838;674;100 mA;
309.793250217847;-0.899658203125;-0.0212890625;6.73999998298314;675;100 mA;
309.803250217822;-0.89935302734375;-0.021307373046875;6.74999998295789;676;100 mA;
309.813250217797;-0.899658203125;-0.0213409423828125;6.75999998293264;677;100 mA;
309.823250217771;-0.8990478515625;-0.0213653564453125;6.76999998290739;678;100 mA;
309.833250217746;-0.899658203125;-0.02138671875;6.77999998288215;679;100 mA;
309.843250217721;-0.899658203125;-0.0214202880859375;6.7899999828569;680;100 mA;
309.853250217696;-0.899658203125;-0.0214324951171875;6.79999998283165;681;100 mA;
309.86325021767;-0.899658203125;-0.021466064453125;6.8099999828064;682;100 mA;
309.873250217645;-0.89935302734375;-0.0214874267578125;6.81999998278116;683;100 mA;
309.88325021762;-0.89935302734375;-0.0215057373046875;6.82999998275591;684;100 mA;
309.893250217595;-0.89935302734375;-0.0215301513671875;6.83999998273066;685;100 mA;
309.90325021757;-0.899658203125;-0.0215484619140625;6.84999998270541;686;100 mA;
309.913250217544;-0.899658203125;-0.0215789794921875;6.85999998268016;687;100 mA;
309.923250217519;-0.8990478515625;-0.0215972900390625;6.86999998265492;688;100 mA;
309.933250217494;-0.899658203125;-0.0216156005859375;6.87999998262967;689;100 mA;
309.943250217469;-0.89996337890625;-0.0216400146484375;6.88999998260442;690;100 mA;
309.953250217443;-0.89935302734375;-0.0216522216796875;6.89999998257917;691;100 mA;
309.963250217418;-0.899658203125;-0.0216796875;6.90999998255393;692;100 mA;
309.973250217393;-0.89996337890625;-0.021697998046875;6.91999998252868;693;100 mA;
309.983250217368;-0.89935302734375;-0.02171630859375;6.92999998250343;694;100 mA;
309.993250217342;-0.899658203125;-0.021734619140625;6.93999998247818;695;100 mA;
310.003250217317;-0.89996337890625;-0.0217437744140625;6.94999998245294;696;100 mA;
310.013250217292;-0.899658203125;-0.021771240234375;6.95999998242769;697;100 mA;
310.023250217267;-0.899658203125;-0.021783447265625;6.96999998240244;698;100 mA;
310.033250217241;-0.89935302734375;-0.0218017578125;6.97999998237719;699;100 mA;
310.043250217216;-0.899658203125;-0.0218231201171875;6.98999998235195;700;100 mA;
310.053250217191;-0.899658203125;-0.0218353271484375;6.9999999823267;701;100 mA;
310.063250217166;-0.899658203125;-0.021868896484375;7.00999998230145;702;100 mA;
310.07325021714;-0.899658203125;-0.02188720703125;7.0199999822762;703;100 mA;
310.083250217115;-0.89935302734375;-0.021905517578125;7.02999998225096;704;100 mA;
310.09325021709;-0.899658203125;-0.0219268798828125;7.03999998222571;705;100 mA;
310.103250217065;-0.899658203125;-0.0219512939453125;7.04999998220046;706;100 mA;
310.113250217039;-0.899658203125;-0.0219879150390625;7.05999998217521;707;100 mA;
310.123250217014;-0.899658203125;-0.02200927734375;7.06999998214997;708;100 mA;
310.133250216989;-0.899658203125;-0.0220367431640625;7.07999998212472;709;100 mA;
310.143250216964;-0.89935302734375;-0.0220672607421875;7.08999998209947;710;100 mA;
310.153250216938;-0.89935302734375;-0.0220916748046875;7.09999998207422;711;100 mA;
310.163250216913;-0.89935302734375;-0.0221282958984375;7.10999998204898;712;100 mA;
310.173250216888;-0.8990478515625;-0.0221649169921875;7.11999998202373;713;100 mA;
310.183250216863;-0.89935302734375;-0.0221954345703125;7.12999998199848;714;100 mA;
310.193250216837;-0.899658203125;-0.0222320556640625;7.13999998197323;715;100 mA;
310.203250216812;-0.899658203125;-0.0222625732421875;7.14999998194799;716;100 mA;
310.213250216787;-0.89996337890625;-0.0223114013671875;7.15999998192274;717;100 mA;
310.223250216762;-0.899658203125;-0.02235107421875;7.16999998189749;718;100 mA;
310.233250216736;-0.89996337890625;-0.0223876953125;7.17999998187224;719;100 mA;
310.243250216711;-0.89935302734375;-0.0224273681640625;7.189999981847;720;100 mA;
310.253250216686;-0.8990478515625;-0.0224639892578125;7.19999998182175;721;100 mA;
310.263250216661;-0.899658203125;-0.022509765625;7.2099999817965;722;100 mA;
310.273250216635;-0.89935302734375;-0.0225433349609375;7.21999998177125;723;100 mA;
310.28325021661;-0.89935302734375;-0.022576904296875;7.229999981746;724;100 mA;
310.293250216585;-0.8990478515625;-0.022613525390625;7.23999998172076;725;100 mA;
310.30325021656;-0.899658203125;-0.02264404296875;7.24999998169551;726;100 mA;
310.313250216534;-0.89935302734375;-0.0226837158203125;7.25999998167026;727;100 mA;
310.323250216509;-0.89935302734375;-0.0227203369140625;7.26999998164501;728;100 mA;
310.333250216484;-0.89935302734375;-0.0227508544921875;7.27999998161977;729;100 mA;
310.343250216459;-0.899658203125;-0.0227874755859375;7.28999998159452;730;100 mA;
310.353250216433;-0.89935302734375;-0.0228118896484375;7.29999998156927;731;100 mA;
310.363250216408;-0.899658203125;-0.0228485107421875;7.30999998154402;732;100 mA;
310.373250216383;-0.899658203125;-0.022882080078125;7.31999998151878;733;100 mA;
310.383250216358;-0.89935302734375;-0.0229095458984375;7.32999998149353;734;100 mA;
310.393250216332;-0.8990478515625;-0.022943115234375;7.33999998146828;735;100 mA;
310.403250216307;-0.899658203125;-0.02296142578125;7.34999998144303;736;100 mA;
310.413250216282;-0.899658203125;-0.022998046875;7.35999998141779;737;100 mA;
310.423250216257;-0.8990478515625;-0.0230255126953125;7.36999998139254;738;100 mA;
310.433250216231;-0.89996337890625;-0.0230499267578125;7.37999998136729;739;100 mA;
310.443250216206;-0.899658203125;-0.0230712890625;7.38999998134204;740;100 mA;
310.453250216181;-0.899658203125;-0.023095703125;7.3999999813168;741;100 mA;
310.463250216156;-0.89935302734375;-0.0231231689453125;7.40999998129155;742;100 mA;
310.47325021613;-0.899658203125;-0.02314453125;7.4199999812663;743;100 mA;
310.483250216105;-0.899658203125;-0.0231689453125;7.42999998124105;744;100 mA;
310.49325021608;-0.89874267578125;-0.023187255859375;7.43999998121581;745;100 mA;
310.503250216055;-0.899658203125;-0.023211669921875;7.44999998119056;746;100 mA;
310.513250216029;-0.899658203125;-0.0232421875;7.45999998116531;747;100 mA;
310.523250216004;-0.89874267578125;-0.0232574462890625;7.46999998114006;748;100 mA;
310.533250215979;-0.89996337890625;-0.0232757568359375;7.47999998111482;749;100 mA;
310.543250215954;-0.8990478515625;-0.0233001708984375;7.48999998108957;750;100 mA;
310.553250215928;-0.899658203125;-0.0233123779296875;7.49999998106432;751;100 mA;
310.563250215903;-0.89935302734375;-0.0233367919921875;7.50999998103907;752;100 mA;
310.573250215878;-0.89935302734375;-0.0233551025390625;7.51999998101383;753;100 mA;
310.583250215853;-0.899658203125;-0.0233673095703125;7.52999998098858;754;100 mA;
310.593250215827;-0.89935302734375;-0.0233917236328125;7.53999998096333;755;100 mA;
310.603250215802;-0.8990478515625;-0.0233978271484375;7.54999998093808;756;100 mA;
310.613250215777;-0.899658203125;-0.0234222412109375;7.55999998091283;757;100 mA;
310.623250215752;-0.89935302734375;-0.023431396484375;7.56999998088759;758;100 mA;
310.633250215726;-0.899658203125;-0.023443603515625;7.57999998086234;759;100 mA;
310.643250215701;-0.89935302734375;-0.0234588623046875;7.58999998083709;760;100 mA;
310.653250215676;-0.899658203125;-0.0234710693359375;7.59999998081184;761;100 mA;
310.663250215651;-0.899658203125;-0.023486328125;7.6099999807866;762;100 mA;
310.673250215625;-0.89935302734375;-0.023492431640625;7.61999998076135;763;100 mA;
310.6832502156;-0.89996337890625;-0.023504638671875;7.6299999807361;764;100 mA;
310.693250215575;-0.89935302734375;-0.023516845703125;7.63999998071085;765;100 mA;
310.70325021555;-0.89935302734375;-0.02352294921875;7.64999998068561;766;100 mA;
310.713250215524;-0.89935302734375;-0.0235382080078125;7.65999998066036;767;100 mA;
310.723250215499;-0.8990478515625;-0.0235443115234375;7.66999998063511;768;100 mA;
310.733250215474;-0.899658203125;-0.023541259765625;7.67999998060986;769;100 mA;
310.743250215449;-0.899658203125;-0.023553466796875;7.68999998058462;770;100 mA;
310.753250215423;-0.89935302734375;-0.023553466796875;7.69999998055937;771;100 mA;
310.763250215398;-0.8990478515625;-0.0235626220703125;7.70999998053412;772;100 mA;
310.773250215373;-0.89935302734375;-0.0235565185546875;7.71999998050887;773;100 mA;
310.783250215348;-0.8990478515625;-0.0235504150390625;7.72999998048363;774;100 mA;
310.793250215322;-0.8990478515625;-0.0235595703125;7.73999998045838;775;100 mA;
310.803250215297;-0.8990478515625;-0.0235504150390625;7.74999998043313;776;100 mA;
310.813250215272;-0.899658203125;-0.023553466796875;7.75999998040788;777;100 mA;
310.823250215247;-0.899658203125;-0.0235504150390625;7.76999998038264;778;100 mA;
310.833250215221;-0.89935302734375;-0.0235382080078125;7.77999998035739;779;100 mA;
310.843250215196;-0.89935302734375;-0.0235382080078125;7.78999998033214;780;100 mA;
310.853250215171;-0.899658203125;-0.0235260009765625;7.79999998030689;781;100 mA;
310.863250215146;-0.899658203125;-0.023529052734375;7.80999998028165;782;100 mA;
310.87325021512;-0.89996337890625;-0.023516845703125;7.8199999802564;783;100 mA;
310.883250215095;-0.9002685546875;-0.0235015869140625;7.82999998023115;784;100 mA;
310.89325021507;-0.8990478515625;-0.0234954833984375;7.8399999802059;785;100 mA;
310.903250215045;-0.89996337890625;-0.0234832763671875;7.84999998018066;786;100 mA;
310.91325021502;-0.89996337890625;-0.02347412109375;7.85999998015541;787;100 mA;
310.923250214994;-0.89935302734375;-0.0234619140625;7.86999998013016;788;100 mA;
310.933250214969;-0.89935302734375;-0.0234466552734375;7.87999998010491;789;100 mA;
310.943250214944;-0.89935302734375;-0.0234344482421875;7.88999998007966;790;100 mA;
310.953250214919;-0.8990478515625;-0.0234161376953125;7.89999998005442;791;100 mA;
310.963250214893;-0.89935302734375;-0.023406982421875;7.90999998002917;792;100 mA;
310.973250214868;-0.899658203125;-0.0233917236328125;7.91999998000392;793;100 mA;
310.983250214843;-0.899658203125;-0.0233734130859375;7.92999997997867;794;100 mA;
310.993250214818;-0.8990478515625;-0.0233673095703125;7.93999997995343;795;100 mA;
311.003250214792;-0.89935302734375;-0.023345947265625;7.94999997992818;796;100 mA;
311.013250214767;-0.89996337890625;-0.0233367919921875;7.95999997990293;797;100 mA;
311.023250214742;-0.8990478515625;-0.0233184814453125;7.96999997987768;798;100 mA;
311.033250214717;-0.899658203125;-0.0233062744140625;7.97999997985244;799;100 mA;
311.043250214691;-0.89935302734375;-0.023291015625;7.98999997982719;800;100 mA;
311.053250214666;-0.89996337890625;-0.023272705078125;7.99999997980194;801;100 mA;
311.063250214641;-0.899658203125;-0.0232574462890625;8.00999997977669;802;100 mA;
311.073250214616;-0.899658203125;-0.0232452392578125;8.01999997975145;803;100 mA;
311.08325021459;-0.89996337890625;-0.02322998046875;8.0299999797262;804;100 mA;
311.093250214565;-0.899658203125;-0.0232177734375;8.03999997970095;805;100 mA;
311.10325021454;-0.89935302734375;-0.023199462890625;8.0499999796757;806;100 mA;
311.113250214515;-0.89935302734375;-0.0231903076171875;8.05999997965046;807;100 mA;
311.123250214489;-0.899658203125;-0.023175048828125;8.06999997962521;808;100 mA;
311.133250214464;-0.899658203125;-0.0231597900390625;8.07999997959996;809;100 mA;
311.143250214439;-0.89935302734375;-0.0231475830078125;8.08999997957471;810;100 mA;
311.153250214414;-0.89935302734375;-0.0231292724609375;8.09999997954947;811;100 mA;
311.163250214388;-0.89996337890625;-0.0231170654296875;8.10999997952422;812;100 mA;
311.173250214363;-0.899658203125;-0.02310791015625;8.11999997949897;813;100 mA;
311.183250214338;-0.89935302734375;-0.0230926513671875;8.12999997947372;814;100 mA;
311.193250214313;-0.899658203125;-0.02308349609375;8.13999997944848;815;100 mA;
311.203250214287;-0.899658203125;-0.0230621337890625;8.14999997942323;816;100 mA;
311.213250214262;-0.89935302734375;-0.0230621337890625;8.15999997939798;817;100 mA;
311.223250214237;-0.89996337890625;-0.0230499267578125;8.16999997937273;818;100 mA;
311.233250214212;-0.89935302734375;-0.02303466796875;8.17999997934749;819;100 mA;
311.243250214186;-0.89935302734375;-0.02303466796875;8.18999997932224;820;100 mA;
311.253250214161;-0.89935302734375;-0.023016357421875;8.19999997929699;821;100 mA;
311.263250214136;-0.899658203125;-0.023016357421875;8.20999997927174;822;100 mA;
311.273250214111;-0.8990478515625;-0.0230010986328125;8.2199999792465;823;100 mA;
311.283250214085;-0.899658203125;-0.022991943359375;8.22999997922125;824;100 mA;
311.29325021406;-0.899658203125;-0.02298583984375;8.239999979196;825;100 mA;
311.303250214035;-0.89935302734375;-0.0229766845703125;8.24999997917075;826;100 mA;
311.31325021401;-0.899658203125;-0.0229766845703125;8.2599999791455;827;100 mA;
311.323250213984;-0.899658203125;-0.0229644775390625;8.26999997912026;828;100 mA;
311.333250213959;-0.899658203125;-0.02296142578125;8.27999997909501;829;100 mA;
311.343250213934;-0.89996337890625;-0.0229522705078125;8.28999997906976;830;100 mA;
311.353250213909;-0.89935302734375;-0.02294921875;8.29999997904451;831;100 mA;
311.363250213883;-0.8990478515625;-0.022943115234375;8.30999997901927;832;100 mA;
311.373250213858;-0.8990478515625;-0.0229461669921875;8.31999997899402;833;100 mA;
311.383250213833;-0.899658203125;-0.0229339599609375;8.32999997896877;834;100 mA;
311.393250213808;-0.89996337890625;-0.0229339599609375;8.33999997894352;835;100 mA;
311.403250213782;-0.899658203125;-0.0229278564453125;8.34999997891828;836;100 mA;
311.413250213757;-0.89935302734375;-0.0229278564453125;8.35999997889303;837;100 mA;
311.423250213732;-0.899658203125;-0.0229248046875;8.36999997886778;838;100 mA;
311.433250213707;-0.89996337890625;-0.022918701171875;8.37999997884253;839;100 mA;
311.443250213681;-0.899658203125;-0.022918701171875;8.38999997881729;840;100 mA;
311.453250213656;-0.89935302734375;-0.0229095458984375;8.39999997879204;841;100 mA;
311.463250213631;-0.899658203125;-0.02291259765625;8.40999997876679;842;100 mA;
311.473250213606;-0.899658203125;-0.022900390625;8.41999997874154;843;100 mA;
311.48325021358;-0.89996337890625;-0.022900390625;8.4299999787163;844;100 mA;
311.493250213555;-0.89935302734375;-0.022900390625;8.43999997869105;845;100 mA;
311.50325021353;-0.899658203125;-0.0228912353515625;8.4499999786658;846;100 mA;
311.513250213505;-0.89935302734375;-0.0228912353515625;8.45999997864055;847;100 mA;
311.523250213479;-0.8990478515625;-0.0228851318359375;8.46999997861531;848;100 mA;
311.533250213454;-0.899658203125;-0.022882080078125;8.47999997859006;849;100 mA;
311.543250213429;-0.899658203125;-0.0228851318359375;8.48999997856481;850;100 mA;
311.553250213404;-0.89996337890625;-0.0228759765625;8.49999997853956;851;100 mA;
311.563250213378;-0.8990478515625;-0.0228790283203125;8.50999997851432;852;100 mA;
311.573250213353;-0.8990478515625;-0.0228729248046875;8.51999997848907;853;100 mA;
311.583250213328;-0.89935302734375;-0.02286376953125;8.52999997846382;854;100 mA;
311.593250213303;-0.89935302734375;-0.0228668212890625;8.53999997843857;855;100 mA;
311.603250213277;-0.899658203125;-0.0228546142578125;8.54999997841333;856;100 mA;
311.613250213252;-0.8990478515625;-0.0228607177734375;8.55999997838808;857;100 mA;
311.623250213227;-0.899658203125;-0.0228515625;8.56999997836283;858;100 mA;
311.633250213202;-0.89935302734375;-0.0228515625;8.57999997833758;859;100 mA;
311.643250213176;-0.899658203125;-0.0228424072265625;8.58999997831233;860;100 mA;
311.653250213151;-0.899658203125;-0.02283935546875;8.59999997828709;861;100 mA;
311.663250213126;-0.89935302734375;-0.0228424072265625;8.60999997826184;862;100 mA;
311.673250213101;-0.89935302734375;-0.0228363037109375;8.61999997823659;863;100 mA;
311.683250213075;-0.89935302734375;-0.0228271484375;8.62999997821134;864;100 mA;
311.69325021305;-0.89935302734375;-0.022833251953125;8.6399999781861;865;100 mA;
311.703250213025;-0.8990478515625;-0.0228240966796875;8.64999997816085;866;100 mA;
311.713250213;-0.89935302734375;-0.0228240966796875;8.6599999781356;867;100 mA;
311.723250212974;-0.899658203125;-0.0228179931640625;8.66999997811035;868;100 mA;
311.733250212949;-0.89935302734375;-0.0228057861328125;8.67999997808511;869;100 mA;
311.743250212924;-0.8990478515625;-0.022808837890625;8.68999997805986;870;100 mA;
311.753250212899;-0.89935302734375;-0.022796630859375;8.69999997803461;871;100 mA;
311.763250212873;-0.89935302734375;-0.0227996826171875;8.70999997800936;872;100 mA;
311.773250212848;-0.89996337890625;-0.0227874755859375;8.71999997798412;873;100 mA;
311.783250212823;-0.899658203125;-0.0227874755859375;8.72999997795887;874;100 mA;
311.793250212798;-0.89935302734375;-0.02279052734375;8.73999997793362;875;100 mA;
311.803250212772;-0.89935302734375;-0.022772216796875;8.74999997790837;876;100 mA;
311.813250212747;-0.899658203125;-0.0227783203125;8.75999997788313;877;100 mA;
311.823250212722;-0.89935302734375;-0.022772216796875;8.76999997785788;878;100 mA;
311.833250212697;-0.899658203125;-0.0227630615234375;8.77999997783263;879;100 mA;
311.843250212671;-0.89935302734375;-0.0227630615234375;8.78999997780738;880;100 mA;
311.853250212646;-0.89996337890625;-0.02275390625;8.79999997778214;881;100 mA;
311.863250212621;-0.8990478515625;-0.0227508544921875;8.80999997775689;882;100 mA;
311.873250212596;-0.89935302734375;-0.0227447509765625;8.81999997773164;883;100 mA;
311.88325021257;-0.89874267578125;-0.0227386474609375;8.82999997770639;884;100 mA;
311.893250212545;-0.899658203125;-0.022735595703125;8.83999997768115;885;100 mA;
311.90325021252;-0.89935302734375;-0.022723388671875;8.8499999776559;886;100 mA;
311.913250212495;-0.89996337890625;-0.022723388671875;8.85999997763065;887;100 mA;
311.923250212469;-0.8990478515625;-0.022711181640625;8.8699999776054;888;100 mA;
311.933250212444;-0.899658203125;-0.022698974609375;8.87999997758016;889;100 mA;
311.943250212419;-0.899658203125;-0.022698974609375;8.88999997755491;890;100 mA;
311.953250212394;-0.8990478515625;-0.0226898193359375;8.89999997752966;891;100 mA;
311.963250212369;-0.899658203125;-0.0226837158203125;8.90999997750441;892;100 mA;
311.973250212343;-0.899658203125;-0.0226776123046875;8.91999997747916;893;100 mA;
311.983250212318;-0.899658203125;-0.0226654052734375;8.92999997745392;894;100 mA;
311.993250212293;-0.89996337890625;-0.022662353515625;8.93999997742867;895;100 mA;
312.003250212268;-0.89996337890625;-0.022650146484375;8.94999997740342;896;100 mA;
312.013250212242;-0.8990478515625;-0.0226470947265625;8.95999997737817;897;100 mA;
312.023250212217;-0.89935302734375;-0.0226318359375;8.96999997735293;898;100 mA;
312.033250212192;-0.8990478515625;-0.022625732421875;8.97999997732768;899;100 mA;
312.043250212167;-0.899658203125;-0.02261962890625;8.98999997730243;900;100 mA;
312.053250212141;-0.89874267578125;-0.0226043701171875;8.99999997727718;901;100 mA;
312.063250212116;-0.8990478515625;-0.022601318359375;9.00999997725194;902;100 mA;
312.073250212091;-0.89935302734375;-0.0225921630859375;9.01999997722669;903;100 mA;
312.083250212066;-0.89935302734375;-0.0225799560546875;9.02999997720144;904;100 mA;
312.09325021204;-0.89935302734375;-0.02257080078125;9.03999997717619;905;100 mA;
312.103250212015;-0.899658203125;-0.0225555419921875;9.04999997715095;906;100 mA;
312.11325021199;-0.89935302734375;-0.022552490234375;9.0599999771257;907;100 mA;
312.123250211965;-0.899658203125;-0.0225494384765625;9.06999997710045;908;100 mA;
312.133250211939;-0.899658203125;-0.0225372314453125;9.0799999770752;909;100 mA;
312.143250211914;-0.899658203125;-0.0225311279296875;9.08999997704996;910;100 mA;
312.153250211889;-0.89996337890625;-0.0225189208984375;9.09999997702471;911;100 mA;
312.163250211864;-0.89935302734375;-0.0225189208984375;9.10999997699946;912;100 mA;
312.173250211838;-0.899658203125;-0.0225067138671875;9.11999997697421;913;100 mA;
312.183250211813;-0.89935302734375;-0.022503662109375;9.12999997694897;914;100 mA;
312.193250211788;-0.89935302734375;-0.0225006103515625;9.13999997692372;915;100 mA;
312.203250211763;-0.89935302734375;-0.0224822998046875;9.14999997689847;916;100 mA;
312.213250211737;-0.89996337890625;-0.0224853515625;9.15999997687322;917;100 mA;
312.223250211712;-0.89935302734375;-0.0224700927734375;9.16999997684798;918;100 mA;
312.233250211687;-0.89935302734375;-0.0224609375;9.17999997682273;919;100 mA;
312.243250211662;-0.899658203125;-0.022454833984375;9.18999997679748;920;100 mA;
312.253250211636;-0.89935302734375;-0.022442626953125;9.19999997677223;921;100 mA;
312.263250211611;-0.89935302734375;-0.0224395751953125;9.20999997674699;922;100 mA;
312.273250211586;-0.89935302734375;-0.0224395751953125;9.21999997672174;923;100 mA;
312.283250211561;-0.89935302734375;-0.0224273681640625;9.22999997669649;924;100 mA;
312.293250211535;-0.899658203125;-0.02242431640625;9.23999997667124;925;100 mA;
312.30325021151;-0.89935302734375;-0.0224151611328125;9.249999976646;926;100 mA;
312.313250211485;-0.89935302734375;-0.022418212890625;9.25999997662075;927;100 mA;
312.32325021146;-0.899658203125;-0.0224151611328125;9.2699999765955;928;100 mA;
312.333250211434;-0.9002685546875;-0.022406005859375;9.27999997657025;929;100 mA;
312.343250211409;-0.8990478515625;-0.022406005859375;9.289999976545;930;100 mA;
312.353250211384;-0.89996337890625;-0.0223968505859375;9.29999997651976;931;100 mA;
312.363250211359;-0.899658203125;-0.02239990234375;9.30999997649451;932;100 mA;
312.373250211333;-0.89935302734375;-0.0224029541015625;9.31999997646926;933;100 mA;
312.383250211308;-0.899658203125;-0.0223968505859375;9.32999997644401;934;100 mA;
312.393250211283;-0.89935302734375;-0.0223968505859375;9.33999997641877;935;100 mA;
312.403250211258;-0.899658203125;-0.022381591796875;9.34999997639352;936;100 mA;
312.413250211232;-0.899658203125;-0.0223907470703125;9.35999997636827;937;100 mA;
312.423250211207;-0.89935302734375;-0.0223785400390625;9.36999997634302;938;100 mA;
312.433250211182;-0.899658203125;-0.02237548828125;9.37999997631778;939;100 mA;
312.443250211157;-0.89996337890625;-0.02237548828125;9.38999997629253;940;100 mA;
312.453250211131;-0.89935302734375;-0.0223663330078125;9.39999997626728;941;100 mA;
312.463250211106;-0.899658203125;-0.022369384765625;9.40999997624203;942;100 mA;
312.473250211081;-0.89874267578125;-0.022369384765625;9.41999997621679;943;100 mA;
312.483250211056;-0.899658203125;-0.02236328125;9.42999997619154;944;100 mA;
312.49325021103;-0.899658203125;-0.022357177734375;9.43999997616629;945;100 mA;
312.503250211005;-0.899658203125;-0.02235107421875;9.44999997614104;946;100 mA;
312.51325021098;-0.89935302734375;-0.02235107421875;9.4599999761158;947;100 mA;
312.523250210955;-0.8990478515625;-0.0223388671875;9.46999997609055;948;100 mA;
312.533250210929;-0.89996337890625;-0.0223297119140625;9.4799999760653;949;100 mA;
312.543250210904;-0.899658203125;-0.022314453125;9.48999997604005;950;100 mA;
312.553250210879;-0.89935302734375;-0.02230224609375;9.49999997601481;951;100 mA;
312.563250210854;-0.8990478515625;-0.0222991943359375;9.50999997598956;952;100 mA;
312.573250210828;-0.8990478515625;-0.0222930908203125;9.51999997596431;953;100 mA;
312.583250210803;-0.89935302734375;-0.0222869873046875;9.52999997593906;954;100 mA;
312.593250210778;-0.8990478515625;-0.022283935546875;9.53999997591382;955;100 mA;
312.603250210753;-0.8990478515625;-0.0222808837890625;9.54999997588857;956;100 mA;
312.613250210727;-0.899658203125;-0.022283935546875;9.55999997586332;957;100 mA;
312.623250210702;-0.8990478515625;-0.02227783203125;9.56999997583807;958;100 mA;
312.633250210677;-0.89935302734375;-0.022271728515625;9.57999997581283;959;100 mA;
312.643250210652;-0.89935302734375;-0.022265625;9.58999997578758;960;100 mA;
312.653250210626;-0.89935302734375;-0.0222503662109375;9.59999997576233;961;100 mA;
312.663250210601;-0.899658203125;-0.02225341796875;9.60999997573708;962;100 mA;
312.673250210576;-0.89935302734375;-0.022235107421875;9.61999997571183;963;100 mA;
312.683250210551;-0.899658203125;-0.0222259521484375;9.62999997568659;964;100 mA;
312.693250210525;-0.89874267578125;-0.0222137451171875;9.63999997566134;965;100 mA;
312.7032502105;-0.89935302734375;-0.0221954345703125;9.64999997563609;966;100 mA;
312.713250210475;-0.89935302734375;-0.0221923828125;9.65999997561084;967;100 mA;
312.72325021045;-0.899658203125;-0.02218017578125;9.6699999755856;968;100 mA;
312.733250210424;-0.89996337890625;-0.02216796875;9.67999997556035;969;100 mA;
312.743250210399;-0.89996337890625;-0.0221588134765625;9.6899999755351;970;100 mA;
312.753250210374;-0.899658203125;-0.0221466064453125;9.69999997550985;971;100 mA;
312.763250210349;-0.89935302734375;-0.0221466064453125;9.70999997548461;972;100 mA;
312.773250210323;-0.899658203125;-0.02213134765625;9.71999997545936;973;100 mA;
312.783250210298;-0.89935302734375;-0.0221221923828125;9.72999997543411;974;100 mA;
312.793250210273;-0.8990478515625;-0.0221160888671875;9.73999997540886;975;100 mA;
312.803250210248;-0.899658203125;-0.022100830078125;9.74999997538362;976;100 mA;
312.813250210222;-0.899658203125;-0.0220916748046875;9.75999997535837;977;100 mA;
312.823250210197;-0.89935302734375;-0.0220733642578125;9.76999997533312;978;100 mA;
312.833250210172;-0.89935302734375;-0.0220550537109375;9.77999997530787;979;100 mA;
312.843250210147;-0.89935302734375;-0.0220428466796875;9.78999997528263;980;100 mA;
312.853250210121;-0.89935302734375;-0.0220245361328125;9.79999997525738;981;100 mA;
312.863250210096;-0.8990478515625;-0.0220123291015625;9.80999997523213;982;100 mA;
312.873250210071;-0.899658203125;-0.0220001220703125;9.81999997520688;983;100 mA;
312.883250210046;-0.899658203125;-0.0219879150390625;9.82999997518164;984;100 mA;
312.89325021002;-0.89935302734375;-0.0219818115234375;9.83999997515639;985;100 mA;
312.903250209995;-0.89996337890625;-0.021966552734375;9.84999997513114;986;100 mA;
312.91325020997;-0.89935302734375;-0.021966552734375;9.85999997510589;987;100 mA;
312.923250209945;-0.899658203125;-0.021954345703125;9.86999997508065;988;100 mA;
312.933250209919;-0.899658203125;-0.0219451904296875;9.8799999750554;989;100 mA;
312.943250209894;-0.89935302734375;-0.02193603515625;9.88999997503015;990;100 mA;
312.953250209869;-0.899658203125;-0.0219146728515625;9.8999999750049;991;100 mA;
312.963250209844;-0.899658203125;-0.0219146728515625;9.90999997497966;992;100 mA;
312.973250209819;-0.89935302734375;-0.0218963623046875;9.91999997495441;993;100 mA;
312.983250209793;-0.899658203125;-0.021881103515625;9.92999997492916;994;100 mA;
312.993250209768;-0.899658203125;-0.0218719482421875;9.93999997490391;995;100 mA;
313.003250209743;-0.8990478515625;-0.0218536376953125;9.94999997487866;996;100 mA;
313.013250209718;-0.8990478515625;-0.0218505859375;9.95999997485342;997;100 mA;
313.023250209692;-0.899658203125;-0.0218414306640625;9.96999997482817;998;100 mA;
313.033250209667;-0.899658203125;-0.021826171875;9.97999997480292;999;100 mA;
313.043250209642;-0.899658203125;-0.021820068359375;9.98999997477767;1000;100 mA;
