Time (s);WE(1).Potential (V);WE(1).Current (A);Corrected time (s);Index;Current range
0.683224998275023;-0.3997802734375;-0.02723388671875;0;1;1 A
0.693224998249775;-0.3997802734375;-0.0228973388671875;0.00999999997475243;2;1 A
0.703224998224528;-0.399749755859375;-0.020147705078125;0.0199999999495049;3;1 A
0.71322499819928;-0.39971923828125;-0.018231201171875;0.0299999999242573;4;1 A
0.723224998174032;-0.399749755859375;-0.0168243408203125;0.0399999998990097;5;1 A
0.733224998148785;-0.39971923828125;-0.015716552734375;0.0499999998737621;6;1 A
0.743224998123537;-0.3997802734375;-0.01484375;0.0599999998485146;7;1 A
0.75322499809829;-0.399688720703125;-0.0141326904296875;0.069999999823267;8;1 A
0.763224998073042;-0.399658203125;-0.0135589599609375;0.0799999997980194;9;1 A
0.773224998047795;-0.399749755859375;-0.013092041015625;0.0899999997727718;10;1 A
0.783224998022547;-0.399658203125;-0.012664794921875;0.0999999997475243;11;1 A
0.793224997997299;-0.39971923828125;-0.0123138427734375;0.109999999722277;12;1 A
0.803224997972052;-0.39971923828125;-0.0120208740234375;0.119999999697029;13;1 A
0.813224997946804;-0.3997802734375;-0.011773681640625;0.129999999671782;14;1 A
0.823224997921557;-0.39971923828125;-0.01153564453125;0.139999999646534;15;1 A
0.833224997896309;-0.399749755859375;-0.011309814453125;0.149999999621286;16;1 A
0.843224997871062;-0.399749755859375;-0.0111480712890625;0.159999999596039;17;1 A
0.853224997845814;-0.39971923828125;-0.0109954833984375;0.169999999570791;18;1 A
0.863224997820566;-0.3997802734375;-0.0108551025390625;0.179999999545544;19;1 A
0.873224997795319;-0.399749755859375;-0.0107391357421875;0.189999999520296;20;1 A
0.883224997770071;-0.3997802734375;-0.010650634765625;0.199999999495049;21;1 A
0.893224997744824;-0.399749755859375;-0.0105682373046875;0.209999999469801;22;1 A
0.903224997719576;-0.399810791015625;-0.010443115234375;0.219999999444553;23;1 A
0.913224997694329;-0.399749755859375;-0.0103424072265625;0.229999999419306;24;1 A
0.923224997669081;-0.3997802734375;-0.010308837890625;0.239999999394058;25;1 A
0.933224997643833;-0.39971923828125;-0.010272216796875;0.249999999368811;26;1 A
0.943224997618586;-0.39971923828125;-0.0102325439453125;0.259999999343563;27;1 A
0.953224997593338;-0.399749755859375;-0.010162353515625;0.269999999318316;28;1 A
0.963224997568091;-0.39971923828125;-0.0101318359375;0.279999999293068;29;1 A
0.973224997542843;-0.3997802734375;-0.010107421875;0.28999999926782;30;1 A
0.983224997517596;-0.399658203125;-0.0100738525390625;0.299999999242573;31;1 A
0.993224997492348;-0.399749755859375;-0.01002197265625;0.309999999217325;32;1 A
1.0032249974671;-0.399688720703125;-0.0099822998046875;0.319999999192078;33;1 A
1.01322499744185;-0.3997802734375;-0.0099456787109375;0.32999999916683;34;1 A
1.02322499741661;-0.39971923828125;-0.00989685058593751;0.339999999141583;35;1 A
1.03322499739136;-0.39971923828125;-0.00983581542968751;0.349999999116335;36;1 A
1.04322499736611;-0.39971923828125;-0.00980529785156251;0.359999999091087;37;1 A
1.05322499734086;-0.3997802734375;-0.00975952148437501;0.36999999906584;38;1 A
1.06322499731561;-0.3997802734375;-0.009722900390625;0.379999999040592;39;1 A
1.07322499729037;-0.399688720703125;-0.00968322753906251;0.389999999015345;40;1 A
1.08322499726512;-0.399749755859375;-0.0096710205078125;0.399999998990097;41;1 A
1.09322499723987;-0.399749755859375;-0.0096710205078125;0.40999999896485;42;1 A
1.10322499721462;-0.399749755859375;-0.00964965820312499;0.419999998939602;43;1 A
1.11322499718938;-0.399810791015625;-0.0096282958984375;0.429999998914354;44;1 A
1.12322499716413;-0.399749755859375;-0.00963745117187501;0.439999998889107;45;1 A
1.13322499713888;-0.39971923828125;-0.00963439941406249;0.449999998863859;46;1 A
1.14322499711363;-0.399749755859375;-0.00965576171875;0.459999998838612;47;1 A
1.15322499708839;-0.399749755859375;-0.0096405029296875;0.469999998813364;48;1 A
1.16322499706314;-0.399688720703125;-0.0096710205078125;0.479999998788116;49;1 A
1.17322499703789;-0.399749755859375;-0.0096923828125;0.489999998762869;50;1 A
1.18322499701264;-0.399688720703125;-0.00969848632812501;0.499999998737621;51;1 A
1.1932249969874;-0.399749755859375;-0.0096771240234375;0.509999998712374;52;1 A
1.20322499696215;-0.399688720703125;-0.0096710205078125;0.519999998687126;53;1 A
1.2132249969369;-0.399749755859375;-0.0096588134765625;0.529999998661879;54;1 A
1.22322499691165;-0.39971923828125;-0.00963439941406249;0.539999998636631;55;1 A
1.23322499688641;-0.399749755859375;-0.00958251953125;0.549999998611383;56;1 A
1.24322499686116;-0.39971923828125;-0.0095672607421875;0.559999998586136;57;1 A
1.25322499683591;-0.3997802734375;-0.00954284667968749;0.569999998560888;58;1 A
1.26322499681066;-0.3997802734375;-0.0095184326171875;0.579999998535641;59;1 A
1.27322499678542;-0.399749755859375;-0.00948486328125001;0.589999998510393;60;1 A
1.28322499676017;-0.3997802734375;-0.0095062255859375;0.599999998485146;61;1 A
1.29322499673492;-0.399749755859375;-0.009521484375;0.609999998459898;62;1 A
1.30322499670967;-0.399810791015625;-0.009503173828125;0.61999999843465;63;1 A
1.31322499668443;-0.39971923828125;-0.00946655273437499;0.629999998409403;64;1 A
1.32322499665918;-0.399810791015625;-0.009478759765625;0.639999998384155;65;1 A
1.33322499663393;-0.3997802734375;-0.00946960449218751;0.649999998358908;66;1 A
1.34322499660868;-0.39971923828125;-0.00948181152343749;0.65999999833366;67;1 A
1.35322499658344;-0.399810791015625;-0.00950012207031251;0.669999998308413;68;1 A
1.36322499655819;-0.39971923828125;-0.0095550537109375;0.679999998283165;69;1 A
1.37322499653294;-0.399749755859375;-0.0095977783203125;0.689999998257917;70;1 A
1.38322499650769;-0.39971923828125;-0.00962219238281251;0.69999999823267;71;1 A
1.39322499648245;-0.399749755859375;-0.0096435546875;0.709999998207422;72;1 A
1.4032249964572;-0.39971923828125;-0.0096923828125;0.719999998182175;73;1 A
1.41322499643195;-0.39971923828125;-0.0097198486328125;0.729999998156927;74;1 A
1.4232249964067;-0.399688720703125;-0.009716796875;0.73999999813168;75;1 A
1.43322499638145;-0.39971923828125;-0.0097076416015625;0.749999998106432;76;1 A
1.44322499635621;-0.399688720703125;-0.009735107421875;0.759999998081184;77;1 A
1.45322499633096;-0.3997802734375;-0.00975646972656249;0.769999998055937;78;1 A
1.46322499630571;-0.3997802734375;-0.0097503662109375;0.779999998030689;79;1 A
1.47322499628046;-0.399749755859375;-0.00972900390625001;0.789999998005442;80;1 A
1.48322499625522;-0.3997802734375;-0.009747314453125;0.799999997980194;81;1 A
1.49322499622997;-0.399749755859375;-0.009765625;0.809999997954947;82;1 A
1.50322499620472;-0.399810791015625;-0.00977478027343751;0.819999997929699;83;1 A
1.51322499617947;-0.39971923828125;-0.00975341796875;0.829999997904451;84;1 A
1.52322499615423;-0.3997802734375;-0.0097503662109375;0.839999997879204;85;1 A
1.53322499612898;-0.399688720703125;-0.0097320556640625;0.849999997853956;86;1 A
1.54322499610373;-0.399810791015625;-0.00972900390625001;0.859999997828709;87;1 A
1.55322499607848;-0.399749755859375;-0.00969543457031249;0.869999997803461;88;1 A
1.56322499605324;-0.3997802734375;-0.0096893310546875;0.879999997778214;89;1 A
1.57322499602799;-0.399749755859375;-0.0096923828125;0.889999997752966;90;1 A
1.58322499600274;-0.399749755859375;-0.0096588134765625;0.899999997727718;91;1 A
1.59322499597749;-0.399749755859375;-0.0096282958984375;0.909999997702471;92;1 A
1.60322499595225;-0.39971923828125;-0.00963134765625;0.919999997677223;93;1 A
1.613224995927;-0.399749755859375;-0.0096160888671875;0.929999997651976;94;1 A
1.62322499590175;-0.39971923828125;-0.00960693359375001;0.939999997626728;95;1 A
1.6332249958765;-0.399749755859375;-0.00958251953125;0.949999997601481;96;1 A
1.64322499585126;-0.399658203125;-0.00959167480468751;0.959999997576233;97;1 A
1.65322499582601;-0.399749755859375;-0.00958862304687499;0.969999997550985;98;1 A
1.66322499580076;-0.39971923828125;-0.0095947265625;0.979999997525738;99;1 A
1.67322499577551;-0.399749755859375;-0.00960693359375001;0.98999999750049;100;1 A
1.68322499575027;-0.39971923828125;-0.0096405029296875;0.999999997475243;101;1 A
1.69322499572502;-0.399749755859375;-0.0096435546875;1.00999999745;102;1 A
1.70322499569977;-0.39984130859375;-0.0096405029296875;1.01999999742475;103;1 A
1.71322499567452;-0.399749755859375;-0.00962219238281251;1.0299999973995;104;1 A
1.72322499564928;-0.399810791015625;-0.00961914062499999;1.03999999737425;105;1 A
1.73322499562403;-0.39971923828125;-0.00958862304687499;1.049999997349;106;1 A
1.74322499559878;-0.399749755859375;-0.00957641601562501;1.05999999732376;107;1 A
1.75322499557353;-0.399749755859375;-0.00955810546874999;1.06999999729851;108;1 A
1.76322499554828;-0.39971923828125;-0.00956115722656251;1.07999999727326;109;1 A
1.77322499552304;-0.3997802734375;-0.0095367431640625;1.08999999724801;110;1 A
1.78322499549779;-0.3997802734375;-0.00953369140625;1.09999999722277;111;1 A
1.79322499547254;-0.39971923828125;-0.00953369140625;1.10999999719752;112;1 A
1.80322499544729;-0.39971923828125;-0.0095489501953125;1.11999999717227;113;1 A
1.81322499542205;-0.399688720703125;-0.0095245361328125;1.12999999714702;114;1 A
1.8232249953968;-0.399749755859375;-0.00951232910156249;1.13999999712178;115;1 A
1.83322499537155;-0.39971923828125;-0.00950927734375;1.14999999709653;116;1 A
1.8432249953463;-0.3997802734375;-0.00953369140625;1.15999999707128;117;1 A
1.85322499532106;-0.399749755859375;-0.0095367431640625;1.16999999704603;118;1 A
1.86322499529581;-0.399688720703125;-0.00946044921875;1.17999999702079;119;1 A
1.87322499527056;-0.3997802734375;-0.009503173828125;1.18999999699554;120;1 A
1.88322499524531;-0.39971923828125;-0.0095245361328125;1.19999999697029;121;1 A
1.89322499522007;-0.399749755859375;-0.00950927734375;1.20999999694504;122;1 A
1.90322499519482;-0.39971923828125;-0.00947265625;1.2199999969198;123;1 A
1.91322499516957;-0.399749755859375;-0.00942077636718749;1.22999999689455;124;1 A
1.92322499514432;-0.3997802734375;-0.0094146728515625;1.2399999968693;125;1 A
1.93322499511908;-0.39971923828125;-0.00940551757812499;1.24999999684405;126;1 A
1.94322499509383;-0.39984130859375;-0.00942382812500001;1.25999999681881;127;1 A
1.95322499506858;-0.399810791015625;-0.0094329833984375;1.26999999679356;128;1 A
1.96322499504333;-0.399810791015625;-0.00946960449218751;1.27999999676831;129;1 A
1.97322499501809;-0.399810791015625;-0.00948181152343749;1.28999999674306;130;1 A
1.98322499499284;-0.399749755859375;-0.0094757080078125;1.29999999671782;131;1 A
1.99322499496759;-0.39971923828125;-0.009442138671875;1.30999999669257;132;1 A
2.00322499494234;-0.3997802734375;-0.00943908691406251;1.31999999666732;133;1 A
2.0132249949171;-0.3997802734375;-0.00942077636718749;1.32999999664207;134;1 A
2.02322499489185;-0.3997802734375;-0.00941162109375;1.33999999661683;135;1 A
2.0332249948666;-0.39971923828125;-0.00939331054687501;1.34999999659158;136;1 A
2.04322499484135;-0.399749755859375;-0.0093994140625;1.35999999656633;137;1 A
2.05322499481611;-0.39971923828125;-0.0093963623046875;1.36999999654108;138;1 A
2.06322499479086;-0.39971923828125;-0.0093963623046875;1.37999999651583;139;1 A
2.07322499476561;-0.3997802734375;-0.00941162109375;1.38999999649059;140;1 A
2.08322499474036;-0.39971923828125;-0.00945129394531249;1.39999999646534;141;1 A
2.09322499471511;-0.3997802734375;-0.00948181152343749;1.40999999644009;142;1 A
2.10322499468987;-0.39971923828125;-0.009503173828125;1.41999999641484;143;1 A
2.11322499466462;-0.3997802734375;-0.00950012207031251;1.4299999963896;144;1 A
2.12322499463937;-0.399749755859375;-0.0095367431640625;1.43999999636435;145;1 A
2.13322499461412;-0.399749755859375;-0.00952758789062499;1.4499999963391;146;1 A
2.14322499458888;-0.3997802734375;-0.0095245361328125;1.45999999631385;147;1 A
2.15322499456363;-0.399810791015625;-0.009521484375;1.46999999628861;148;1 A
2.16322499453838;-0.399810791015625;-0.009539794921875;1.47999999626336;149;1 A
2.17322499451313;-0.3997802734375;-0.00955810546874999;1.48999999623811;150;1 A
2.18322499448789;-0.399810791015625;-0.0095672607421875;1.49999999621286;151;1 A
2.19322499446264;-0.3997802734375;-0.009564208984375;1.50999999618762;152;1 A
2.20322499443739;-0.399749755859375;-0.00959167480468751;1.51999999616237;153;1 A
2.21322499441214;-0.3997802734375;-0.0095855712890625;1.52999999613712;154;1 A
2.2232249943869;-0.399749755859375;-0.00958251953125;1.53999999611187;155;1 A
2.23322499436165;-0.399688720703125;-0.00956115722656251;1.54999999608663;156;1 A
2.2432249943364;-0.399749755859375;-0.00958251953125;1.55999999606138;157;1 A
2.25322499431115;-0.39971923828125;-0.00957336425781249;1.56999999603613;158;1 A
2.26322499428591;-0.399688720703125;-0.00957641601562501;1.57999999601088;159;1 A
2.27322499426066;-0.399688720703125;-0.009564208984375;1.58999999598564;160;1 A
2.28322499423541;-0.3997802734375;-0.0095977783203125;1.59999999596039;161;1 A
2.29322499421016;-0.399688720703125;-0.00959167480468751;1.60999999593514;162;1 A
2.30322499418492;-0.39971923828125;-0.0095947265625;1.61999999590989;163;1 A
2.31322499415967;-0.39984130859375;-0.00955810546874999;1.62999999588465;164;1 A
2.32322499413442;-0.399688720703125;-0.0095703125;1.6399999958594;165;1 A
2.33322499410917;-0.399749755859375;-0.00955810546874999;1.64999999583415;166;1 A
2.34322499408393;-0.39971923828125;-0.009552001953125;1.6599999958089;167;1 A
2.35322499405868;-0.399749755859375;-0.00954589843750001;1.66999999578366;168;1 A
2.36322499403343;-0.39971923828125;-0.00955810546874999;1.67999999575841;169;1 A
2.37322499400818;-0.399749755859375;-0.0095703125;1.68999999573316;170;1 A
2.38322499398294;-0.399749755859375;-0.009552001953125;1.69999999570791;171;1 A
2.39322499395769;-0.39971923828125;-0.00952758789062499;1.70999999568267;172;1 A
2.40322499393244;-0.3997802734375;-0.0094573974609375;1.71999999565742;173;1 A
2.41322499390719;-0.399749755859375;-0.009490966796875;1.72999999563217;174;1 A
2.42322499388195;-0.3997802734375;-0.0094940185546875;1.73999999560692;175;1 A
2.4332249938567;-0.399749755859375;-0.00951232910156249;1.74999999558167;176;1 A
2.44322499383145;-0.39971923828125;-0.00957641601562501;1.75999999555643;177;1 A
2.4532249938062;-0.39971923828125;-0.009625244140625;1.76999999553118;178;1 A
2.46322499378095;-0.399688720703125;-0.009625244140625;1.77999999550593;179;1 A
2.47322499375571;-0.399749755859375;-0.0096099853515625;1.78999999548068;180;1 A
2.48322499373046;-0.399749755859375;-0.00959167480468751;1.79999999545544;181;1 A
2.49322499370521;-0.399749755859375;-0.00956115722656251;1.80999999543019;182;1 A
2.50322499367996;-0.399688720703125;-0.00951232910156249;1.81999999540494;183;1 A
2.51322499365472;-0.399749755859375;-0.0094451904296875;1.82999999537969;184;1 A
2.52322499362947;-0.399658203125;-0.00943603515624999;1.83999999535445;185;1 A
2.53322499360422;-0.39971923828125;-0.00941162109375;1.8499999953292;186;1 A
2.54322499357897;-0.39971923828125;-0.0093994140625;1.85999999530395;187;1 A
2.55322499355373;-0.3997802734375;-0.0093841552734375;1.8699999952787;188;1 A
2.56322499352848;-0.399688720703125;-0.00939331054687501;1.87999999525346;189;1 A
2.57322499350323;-0.3997802734375;-0.0093994140625;1.88999999522821;190;1 A
2.58322499347798;-0.3997802734375;-0.0093719482421875;1.89999999520296;191;1 A
2.59322499345274;-0.3997802734375;-0.0093536376953125;1.90999999517771;192;1 A
2.60322499342749;-0.399810791015625;-0.0093658447265625;1.91999999515247;193;1 A
2.61322499340224;-0.399749755859375;-0.009356689453125;1.92999999512722;194;1 A
2.62322499337699;-0.399810791015625;-0.00935974121093749;1.93999999510197;195;1 A
2.63322499335175;-0.39971923828125;-0.0093414306640625;1.94999999507672;196;1 A
2.6432249933265;-0.399749755859375;-0.00939025878906249;1.95999999505148;197;1 A
2.65322499330125;-0.39971923828125;-0.00939331054687501;1.96999999502623;198;1 A
2.663224993276;-0.39971923828125;-0.00938720703125;1.97999999500098;199;1 A
2.67322499325076;-0.399749755859375;-0.00936279296875001;1.98999999497573;200;1 A
2.68322499322551;-0.39984130859375;-0.0093353271484375;1.99999999495049;201;1 A
2.69322499320026;-0.399749755859375;-0.009307861328125;2.00999999492524;202;1 A
2.70322499317501;-0.399627685546875;-0.00928344726562499;2.01999999489999;203;1 A
2.71322499314977;-0.399749755859375;-0.00926513671875;2.02999999487474;204;1 A
2.72322499312452;-0.399749755859375;-0.00927734375;2.0399999948495;205;1 A
2.73322499309927;-0.39971923828125;-0.009259033203125;2.04999999482425;206;1 A
2.74322499307402;-0.399749755859375;-0.00922241210937499;2.059999994799;207;1 A
2.75322499304878;-0.399749755859375;-0.00916748046875;2.06999999477375;208;1 A
2.76322499302353;-0.399749755859375;-0.0091400146484375;2.0799999947485;209;1 A
2.77322499299828;-0.3997802734375;-0.0091064453125;2.08999999472326;210;1 A
2.78322499297303;-0.399810791015625;-0.00907287597656251;2.09999999469801;211;1 A
2.79322499294778;-0.3997802734375;-0.0090484619140625;2.10999999467276;212;1 A
2.80322499292254;-0.3997802734375;-0.009063720703125;2.11999999464751;213;1 A
2.81322499289729;-0.39971923828125;-0.00907287597656251;2.12999999462227;214;1 A
2.82322499287204;-0.399810791015625;-0.00910034179687499;2.13999999459702;215;1 A
2.83322499284679;-0.399749755859375;-0.0091094970703125;2.14999999457177;216;1 A
2.84322499282155;-0.399810791015625;-0.0091583251953125;2.15999999454652;217;1 A
2.8532249927963;-0.39971923828125;-0.0091522216796875;2.16999999452128;218;1 A
2.86322499277105;-0.3997802734375;-0.0091278076171875;2.17999999449603;219;1 A
2.8732249927458;-0.399749755859375;-0.00910034179687499;2.18999999447078;220;1 A
2.88322499272056;-0.399749755859375;-0.00908813476562501;2.19999999444553;221;1 A
2.89322499269531;-0.399688720703125;-0.00910034179687499;2.20999999442029;222;1 A
2.90322499267006;-0.399749755859375;-0.00909423828125;2.21999999439504;223;1 A
2.91322499264481;-0.3997802734375;-0.0090789794921875;2.22999999436979;224;1 A
2.92322499261957;-0.39971923828125;-0.0090911865234375;2.23999999434454;225;1 A
2.93322499259432;-0.39971923828125;-0.00906982421874999;2.2499999943193;226;1 A
2.94322499256907;-0.39971923828125;-0.0090606689453125;2.25999999429405;227;1 A
2.95322499254382;-0.399810791015625;-0.0090484619140625;2.2699999942688;228;1 A
2.96322499251858;-0.399688720703125;-0.00911560058593749;2.27999999424355;229;1 A
2.97322499249333;-0.3997802734375;-0.009173583984375;2.28999999421831;230;1 A
2.98322499246808;-0.39971923828125;-0.009197998046875;2.29999999419306;231;1 A
2.99322499244283;-0.3997802734375;-0.00920715332031249;2.30999999416781;232;1 A
3.00322499241759;-0.3997802734375;-0.009234619140625;2.31999999414256;233;1 A
3.01322499239234;-0.3997802734375;-0.00925292968749999;2.32999999411732;234;1 A
3.02322499236709;-0.399749755859375;-0.00927734375;2.33999999409207;235;1 A
3.03322499234184;-0.399749755859375;-0.00926818847656249;2.34999999406682;236;1 A
3.0432249923166;-0.39984130859375;-0.0093109130859375;2.35999999404157;237;1 A
3.05322499229135;-0.399749755859375;-0.0093353271484375;2.36999999401633;238;1 A
3.0632249922661;-0.399749755859375;-0.009368896484375;2.37999999399108;239;1 A
3.07322499224085;-0.39971923828125;-0.00939331054687501;2.38999999396583;240;1 A
3.08322499221561;-0.399749755859375;-0.0094482421875;2.39999999394058;241;1 A
3.09322499219036;-0.3997802734375;-0.00948486328125001;2.40999999391533;242;1 A
3.10322499216511;-0.3997802734375;-0.0094879150390625;2.41999999389009;243;1 A
3.11322499213986;-0.3997802734375;-0.00946655273437499;2.42999999386484;244;1 A
3.12322499211461;-0.39971923828125;-0.00946044921875;2.43999999383959;245;1 A
3.13322499208937;-0.399810791015625;-0.0094329833984375;2.44999999381434;246;1 A
3.14322499206412;-0.39971923828125;-0.009429931640625;2.4599999937891;247;1 A
3.15322499203887;-0.3997802734375;-0.00940856933593751;2.46999999376385;248;1 A
3.16322499201362;-0.39971923828125;-0.0094482421875;2.4799999937386;249;1 A
3.17322499198838;-0.399749755859375;-0.0094757080078125;2.48999999371335;250;1 A
3.18322499196313;-0.399749755859375;-0.00948181152343749;2.49999999368811;251;1 A
3.19322499193788;-0.39971923828125;-0.0094940185546875;2.50999999366286;252;1 A
3.20322499191263;-0.399688720703125;-0.009521484375;2.51999999363761;253;1 A
3.21322499188739;-0.399749755859375;-0.00954589843750001;2.52999999361236;254;1 A
3.22322499186214;-0.399749755859375;-0.00954589843750001;2.53999999358712;255;1 A
3.23322499183689;-0.399749755859375;-0.0094879150390625;2.54999999356187;256;1 A
3.24322499181164;-0.39984130859375;-0.00946960449218751;2.55999999353662;257;1 A
3.2532249917864;-0.39971923828125;-0.0094329833984375;2.56999999351137;258;1 A
3.26322499176115;-0.399810791015625;-0.00941162109375;2.57999999348613;259;1 A
3.2732249917359;-0.399810791015625;-0.0093841552734375;2.58999999346088;260;1 A
3.28322499171065;-0.3997802734375;-0.00937499999999999;2.59999999343563;261;1 A
3.29322499168541;-0.399688720703125;-0.0093505859375;2.60999999341038;262;1 A
3.30322499166016;-0.399749755859375;-0.009307861328125;2.61999999338514;263;1 A
3.31322499163491;-0.399749755859375;-0.00927734375;2.62999999335989;264;1 A
3.32322499160966;-0.39971923828125;-0.00928649902343751;2.63999999333464;265;1 A
3.33322499158442;-0.3997802734375;-0.0092926025390625;2.64999999330939;266;1 A
3.34322499155917;-0.39971923828125;-0.009326171875;2.65999999328415;267;1 A
3.35322499153392;-0.399688720703125;-0.009326171875;2.6699999932589;268;1 A
3.36322499150867;-0.39971923828125;-0.00936279296875001;2.67999999323365;269;1 A
3.37322499148343;-0.3997802734375;-0.009368896484375;2.6899999932084;270;1 A
3.38322499145818;-0.39971923828125;-0.00935974121093749;2.69999999318316;271;1 A
3.39322499143293;-0.399749755859375;-0.00934448242187499;2.70999999315791;272;1 A
3.40322499140768;-0.399658203125;-0.0093505859375;2.71999999313266;273;1 A
3.41322499138244;-0.399749755859375;-0.00932922363281249;2.72999999310741;274;1 A
3.42322499135719;-0.39971923828125;-0.00930175781250001;2.73999999308217;275;1 A
3.43322499133194;-0.39971923828125;-0.00926513671875;2.74999999305692;276;1 A
3.44322499130669;-0.3997802734375;-0.0092742919921875;2.75999999303167;277;1 A
3.45322499128144;-0.39971923828125;-0.0092742919921875;2.76999999300642;278;1 A
3.4632249912562;-0.3997802734375;-0.0093048095703125;2.77999999298117;279;1 A
3.47322499123095;-0.3997802734375;-0.009326171875;2.78999999295593;280;1 A
3.4832249912057;-0.3997802734375;-0.00936279296875001;2.79999999293068;281;1 A
3.49322499118045;-0.3997802734375;-0.00939025878906249;2.80999999290543;282;1 A
3.50322499115521;-0.39971923828125;-0.00935974121093749;2.81999999288018;283;1 A
3.51322499112996;-0.39971923828125;-0.00937499999999999;2.82999999285494;284;1 A
3.52322499110471;-0.3997802734375;-0.0093505859375;2.83999999282969;285;1 A
3.53322499107946;-0.39971923828125;-0.00937499999999999;2.84999999280444;286;1 A
3.54322499105422;-0.39971923828125;-0.0093963623046875;2.85999999277919;287;1 A
3.55322499102897;-0.399688720703125;-0.0094024658203125;2.86999999275395;288;1 A
3.56322499100372;-0.399749755859375;-0.0094451904296875;2.8799999927287;289;1 A
3.57322499097847;-0.39971923828125;-0.00948181152343749;2.88999999270345;290;1 A
3.58322499095323;-0.399749755859375;-0.009521484375;2.8999999926782;291;1 A
3.59322499092798;-0.399749755859375;-0.00956115722656251;2.90999999265296;292;1 A
3.60322499090273;-0.399658203125;-0.00961914062499999;2.91999999262771;293;1 A
3.61322499087748;-0.399749755859375;-0.0096466064453125;2.92999999260246;294;1 A
3.62322499085224;-0.39971923828125;-0.00965270996093751;2.93999999257721;295;1 A
3.63322499082699;-0.3997802734375;-0.0096282958984375;2.94999999255197;296;1 A
3.64322499080174;-0.399749755859375;-0.0096435546875;2.95999999252672;297;1 A
3.65322499077649;-0.39971923828125;-0.00962219238281251;2.96999999250147;298;1 A
3.66322499075125;-0.399749755859375;-0.00960388183593749;2.97999999247622;299;1 A
3.673224990726;-0.399810791015625;-0.00956115722656251;2.98999999245098;300;1 A
3.68322499070075;-0.3997802734375;-0.0095703125;2.99999999242573;301;1 A
3.6932249906755;-0.399688720703125;-0.0095794677734375;3.00999999240048;302;1 A
3.70322499065026;-0.399810791015625;-0.00956115722656251;3.01999999237523;303;1 A
3.71322499062501;-0.399749755859375;-0.0095550537109375;3.02999999234999;304;1 A
3.72322499059976;-0.39971923828125;-0.00960693359375001;3.03999999232474;305;1 A
3.73322499057451;-0.39971923828125;-0.00963134765625;3.04999999229949;306;1 A
3.74322499054927;-0.39971923828125;-0.0096588134765625;3.05999999227424;307;1 A
3.75322499052402;-0.3997802734375;-0.0096588134765625;3.069999992249;308;1 A
3.76322499049877;-0.3997802734375;-0.00970458984375;3.07999999222375;309;1 A
3.77322499047352;-0.3997802734375;-0.009735107421875;3.0899999921985;310;1 A
3.78322499044828;-0.399658203125;-0.0097686767578125;3.09999999217325;311;1 A
3.79322499042303;-0.3997802734375;-0.009783935546875;3.109999992148;312;1 A
3.80322499039778;-0.399688720703125;-0.00980224609374999;3.11999999212276;313;1 A
3.81322499037253;-0.3997802734375;-0.009796142578125;3.12999999209751;314;1 A
3.82322499034728;-0.399688720703125;-0.00977478027343751;3.13999999207226;315;1 A
3.83322499032204;-0.399749755859375;-0.009722900390625;3.14999999204701;316;1 A
3.84322499029679;-0.399688720703125;-0.009747314453125;3.15999999202177;317;1 A
3.85322499027154;-0.3997802734375;-0.00975341796875;3.16999999199652;318;1 A
3.86322499024629;-0.399749755859375;-0.009765625;3.17999999197127;319;1 A
3.87322499022105;-0.399749755859375;-0.0097686767578125;3.18999999194602;320;1 A
3.8832249901958;-0.3997802734375;-0.009796142578125;3.19999999192078;321;1 A
3.89322499017055;-0.39971923828125;-0.00980529785156251;3.20999999189553;322;1 A
3.9032249901453;-0.399810791015625;-0.00978698730468749;3.21999999187028;323;1 A
3.91322499012006;-0.399749755859375;-0.00975646972656249;3.22999999184503;324;1 A
3.92322499009481;-0.39984130859375;-0.009765625;3.23999999181979;325;1 A
3.93322499006956;-0.399749755859375;-0.0097503662109375;3.24999999179454;326;1 A
3.94322499004431;-0.399749755859375;-0.009722900390625;3.25999999176929;327;1 A
3.95322499001907;-0.3997802734375;-0.00968322753906251;3.26999999174404;328;1 A
3.96322498999382;-0.39971923828125;-0.00968017578124999;3.2799999917188;329;1 A
3.97322498996857;-0.399688720703125;-0.0096588134765625;3.28999999169355;330;1 A
3.98322498994332;-0.399749755859375;-0.00962219238281251;3.2999999916683;331;1 A
3.99322498991808;-0.39971923828125;-0.00958251953125;3.30999999164305;332;1 A
4.00322498989283;-0.399749755859375;-0.00957641601562501;3.31999999161781;333;1 A
4.01322498986758;-0.39971923828125;-0.00957641601562501;3.32999999159256;334;1 A
4.02322498984233;-0.399688720703125;-0.00959167480468751;3.33999999156731;335;1 A
4.03322498981709;-0.399749755859375;-0.0096099853515625;3.34999999154206;336;1 A
4.04322498979184;-0.399688720703125;-0.00966796875000001;3.35999999151682;337;1 A
4.05322498976659;-0.399749755859375;-0.00968017578124999;3.36999999149157;338;1 A
4.06322498974134;-0.399749755859375;-0.0096923828125;3.37999999146632;339;1 A
4.0732249897161;-0.399749755859375;-0.0096923828125;3.38999999144107;340;1 A
4.08322498969085;-0.399688720703125;-0.00975341796875;3.39999999141583;341;1 A
4.0932249896656;-0.399749755859375;-0.0097991943359375;3.40999999139058;342;1 A
4.10322498964035;-0.39971923828125;-0.00983581542968751;3.41999999136533;343;1 A
4.11322498961511;-0.399688720703125;-0.00986633300781251;3.42999999134008;344;1 A
4.12322498958986;-0.399688720703125;-0.009906005859375;3.43999999131483;345;1 A
4.13322498956461;-0.399749755859375;-0.0099029541015625;3.44999999128959;346;1 A
4.14322498953936;-0.3997802734375;-0.00988159179687501;3.45999999126434;347;1 A
4.15322498951411;-0.3997802734375;-0.00984802246093749;3.46999999123909;348;1 A
4.16322498948887;-0.399749755859375;-0.00984802246093749;3.47999999121384;349;1 A
4.17322498946362;-0.3997802734375;-0.00982666015625;3.4899999911886;350;1 A
4.18322498943837;-0.3997802734375;-0.009796142578125;3.49999999116335;351;1 A
4.19322498941312;-0.3997802734375;-0.00974121093749999;3.5099999911381;352;1 A
4.20322498938788;-0.399749755859375;-0.0097015380859375;3.51999999111285;353;1 A
4.21322498936263;-0.3997802734375;-0.00963745117187501;3.52999999108761;354;1 A
4.22322498933738;-0.399810791015625;-0.0095855712890625;3.53999999106236;355;1 A
4.23322498931213;-0.399749755859375;-0.00954589843750001;3.54999999103711;356;1 A
4.24322498928689;-0.3997802734375;-0.009552001953125;3.55999999101186;357;1 A
4.25322498926164;-0.399688720703125;-0.0095550537109375;3.56999999098662;358;1 A
4.26322498923639;-0.399810791015625;-0.0095489501953125;3.57999999096137;359;1 A
4.27322498921114;-0.39971923828125;-0.00953063964843751;3.58999999093612;360;1 A
4.2832249891859;-0.39984130859375;-0.00954284667968749;3.59999999091087;361;1 A
4.29322498916065;-0.3997802734375;-0.009552001953125;3.60999999088563;362;1 A
4.3032249891354;-0.3997802734375;-0.0095489501953125;3.61999999086038;363;1 A
4.31322498911015;-0.399749755859375;-0.00954284667968749;3.62999999083513;364;1 A
4.32322498908491;-0.39971923828125;-0.0095794677734375;3.63999999080988;365;1 A
4.33322498905966;-0.39971923828125;-0.00959167480468751;3.64999999078464;366;1 A
4.34322498903441;-0.39971923828125;-0.0095855712890625;3.65999999075939;367;1 A
4.35322498900916;-0.39971923828125;-0.0095550537109375;3.66999999073414;368;1 A
4.36322498898392;-0.3997802734375;-0.0095489501953125;3.67999999070889;369;1 A
4.37322498895867;-0.399749755859375;-0.009539794921875;3.68999999068365;370;1 A
4.38322498893342;-0.3997802734375;-0.009539794921875;3.6999999906584;371;1 A
4.39322498890817;-0.39971923828125;-0.00954589843750001;3.70999999063315;372;1 A
4.40322498888293;-0.39971923828125;-0.00959167480468751;3.7199999906079;373;1 A
4.41322498885768;-0.39984130859375;-0.00961914062499999;3.72999999058266;374;1 A
4.42322498883243;-0.399658203125;-0.00965576171875;3.73999999055741;375;1 A
4.43322498880718;-0.39971923828125;-0.0096710205078125;3.74999999053216;376;1 A
4.44322498878194;-0.399688720703125;-0.00970458984375;3.75999999050691;377;1 A
4.45322498875669;-0.39971923828125;-0.0096923828125;3.76999999048167;378;1 A
4.46322498873144;-0.399749755859375;-0.009674072265625;3.77999999045642;379;1 A
4.47322498870619;-0.399749755859375;-0.0096466064453125;3.78999999043117;380;1 A
4.48322498868094;-0.399688720703125;-0.00963439941406249;3.79999999040592;381;1 A
4.4932249886557;-0.39971923828125;-0.009600830078125;3.80999999038067;382;1 A
4.50322498863045;-0.399749755859375;-0.0095672607421875;3.81999999035543;383;1 A
4.5132249886052;-0.399749755859375;-0.009564208984375;3.82999999033018;384;1 A
4.52322498857995;-0.3997802734375;-0.009600830078125;3.83999999030493;385;1 A
4.53322498855471;-0.399749755859375;-0.009600830078125;3.84999999027968;386;1 A
4.54322498852946;-0.399810791015625;-0.00961914062499999;3.85999999025444;387;1 A
4.55322498850421;-0.39971923828125;-0.0096282958984375;3.86999999022919;388;1 A
4.56322498847896;-0.39971923828125;-0.00964965820312499;3.87999999020394;389;1 A
4.57322498845372;-0.399810791015625;-0.00963745117187501;3.88999999017869;390;1 A
4.58322498842847;-0.399810791015625;-0.00960693359375001;3.89999999015345;391;1 A
4.59322498840322;-0.3997802734375;-0.0095550537109375;3.9099999901282;392;1 A
4.60322498837797;-0.3997802734375;-0.009552001953125;3.91999999010295;393;1 A
4.61322498835273;-0.399749755859375;-0.00953063964843751;3.9299999900777;394;1 A
4.62322498832748;-0.399688720703125;-0.0095184326171875;3.93999999005246;395;1 A
4.63322498830223;-0.3997802734375;-0.00948181152343749;3.94999999002721;396;1 A
4.64322498827698;-0.39971923828125;-0.0094757080078125;3.95999999000196;397;1 A
4.65322498825174;-0.39971923828125;-0.009552001953125;3.96999998997671;398;1 A
4.66322498822649;-0.39971923828125;-0.00943603515624999;3.97999998995147;399;1 A
4.67322498820124;-0.3997802734375;-0.00954589843750001;3.98999998992622;400;1 A
4.68322498817599;-0.3997802734375;-0.0096099853515625;3.99999998990097;401;1 A
4.69322498815075;-0.399383544921875;-0.0101165771484375;4.00999998987572;402;1 A
4.7032249881255;-0.3994140625;-0.00905456542968749;4.01999998985048;403;1 A
4.71322498810025;-0.39971923828125;-0.00937805175781251;4.02999998982523;404;1 A
4.723224988075;-0.399688720703125;-0.00971374511718751;4.03999998979998;405;1 A
4.73322498804976;-0.3997802734375;-0.009661865234375;4.04999998977473;406;1 A
4.74322498802451;-0.39990234375;-0.009478759765625;4.05999998974949;407;1 A
4.75322498799926;-0.399810791015625;-0.0095367431640625;4.06999998972424;408;1 A
4.76322498797401;-0.39971923828125;-0.00955810546874999;4.07999998969899;409;1 A
4.77322498794877;-0.3997802734375;-0.00957641601562501;4.08999998967374;410;1 A
4.78322498792352;-0.39971923828125;-0.00957641601562501;4.0999999896485;411;1 A
4.79322498789827;-0.399749755859375;-0.0095794677734375;4.10999998962325;412;1 A
4.80322498787302;-0.399749755859375;-0.00960693359375001;4.119999989598;413;1 A
4.81322498784778;-0.3997802734375;-0.00961914062499999;4.12999998957275;414;1 A
4.82322498782253;-0.3997802734375;-0.00962219238281251;4.1399999895475;415;1 A
4.83322498779728;-0.399749755859375;-0.00960388183593749;4.14999998952226;416;1 A
4.84322498777203;-0.3997802734375;-0.00962219238281251;4.15999998949701;417;1 A
4.85322498774678;-0.3997802734375;-0.009625244140625;4.16999998947176;418;1 A
4.86322498772154;-0.3997802734375;-0.00963134765625;4.17999998944651;419;1 A
4.87322498769629;-0.399658203125;-0.00963439941406249;4.18999998942127;420;1 A
4.88322498767104;-0.3997802734375;-0.0096435546875;4.19999998939602;421;1 A
4.89322498764579;-0.39971923828125;-0.00963745117187501;4.20999998937077;422;1 A
4.90322498762055;-0.399749755859375;-0.00961914062499999;4.21999998934552;423;1 A
4.9132249875953;-0.3997802734375;-0.0095855712890625;4.22999998932028;424;1 A
4.92322498757005;-0.399749755859375;-0.009600830078125;4.23999998929503;425;1 A
4.9332249875448;-0.399749755859375;-0.0095794677734375;4.24999998926978;426;1 A
4.94322498751956;-0.399810791015625;-0.00956115722656251;4.25999998924453;427;1 A
4.95322498749431;-0.399749755859375;-0.0095367431640625;4.26999998921929;428;1 A
4.96322498746906;-0.3997802734375;-0.0095245361328125;4.27999998919404;429;1 A
4.97322498744381;-0.3997802734375;-0.00951538085937501;4.28999998916879;430;1 A
4.98322498741857;-0.399749755859375;-0.0094940185546875;4.29999998914354;431;1 A
4.99322498739332;-0.39971923828125;-0.0094757080078125;4.3099999891183;432;1 A
5.00322498736807;-0.39971923828125;-0.00946960449218751;4.31999998909305;433;1 A
5.01322498734282;-0.39971923828125;-0.0094573974609375;4.3299999890678;434;1 A
5.02322498731758;-0.399658203125;-0.00945434570312501;4.33999998904255;435;1 A
5.03322498729233;-0.399749755859375;-0.00942382812500001;4.34999998901731;436;1 A
5.04322498726708;-0.39971923828125;-0.00945434570312501;4.35999998899206;437;1 A
5.05322498724183;-0.399749755859375;-0.00946960449218751;4.36999998896681;438;1 A
5.06322498721659;-0.399749755859375;-0.00948181152343749;4.37999998894156;439;1 A
5.07322498719134;-0.399749755859375;-0.00951538085937501;4.38999998891632;440;1 A
5.08322498716609;-0.39971923828125;-0.009564208984375;4.39999998889107;441;1 A
5.09322498714084;-0.399749755859375;-0.00958251953125;4.40999998886582;442;1 A
5.1032249871156;-0.39971923828125;-0.0095855712890625;4.41999998884057;443;1 A
5.11322498709035;-0.39971923828125;-0.0095855712890625;4.42999998881533;444;1 A
5.1232249870651;-0.39971923828125;-0.0096099853515625;4.43999998879008;445;1 A
5.13322498703985;-0.399749755859375;-0.0095977783203125;4.44999998876483;446;1 A
5.14322498701461;-0.399810791015625;-0.00958862304687499;4.45999998873958;447;1 A
5.15322498698936;-0.399688720703125;-0.0095703125;4.46999998871433;448;1 A
5.16322498696411;-0.399810791015625;-0.0095855712890625;4.47999998868909;449;1 A
5.17322498693886;-0.399749755859375;-0.0095672607421875;4.48999998866384;450;1 A
5.18322498691361;-0.399749755859375;-0.009539794921875;4.49999998863859;451;1 A
5.19322498688837;-0.39971923828125;-0.009503173828125;4.50999998861334;452;1 A
5.20322498686312;-0.399749755859375;-0.009478759765625;4.5199999885881;453;1 A
5.21322498683787;-0.399749755859375;-0.0094451904296875;4.52999998856285;454;1 A
5.22322498681262;-0.39984130859375;-0.00943908691406251;4.5399999885376;455;1 A
5.23322498678738;-0.3997802734375;-0.00942077636718749;4.54999998851235;456;1 A
5.24322498676213;-0.399810791015625;-0.00946044921875;4.55999998848711;457;1 A
5.25322498673688;-0.39971923828125;-0.0094573974609375;4.56999998846186;458;1 A
5.26322498671163;-0.39984130859375;-0.00943908691406251;4.57999998843661;459;1 A
5.27322498668639;-0.399749755859375;-0.009417724609375;4.58999998841136;460;1 A
5.28322498666114;-0.3997802734375;-0.009417724609375;4.59999998838612;461;1 A
5.29322498663589;-0.39971923828125;-0.00940551757812499;4.60999998836087;462;1 A
5.30322498661064;-0.3997802734375;-0.00937499999999999;4.61999998833562;463;1 A
5.3132249865854;-0.39971923828125;-0.00934753417968751;4.62999998831037;464;1 A
5.32322498656015;-0.399688720703125;-0.00934448242187499;4.63999998828513;465;1 A
5.3332249865349;-0.399749755859375;-0.00929870605468749;4.64999998825988;466;1 A
5.34322498650965;-0.39971923828125;-0.00927124023437501;4.65999998823463;467;1 A
5.35322498648441;-0.399749755859375;-0.009234619140625;4.66999998820938;468;1 A
5.36322498645916;-0.399749755859375;-0.009228515625;4.67999998818414;469;1 A
5.37322498643391;-0.399810791015625;-0.00924072265625001;4.68999998815889;470;1 A
5.38322498640866;-0.399749755859375;-0.00923767089843749;4.69999998813364;471;1 A
5.39322498638342;-0.399688720703125;-0.0092193603515625;4.70999998810839;472;1 A
5.40322498635817;-0.399658203125;-0.00921020507812501;4.71999998808315;473;1 A
5.41322498633292;-0.399810791015625;-0.00917968750000001;4.7299999880579;474;1 A
5.42322498630767;-0.399749755859375;-0.00917968750000001;4.73999998803265;475;1 A
5.43322498628243;-0.399810791015625;-0.0091583251953125;4.7499999880074;476;1 A
5.44322498625718;-0.39971923828125;-0.009185791015625;4.75999998798216;477;1 A
5.45322498623193;-0.399810791015625;-0.009185791015625;4.76999998795691;478;1 A
5.46322498620668;-0.39971923828125;-0.0092010498046875;4.77999998793166;479;1 A
5.47322498618144;-0.399749755859375;-0.00920715332031249;4.78999998790641;480;1 A
5.48322498615619;-0.3997802734375;-0.00922546386718751;4.79999998788116;481;1 A
5.49322498613094;-0.399749755859375;-0.0092315673828125;4.80999998785592;482;1 A
5.50322498610569;-0.399749755859375;-0.00920715332031249;4.81999998783067;483;1 A
5.51322498608044;-0.39971923828125;-0.009173583984375;4.82999998780542;484;1 A
5.5232249860552;-0.3997802734375;-0.00917663574218749;4.83999998778017;485;1 A
5.53322498602995;-0.399810791015625;-0.009136962890625;4.84999998775493;486;1 A
5.5432249860047;-0.3997802734375;-0.0091064453125;4.85999998772968;487;1 A
5.55322498597945;-0.39971923828125;-0.00907287597656251;4.86999998770443;488;1 A
5.56322498595421;-0.3997802734375;-0.00908813476562501;4.87999998767918;489;1 A
5.57322498592896;-0.399749755859375;-0.00909423828125;4.88999998765394;490;1 A
5.58322498590371;-0.399810791015625;-0.00909423828125;4.89999998762869;491;1 A
5.59322498587846;-0.3997802734375;-0.0091217041015625;4.90999998760344;492;1 A
5.60322498585322;-0.399688720703125;-0.00916748046875;4.91999998757819;493;1 A
5.61322498582797;-0.399749755859375;-0.0091827392578125;4.92999998755295;494;1 A
5.62322498580272;-0.39971923828125;-0.009185791015625;4.9399999875277;495;1 A
5.63322498577747;-0.399658203125;-0.0091583251953125;4.94999998750245;496;1 A
5.64322498575223;-0.39971923828125;-0.00917663574218749;4.9599999874772;497;1 A
5.65322498572698;-0.399810791015625;-0.00914611816406249;4.96999998745196;498;1 A
5.66322498570173;-0.3997802734375;-0.00917968750000001;4.97999998742671;499;1 A
5.67322498567648;-0.399688720703125;-0.009197998046875;4.98999998740146;500;1 A
5.68322498565124;-0.39971923828125;-0.0092437744140625;4.99999998737621;501;1 A
5.69322498562599;-0.39971923828125;-0.0092742919921875;5.00999998735097;502;1 A
5.70322498560074;-0.399658203125;-0.0092620849609375;5.01999998732572;503;1 A
5.71322498557549;-0.399749755859375;-0.00924072265625001;5.02999998730047;504;1 A
5.72322498555025;-0.399688720703125;-0.00924072265625001;5.03999998727522;505;1 A
5.733224985525;-0.3997802734375;-0.0092193603515625;5.04999998724998;506;1 A
5.74322498549975;-0.399688720703125;-0.00922241210937499;5.05999998722473;507;1 A
5.7532249854745;-0.399688720703125;-0.00920715332031249;5.06999998719948;508;1 A
5.76322498544926;-0.399749755859375;-0.00926513671875;5.07999998717423;509;1 A
5.77322498542401;-0.3997802734375;-0.0093414306640625;5.08999998714899;510;1 A
5.78322498539876;-0.39971923828125;-0.00941162109375;5.09999998712374;511;1 A
5.79322498537351;-0.399810791015625;-0.00946655273437499;5.10999998709849;512;1 A
5.80322498534827;-0.39971923828125;-0.009539794921875;5.11999998707324;513;1 A
5.81322498532302;-0.39984130859375;-0.0095794677734375;5.129999987048;514;1 A
5.82322498529777;-0.3997802734375;-0.00960388183593749;5.13999998702275;515;1 A
5.83322498527252;-0.3997802734375;-0.00960693359375001;5.1499999869975;516;1 A
5.84322498524728;-0.399810791015625;-0.00963439941406249;5.15999998697225;517;1 A
5.85322498522203;-0.3997802734375;-0.0096160888671875;5.169999986947;518;1 A
5.86322498519678;-0.39984130859375;-0.00960388183593749;5.17999998692176;519;1 A
5.87322498517153;-0.3997802734375;-0.0095794677734375;5.18999998689651;520;1 A
5.88322498514628;-0.399749755859375;-0.00955810546874999;5.19999998687126;521;1 A
5.89322498512104;-0.39971923828125;-0.00951538085937501;5.20999998684601;522;1 A
5.90322498509579;-0.3997802734375;-0.00943908691406251;5.21999998682077;523;1 A
5.91322498507054;-0.39971923828125;-0.00937499999999999;5.22999998679552;524;1 A
5.92322498504529;-0.39971923828125;-0.00935974121093749;5.23999998677027;525;1 A
5.93322498502005;-0.3997802734375;-0.009326171875;5.24999998674502;526;1 A
5.9432249849948;-0.399749755859375;-0.00931396484374999;5.25999998671978;527;1 A
5.95322498496955;-0.399749755859375;-0.00929870605468749;5.26999998669453;528;1 A
5.9632249849443;-0.39971923828125;-0.00934448242187499;5.27999998666928;529;1 A
5.97322498491906;-0.399749755859375;-0.009368896484375;5.28999998664403;530;1 A
5.98322498489381;-0.399658203125;-0.009381103515625;5.29999998661879;531;1 A
5.99322498486856;-0.399688720703125;-0.0093963623046875;5.30999998659354;532;1 A
6.00322498484331;-0.39971923828125;-0.0094146728515625;5.31999998656829;533;1 A
6.01322498481807;-0.39971923828125;-0.00942077636718749;5.32999998654304;534;1 A
6.02322498479282;-0.399749755859375;-0.00940856933593751;5.3399999865178;535;1 A
6.03322498476757;-0.3997802734375;-0.00937499999999999;5.34999998649255;536;1 A
6.04322498474232;-0.399627685546875;-0.009381103515625;5.3599999864673;537;1 A
6.05322498471708;-0.399749755859375;-0.00937805175781251;5.36999998644205;538;1 A
6.06322498469183;-0.39971923828125;-0.0093963623046875;5.37999998641681;539;1 A
6.07322498466658;-0.3997802734375;-0.00940551757812499;5.38999998639156;540;1 A
6.08322498464133;-0.399749755859375;-0.0094635009765625;5.39999998636631;541;1 A
6.09322498461609;-0.3997802734375;-0.00951232910156249;5.40999998634106;542;1 A
6.10322498459084;-0.39971923828125;-0.00954284667968749;5.41999998631582;543;1 A
6.11322498456559;-0.399749755859375;-0.009539794921875;5.42999998629057;544;1 A
6.12322498454034;-0.399810791015625;-0.00954284667968749;5.43999998626532;545;1 A
6.1332249845151;-0.39984130859375;-0.009521484375;5.44999998624007;546;1 A
6.14322498448985;-0.39984130859375;-0.00951538085937501;5.45999998621483;547;1 A
6.1532249844646;-0.399749755859375;-0.009478759765625;5.46999998618958;548;1 A
6.16322498443935;-0.399810791015625;-0.0094879150390625;5.47999998616433;549;1 A
6.17322498441411;-0.399749755859375;-0.009478759765625;5.48999998613908;550;1 A
6.18322498438886;-0.39984130859375;-0.009478759765625;5.49999998611383;551;1 A
6.19322498436361;-0.399749755859375;-0.0094573974609375;5.50999998608859;552;1 A
6.20322498433836;-0.3997802734375;-0.00946960449218751;5.51999998606334;553;1 A
6.21322498431311;-0.399749755859375;-0.0094940185546875;5.52999998603809;554;1 A
6.22322498428787;-0.399688720703125;-0.00951232910156249;5.53999998601284;555;1 A
6.23322498426262;-0.3997802734375;-0.009521484375;5.5499999859876;556;1 A
6.24322498423737;-0.399749755859375;-0.00954589843750001;5.55999998596235;557;1 A
6.25322498421212;-0.399749755859375;-0.00952758789062499;5.5699999859371;558;1 A
6.26322498418688;-0.399749755859375;-0.0095184326171875;5.57999998591185;559;1 A
6.27322498416163;-0.39971923828125;-0.0094940185546875;5.58999998588661;560;1 A
6.28322498413638;-0.399688720703125;-0.00949707031249999;5.59999998586136;561;1 A
6.29322498411113;-0.39971923828125;-0.00951232910156249;5.60999998583611;562;1 A
6.30322498408589;-0.39971923828125;-0.00949707031249999;5.61999998581086;563;1 A
6.31322498406064;-0.39971923828125;-0.0094757080078125;5.62999998578562;564;1 A
6.32322498403539;-0.39971923828125;-0.00948181152343749;5.63999998576037;565;1 A
6.33322498401014;-0.39971923828125;-0.0094757080078125;5.64999998573512;566;1 A
6.3432249839849;-0.399658203125;-0.00946960449218751;5.65999998570987;567;1 A
6.35322498395965;-0.399749755859375;-0.009429931640625;5.66999998568463;568;1 A
6.3632249839344;-0.399688720703125;-0.009429931640625;5.67999998565938;569;1 A
6.37322498390915;-0.399749755859375;-0.00941162109375;5.68999998563413;570;1 A
6.38322498388391;-0.399749755859375;-0.0094024658203125;5.69999998560888;571;1 A
6.39322498385866;-0.3997802734375;-0.0093994140625;5.70999998558364;572;1 A
6.40322498383341;-0.39971923828125;-0.00942382812500001;5.71999998555839;573;1 A
6.41322498380816;-0.39971923828125;-0.009442138671875;5.72999998553314;574;1 A
6.42322498378292;-0.3997802734375;-0.00946044921875;5.73999998550789;575;1 A
6.43322498375767;-0.3997802734375;-0.0094635009765625;5.74999998548265;576;1 A
6.44322498373242;-0.3997802734375;-0.0094940185546875;5.7599999854574;577;1 A
6.45322498370717;-0.399749755859375;-0.009503173828125;5.76999998543215;578;1 A
6.46322498368193;-0.3997802734375;-0.00953063964843751;5.7799999854069;579;1 A
6.47322498365668;-0.3997802734375;-0.0095367431640625;5.78999998538166;580;1 A
6.48322498363143;-0.399810791015625;-0.009552001953125;5.79999998535641;581;1 A
6.49322498360618;-0.3997802734375;-0.00953369140625;5.80999998533116;582;1 A
6.50322498358094;-0.3997802734375;-0.0095062255859375;5.81999998530591;583;1 A
6.51322498355569;-0.3997802734375;-0.009478759765625;5.82999998528066;584;1 A
6.52322498353044;-0.399749755859375;-0.0094940185546875;5.83999998525542;585;1 A
6.53322498350519;-0.399749755859375;-0.0094940185546875;5.84999998523017;586;1 A
6.54322498347994;-0.3997802734375;-0.009490966796875;5.85999998520492;587;1 A
6.5532249834547;-0.39971923828125;-0.0094879150390625;5.86999998517967;588;1 A
6.56322498342945;-0.399749755859375;-0.00950927734375;5.87999998515443;589;1 A
6.5732249834042;-0.399688720703125;-0.009503173828125;5.88999998512918;590;1 A
6.58322498337895;-0.39971923828125;-0.0095062255859375;5.89999998510393;591;1 A
6.59322498335371;-0.399749755859375;-0.00949707031249999;5.90999998507868;592;1 A
6.60322498332846;-0.399749755859375;-0.00952758789062499;5.91999998505344;593;1 A
6.61322498330321;-0.399749755859375;-0.009552001953125;5.92999998502819;594;1 A
6.62322498327796;-0.399688720703125;-0.0095672607421875;5.93999998500294;595;1 A
6.63322498325272;-0.399749755859375;-0.00955810546874999;5.94999998497769;596;1 A
6.64322498322747;-0.39971923828125;-0.009564208984375;5.95999998495245;597;1 A
6.65322498320222;-0.399749755859375;-0.00953369140625;5.9699999849272;598;1 A
6.66322498317697;-0.399688720703125;-0.0095245361328125;5.97999998490195;599;1 A
6.67322498315173;-0.39971923828125;-0.00952758789062499;5.9899999848767;600;1 A
6.68322498312648;-0.399688720703125;-0.00957641601562501;5.99999998485146;601;1 A
6.69322498310123;-0.399749755859375;-0.0095794677734375;6.00999998482621;602;1 A
6.70322498307598;-0.399749755859375;-0.0095703125;6.01999998480096;603;1 A
6.71322498305074;-0.399749755859375;-0.00955810546874999;6.02999998477571;604;1 A
6.72322498302549;-0.399749755859375;-0.009564208984375;6.03999998475047;605;1 A
6.73322498300024;-0.399749755859375;-0.009552001953125;6.04999998472522;606;1 A
6.74322498297499;-0.39971923828125;-0.00954589843750001;6.05999998469997;607;1 A
6.75322498294975;-0.399749755859375;-0.0095367431640625;6.06999998467472;608;1 A
6.7632249829245;-0.399810791015625;-0.00956115722656251;6.07999998464948;609;1 A
6.77322498289925;-0.3997802734375;-0.0095672607421875;6.08999998462423;610;1 A
6.783224982874;-0.3997802734375;-0.00956115722656251;6.09999998459898;611;1 A
6.79322498284876;-0.39971923828125;-0.00954284667968749;6.10999998457373;612;1 A
6.80322498282351;-0.399688720703125;-0.00956115722656251;6.11999998454849;613;1 A
6.81322498279826;-0.399749755859375;-0.0095550537109375;6.12999998452324;614;1 A
6.82322498277301;-0.39984130859375;-0.00953369140625;6.13999998449799;615;1 A
6.83322498274777;-0.399810791015625;-0.0094879150390625;6.14999998447274;616;1 A
6.84322498272252;-0.399749755859375;-0.00945129394531249;6.1599999844475;617;1 A
6.85322498269727;-0.399688720703125;-0.00940551757812499;6.16999998442225;618;1 A
6.86322498267202;-0.399749755859375;-0.009368896484375;6.179999984397;619;1 A
6.87322498264678;-0.399749755859375;-0.00930175781250001;6.18999998437175;620;1 A
6.88322498262153;-0.399749755859375;-0.009259033203125;6.1999999843465;621;1 A
6.89322498259628;-0.399749755859375;-0.00921630859375;6.20999998432126;622;1 A
6.90322498257103;-0.399749755859375;-0.00919189453124999;6.21999998429601;623;1 A
6.91322498254578;-0.39971923828125;-0.00916137695312499;6.22999998427076;624;1 A
6.92322498252054;-0.39971923828125;-0.0091522216796875;6.23999998424551;625;1 A
6.93322498249529;-0.399749755859375;-0.00911865234375001;6.24999998422027;626;1 A
6.94322498247004;-0.399688720703125;-0.0090911865234375;6.25999998419502;627;1 A
6.95322498244479;-0.399749755859375;-0.0090789794921875;6.26999998416977;628;1 A
6.96322498241955;-0.39971923828125;-0.0091094970703125;6.27999998414452;629;1 A
6.9732249823943;-0.399688720703125;-0.0091278076171875;6.28999998411928;630;1 A
6.98322498236905;-0.39971923828125;-0.0091552734375;6.29999998409403;631;1 A
6.9932249823438;-0.399749755859375;-0.009173583984375;6.30999998406878;632;1 A
7.00322498231856;-0.39971923828125;-0.0092010498046875;6.31999998404353;633;1 A
7.01322498229331;-0.399749755859375;-0.00917968750000001;6.32999998401829;634;1 A
7.02322498226806;-0.399688720703125;-0.00916442871093751;6.33999998399304;635;1 A
7.03322498224281;-0.399749755859375;-0.00914611816406249;6.34999998396779;636;1 A
7.04322498221757;-0.399749755859375;-0.00916442871093751;6.35999998394254;637;1 A
7.05322498219232;-0.3997802734375;-0.0091583251953125;6.3699999839173;638;1 A
7.06322498216707;-0.399810791015625;-0.0091522216796875;6.37999998389205;639;1 A
7.07322498214182;-0.3997802734375;-0.00913391113281251;6.3899999838668;640;1 A
7.08322498211658;-0.3997802734375;-0.0091400146484375;6.39999998384155;641;1 A
7.09322498209133;-0.39971923828125;-0.00914306640625;6.40999998381631;642;1 A
7.10322498206608;-0.3997802734375;-0.00914916992187501;6.41999998379106;643;1 A
7.11322498204083;-0.399749755859375;-0.00916748046875;6.42999998376581;644;1 A
7.12322498201559;-0.39984130859375;-0.0092437744140625;6.43999998374056;645;1 A
7.13322498199034;-0.3997802734375;-0.00928955078125;6.44999998371532;646;1 A
7.14322498196509;-0.399749755859375;-0.00931701660156251;6.45999998369007;647;1 A
7.15322498193984;-0.399749755859375;-0.0093109130859375;6.46999998366482;648;1 A
7.1632249819146;-0.399749755859375;-0.0093414306640625;6.47999998363957;649;1 A
7.17322498188935;-0.399749755859375;-0.0093658447265625;6.48999998361433;650;1 A
7.1832249818641;-0.399749755859375;-0.009368896484375;6.49999998358908;651;1 A
7.19322498183885;-0.39971923828125;-0.009356689453125;6.50999998356383;652;1 A
7.20322498181361;-0.3997802734375;-0.009368896484375;6.51999998353858;653;1 A
7.21322498178836;-0.3997802734375;-0.00936279296875001;6.52999998351333;654;1 A
7.22322498176311;-0.39971923828125;-0.009356689453125;6.53999998348809;655;1 A
7.23322498173786;-0.399749755859375;-0.00933227539062501;6.54999998346284;656;1 A
7.24322498171261;-0.399749755859375;-0.00934448242187499;6.55999998343759;657;1 A
7.25322498168737;-0.399749755859375;-0.00934448242187499;6.56999998341234;658;1 A
7.26322498166212;-0.399749755859375;-0.00933837890625;6.5799999833871;659;1 A
7.27322498163687;-0.399688720703125;-0.00934753417968751;6.58999998336185;660;1 A
7.28322498161162;-0.39971923828125;-0.0093719482421875;6.5999999833366;661;1 A
7.29322498158638;-0.3997802734375;-0.0093963623046875;6.60999998331135;662;1 A
7.30322498156113;-0.399688720703125;-0.00942382812500001;6.61999998328611;663;1 A
7.31322498153588;-0.399749755859375;-0.009417724609375;6.62999998326086;664;1 A
7.32322498151063;-0.39971923828125;-0.00943603515624999;6.63999998323561;665;1 A
7.33322498148539;-0.399810791015625;-0.00942382812500001;6.64999998321036;666;1 A
7.34322498146014;-0.399688720703125;-0.0094146728515625;6.65999998318512;667;1 A
7.35322498143489;-0.3997802734375;-0.009381103515625;6.66999998315987;668;1 A
7.36322498140964;-0.3997802734375;-0.00939025878906249;6.67999998313462;669;1 A
7.3732249813844;-0.39971923828125;-0.009368896484375;6.68999998310937;670;1 A
7.38322498135915;-0.399749755859375;-0.00932922363281249;6.69999998308413;671;1 A
7.3932249813339;-0.399749755859375;-0.00933837890625;6.70999998305888;672;1 A
7.40322498130865;-0.39984130859375;-0.0093505859375;6.71999998303363;673;1 A
7.41322498128341;-0.399749755859375;-0.009356689453125;6.72999998300838;674;1 A
7.42322498125816;-0.3997802734375;-0.00936279296875001;6.73999998298314;675;1 A
7.43322498123291;-0.3997802734375;-0.0093353271484375;6.74999998295789;676;1 A
7.44322498120766;-0.3997802734375;-0.00936279296875001;6.75999998293264;677;1 A
7.45322498118242;-0.3997802734375;-0.009356689453125;6.76999998290739;678;1 A
7.46322498115717;-0.3997802734375;-0.00936279296875001;6.77999998288215;679;1 A
7.47322498113192;-0.399688720703125;-0.0093841552734375;6.7899999828569;680;1 A
7.48322498110667;-0.399749755859375;-0.00943603515624999;6.79999998283165;681;1 A
7.49322498108143;-0.399749755859375;-0.00948486328125001;6.8099999828064;682;1 A
7.50322498105618;-0.399749755859375;-0.00951538085937501;6.81999998278116;683;1 A
7.51322498103093;-0.39971923828125;-0.00952758789062499;6.82999998275591;684;1 A
7.52322498100568;-0.39971923828125;-0.00957336425781249;6.83999998273066;685;1 A
7.53322498098044;-0.399688720703125;-0.00957336425781249;6.84999998270541;686;1 A
7.54322498095519;-0.399688720703125;-0.009564208984375;6.85999998268016;687;1 A
7.55322498092994;-0.399749755859375;-0.00951538085937501;6.86999998265492;688;1 A
7.56322498090469;-0.399688720703125;-0.0094879150390625;6.87999998262967;689;1 A
7.57322498087944;-0.3997802734375;-0.0094451904296875;6.88999998260442;690;1 A
7.5832249808542;-0.399688720703125;-0.0093994140625;6.89999998257917;691;1 A
7.59322498082895;-0.3997802734375;-0.0093658447265625;6.90999998255393;692;1 A
7.6032249808037;-0.399749755859375;-0.00934753417968751;6.91999998252868;693;1 A
7.61322498077845;-0.399749755859375;-0.00933837890625;6.92999998250343;694;1 A
7.62322498075321;-0.399658203125;-0.0093505859375;6.93999998247818;695;1 A
7.63322498072796;-0.399749755859375;-0.00934448242187499;6.94999998245294;696;1 A
7.64322498070271;-0.399749755859375;-0.00938720703125;6.95999998242769;697;1 A
7.65322498067746;-0.399749755859375;-0.0093841552734375;6.96999998240244;698;1 A
7.66322498065222;-0.399749755859375;-0.00937805175781251;6.97999998237719;699;1 A
7.67322498062697;-0.399688720703125;-0.0093536376953125;6.98999998235195;700;1 A
