Time (s);WE(1).Potential (V);WE(1).Current (A);Corrected time (s);Index;Current range
8.2913729790663;-0.49981689453125;-0.010772705078125;0;1;1 A
8.30137297904105;-0.50006103515625;-0.0104248046875;0.00999999997475243;2;1 A
8.3113729790158;-0.499786376953125;-0.0102630615234375;0.0199999999495049;3;1 A
8.32137297899055;-0.4998779296875;-0.0101531982421875;0.0299999999242573;4;1 A
8.33137297896531;-0.49981689453125;-0.0100738525390625;0.0399999998990097;5;1 A
8.34137297894006;-0.500091552734375;-0.0099639892578125;0.0499999998737621;6;1 A
8.35137297891481;-0.499725341796875;-0.00989990234375;0.0599999998485146;7;1 A
8.36137297888956;-0.499908447265625;-0.00983276367187499;0.069999999823267;8;1 A
8.37137297886431;-0.499786376953125;-0.0098114013671875;0.0799999997980194;9;1 A
8.38137297883907;-0.5;-0.00975646972656249;0.0899999997727718;10;1 A
8.39137297881382;-0.499786376953125;-0.0097198486328125;0.0999999997475243;11;1 A
8.40137297878857;-0.499969482421875;-0.00969848632812501;0.109999999722277;12;1 A
8.41137297876332;-0.49981689453125;-0.009674072265625;0.119999999697029;13;1 A
8.42137297873808;-0.499908447265625;-0.0096435546875;0.129999999671782;14;1 A
8.43137297871283;-0.499725341796875;-0.00961914062499999;0.139999999646534;15;1 A
8.44137297868758;-0.499969482421875;-0.0095794677734375;0.149999999621286;16;1 A
8.45137297866233;-0.499847412109375;-0.0095947265625;0.159999999596039;17;1 A
8.46137297863709;-0.499969482421875;-0.0095703125;0.169999999570791;18;1 A
8.47137297861184;-0.4998779296875;-0.0095794677734375;0.179999999545544;19;1 A
8.48137297858659;-0.499969482421875;-0.0095672607421875;0.189999999520296;20;1 A
8.49137297856134;-0.499847412109375;-0.0095489501953125;0.199999999495049;21;1 A
8.5013729785361;-0.500030517578125;-0.00951232910156249;0.209999999469801;22;1 A
8.51137297851085;-0.499847412109375;-0.0094757080078125;0.219999999444553;23;1 A
8.5213729784856;-0.49993896484375;-0.00943908691406251;0.229999999419306;24;1 A
8.53137297846035;-0.49981689453125;-0.00942077636718749;0.239999999394058;25;1 A
8.54137297843511;-0.5;-0.009381103515625;0.249999999368811;26;1 A
8.55137297840986;-0.499847412109375;-0.00938720703125;0.259999999343563;27;1 A
8.56137297838461;-0.499969482421875;-0.00939331054687501;0.269999999318316;28;1 A
8.57137297835936;-0.499847412109375;-0.00943603515624999;0.279999999293068;29;1 A
8.58137297833412;-0.5;-0.00943603515624999;0.28999999926782;30;1 A
8.59137297830887;-0.4998779296875;-0.0094329833984375;0.299999999242573;31;1 A
8.60137297828362;-0.499908447265625;-0.00942077636718749;0.309999999217325;32;1 A
8.61137297825837;-0.499725341796875;-0.00939331054687501;0.319999999192078;33;1 A
8.62137297823313;-0.50006103515625;-0.00937499999999999;0.32999999916683;34;1 A
8.63137297820788;-0.499847412109375;-0.009368896484375;0.339999999141583;35;1 A
8.64137297818263;-0.499908447265625;-0.009356689453125;0.349999999116335;36;1 A
8.65137297815738;-0.499786376953125;-0.009381103515625;0.359999999091087;37;1 A
8.66137297813214;-0.500091552734375;-0.009381103515625;0.36999999906584;38;1 A
8.67137297810689;-0.499755859375;-0.00942077636718749;0.379999999040592;39;1 A
8.68137297808164;-0.499847412109375;-0.009442138671875;0.389999999015345;40;1 A
8.69137297805639;-0.49969482421875;-0.0094573974609375;0.399999998990097;41;1 A
8.70137297803115;-0.499969482421875;-0.009478759765625;0.40999999896485;42;1 A
8.7113729780059;-0.499725341796875;-0.00951232910156249;0.419999998939602;43;1 A
8.72137297798065;-0.499969482421875;-0.0095489501953125;0.429999998914354;44;1 A
8.7313729779554;-0.499755859375;-0.00955810546874999;0.439999998889107;45;1 A
8.74137297793015;-0.5;-0.0095184326171875;0.449999998863859;46;1 A
8.75137297790491;-0.499786376953125;-0.00951538085937501;0.459999998838612;47;1 A
8.76137297787966;-0.49993896484375;-0.00950012207031251;0.469999998813364;48;1 A
8.77137297785441;-0.499786376953125;-0.0095367431640625;0.479999998788116;49;1 A
8.78137297782916;-0.499969482421875;-0.00953369140625;0.489999998762869;50;1 A
8.79137297780392;-0.49981689453125;-0.00953369140625;0.499999998737621;51;1 A
8.80137297777867;-0.49993896484375;-0.0095245361328125;0.509999998712374;52;1 A
8.81137297775342;-0.49981689453125;-0.0095062255859375;0.519999998687126;53;1 A
8.82137297772817;-0.499969482421875;-0.0094879150390625;0.529999998661879;54;1 A
8.83137297770293;-0.499847412109375;-0.009490966796875;0.539999998636631;55;1 A
8.84137297767768;-0.499908447265625;-0.0094635009765625;0.549999998611383;56;1 A
8.85137297765243;-0.49981689453125;-0.0094573974609375;0.559999998586136;57;1 A
8.86137297762718;-0.50006103515625;-0.00940856933593751;0.569999998560888;58;1 A
8.87137297760194;-0.499847412109375;-0.0094146728515625;0.579999998535641;59;1 A
8.88137297757669;-0.49993896484375;-0.00943908691406251;0.589999998510393;60;1 A
8.89137297755144;-0.49981689453125;-0.009478759765625;0.599999998485146;61;1 A
8.90137297752619;-0.50006103515625;-0.009490966796875;0.609999998459898;62;1 A
8.91137297750095;-0.49981689453125;-0.009490966796875;0.61999999843465;63;1 A
8.9213729774757;-0.499847412109375;-0.0095184326171875;0.629999998409403;64;1 A
8.93137297745045;-0.49981689453125;-0.0095245361328125;0.639999998384155;65;1 A
8.9413729774252;-0.49993896484375;-0.00949707031249999;0.649999998358908;66;1 A
8.95137297739996;-0.49981689453125;-0.009490966796875;0.65999999833366;67;1 A
8.96137297737471;-0.499908447265625;-0.00947265625;0.669999998308413;68;1 A
8.97137297734946;-0.499786376953125;-0.0094879150390625;0.679999998283165;69;1 A
8.98137297732421;-0.49993896484375;-0.00946044921875;0.689999998257917;70;1 A
8.99137297729897;-0.499725341796875;-0.0094482421875;0.69999999823267;71;1 A
9.00137297727372;-0.499969482421875;-0.00945129394531249;0.709999998207422;72;1 A
9.01137297724847;-0.499786376953125;-0.00946655273437499;0.719999998182175;73;1 A
9.02137297722322;-0.499969482421875;-0.00946044921875;0.729999998156927;74;1 A
9.03137297719798;-0.499755859375;-0.00946655273437499;0.73999999813168;75;1 A
9.04137297717273;-0.499908447265625;-0.0094573974609375;0.749999998106432;76;1 A
9.05137297714748;-0.499755859375;-0.00948181152343749;0.759999998081184;77;1 A
9.06137297712223;-0.5;-0.009478759765625;0.769999998055937;78;1 A
9.07137297709698;-0.499755859375;-0.009503173828125;0.779999998030689;79;1 A
9.08137297707174;-0.49993896484375;-0.00954284667968749;0.789999998005442;80;1 A
9.09137297704649;-0.499847412109375;-0.009564208984375;0.799999997980194;81;1 A
9.10137297702124;-0.500030517578125;-0.009564208984375;0.809999997954947;82;1 A
9.11137297699599;-0.499847412109375;-0.00956115722656251;0.819999997929699;83;1 A
9.12137297697075;-0.499908447265625;-0.0095703125;0.829999997904451;84;1 A
9.1313729769455;-0.499786376953125;-0.00959167480468751;0.839999997879204;85;1 A
9.14137297692025;-0.500030517578125;-0.00957641601562501;0.849999997853956;86;1 A
9.151372976895;-0.49981689453125;-0.0095947265625;0.859999997828709;87;1 A
9.16137297686976;-0.49993896484375;-0.009600830078125;0.869999997803461;88;1 A
9.17137297684451;-0.499847412109375;-0.009625244140625;0.879999997778214;89;1 A
9.18137297681926;-0.5;-0.009613037109375;0.889999997752966;90;1 A
9.19137297679401;-0.499847412109375;-0.0096160888671875;0.899999997727718;91;1 A
9.20137297676877;-0.49993896484375;-0.0096099853515625;0.909999997702471;92;1 A
9.21137297674352;-0.49981689453125;-0.009613037109375;0.919999997677223;93;1 A
9.22137297671827;-0.500091552734375;-0.00960693359375001;0.929999997651976;94;1 A
9.23137297669302;-0.49981689453125;-0.0095977783203125;0.939999997626728;95;1 A
9.24137297666778;-0.499847412109375;-0.0095855712890625;0.949999997601481;96;1 A
9.25137297664253;-0.499755859375;-0.0095947265625;0.959999997576233;97;1 A
9.26137297661728;-0.499969482421875;-0.00957336425781249;0.969999997550985;98;1 A
9.27137297659203;-0.49981689453125;-0.00958862304687499;0.979999997525738;99;1 A
9.28137297656679;-0.499908447265625;-0.0095855712890625;0.98999999750049;100;1 A
9.29137297654154;-0.499786376953125;-0.00959167480468751;0.999999997475243;101;1 A
9.30137297651629;-0.49993896484375;-0.00957336425781249;1.00999999745;102;1 A
9.31137297649104;-0.499786376953125;-0.00956115722656251;1.01999999742475;103;1 A
9.3213729764658;-0.49993896484375;-0.0095550537109375;1.0299999973995;104;1 A
9.33137297644055;-0.499725341796875;-0.0095550537109375;1.03999999737425;105;1 A
9.3413729764153;-0.4998779296875;-0.00953369140625;1.049999997349;106;1 A
9.35137297639005;-0.499786376953125;-0.009539794921875;1.05999999732376;107;1 A
9.36137297636481;-0.5;-0.00953369140625;1.06999999729851;108;1 A
9.37137297633956;-0.499847412109375;-0.0095672607421875;1.07999999727326;109;1 A
9.38137297631431;-0.499969482421875;-0.00954589843750001;1.08999999724801;110;1 A
9.39137297628906;-0.499847412109375;-0.00954589843750001;1.09999999722277;111;1 A
9.40137297626381;-0.499908447265625;-0.0095489501953125;1.10999999719752;112;1 A
9.41137297623857;-0.499847412109375;-0.0095703125;1.11999999717227;113;1 A
9.42137297621332;-0.50006103515625;-0.0095947265625;1.12999999714702;114;1 A
9.43137297618807;-0.499847412109375;-0.009625244140625;1.13999999712178;115;1 A
9.44137297616282;-0.499969482421875;-0.00964965820312499;1.14999999709653;116;1 A
9.45137297613758;-0.49981689453125;-0.00968017578124999;1.15999999707128;117;1 A
9.46137297611233;-0.50006103515625;-0.00968322753906251;1.16999999704603;118;1 A
9.47137297608708;-0.49981689453125;-0.00971069335937499;1.17999999702079;119;1 A
9.48137297606183;-0.49993896484375;-0.00971374511718751;1.18999999699554;120;1 A
9.49137297603659;-0.49981689453125;-0.00972595214843749;1.19999999697029;121;1 A
9.50137297601134;-0.500030517578125;-0.00969848632812501;1.20999999694504;122;1 A
9.51137297598609;-0.49993896484375;-0.00968322753906251;1.2199999969198;123;1 A
9.52137297596084;-0.49993896484375;-0.0096923828125;1.22999999689455;124;1 A
9.5313729759356;-0.499786376953125;-0.0096893310546875;1.2399999968693;125;1 A
9.54137297591035;-0.500030517578125;-0.0096710205078125;1.24999999684405;126;1 A
9.5513729758851;-0.499786376953125;-0.00966796875000001;1.25999999681881;127;1 A
9.56137297585985;-0.49993896484375;-0.009661865234375;1.26999999679356;128;1 A
9.57137297583461;-0.499755859375;-0.0096893310546875;1.27999999676831;129;1 A
9.58137297580936;-0.50006103515625;-0.00966491699218749;1.28999999674306;130;1 A
9.59137297578411;-0.499755859375;-0.009674072265625;1.29999999671782;131;1 A
9.60137297575886;-0.499908447265625;-0.0096771240234375;1.30999999669257;132;1 A
9.61137297573362;-0.49981689453125;-0.009674072265625;1.31999999666732;133;1 A
9.62137297570837;-0.50006103515625;-0.00965576171875;1.32999999664207;134;1 A
9.63137297568312;-0.49981689453125;-0.0096435546875;1.33999999661683;135;1 A
9.64137297565787;-0.499969482421875;-0.0096282958984375;1.34999999659158;136;1 A
9.65137297563263;-0.499847412109375;-0.0096405029296875;1.35999999656633;137;1 A
9.66137297560738;-0.500030517578125;-0.00963439941406249;1.36999999654108;138;1 A
9.67137297558213;-0.499786376953125;-0.0096710205078125;1.37999999651583;139;1 A
9.68137297555688;-0.49993896484375;-0.00966491699218749;1.38999999649059;140;1 A
9.69137297553164;-0.499755859375;-0.00966491699218749;1.39999999646534;141;1 A
9.70137297550639;-0.499969482421875;-0.00965270996093751;1.40999999644009;142;1 A
9.71137297548114;-0.49981689453125;-0.0096466064453125;1.41999999641484;143;1 A
9.72137297545589;-0.499969482421875;-0.00965270996093751;1.4299999963896;144;1 A
9.73137297543065;-0.49981689453125;-0.0096588134765625;1.43999999636435;145;1 A
9.7413729754054;-0.500030517578125;-0.00965576171875;1.4499999963391;146;1 A
9.75137297538015;-0.49981689453125;-0.0096588134765625;1.45999999631385;147;1 A
9.7613729753549;-0.4998779296875;-0.00966491699218749;1.46999999628861;148;1 A
9.77137297532965;-0.499847412109375;-0.0096771240234375;1.47999999626336;149;1 A
9.78137297530441;-0.499969482421875;-0.00966796875000001;1.48999999623811;150;1 A
9.79137297527916;-0.499847412109375;-0.0096710205078125;1.49999999621286;151;1 A
9.80137297525391;-0.4998779296875;-0.0096588134765625;1.50999999618762;152;1 A
9.81137297522866;-0.499755859375;-0.0096466064453125;1.51999999616237;153;1 A
9.82137297520342;-0.500030517578125;-0.00963745117187501;1.52999999613712;154;1 A
9.83137297517817;-0.499847412109375;-0.0096588134765625;1.53999999611187;155;1 A
9.84137297515292;-0.4998779296875;-0.009661865234375;1.54999999608663;156;1 A
9.85137297512767;-0.499786376953125;-0.009661865234375;1.55999999606138;157;1 A
9.86137297510243;-0.499969482421875;-0.0096282958984375;1.56999999603613;158;1 A
9.87137297507718;-0.499725341796875;-0.0096282958984375;1.57999999601088;159;1 A
9.88137297505193;-0.499908447265625;-0.00960693359375001;1.58999999598564;160;1 A
9.89137297502668;-0.499847412109375;-0.00960693359375001;1.59999999596039;161;1 A
9.90137297500144;-0.50006103515625;-0.00959167480468751;1.60999999593514;162;1 A
9.91137297497619;-0.499725341796875;-0.009600830078125;1.61999999590989;163;1 A
9.92137297495094;-0.499969482421875;-0.00960693359375001;1.62999999588465;164;1 A
9.93137297492569;-0.499786376953125;-0.009613037109375;1.6399999958594;165;1 A
9.94137297490045;-0.499969482421875;-0.0095947265625;1.64999999583415;166;1 A
9.9513729748752;-0.499786376953125;-0.00960693359375001;1.6599999958089;167;1 A
9.96137297484995;-0.49993896484375;-0.00961914062499999;1.66999999578366;168;1 A
9.9713729748247;-0.49981689453125;-0.0096405029296875;1.67999999575841;169;1 A
9.98137297479946;-0.499969482421875;-0.00961914062499999;1.68999999573316;170;1 A
9.99137297477421;-0.49981689453125;-0.009600830078125;1.69999999570791;171;1 A
10.001372974749;-0.49993896484375;-0.00958862304687499;1.70999999568267;172;1 A
10.0113729747237;-0.499847412109375;-0.00958862304687499;1.71999999565742;173;1 A
10.0213729746985;-0.500030517578125;-0.0095703125;1.72999999563217;174;1 A
10.0313729746732;-0.499908447265625;-0.0095550537109375;1.73999999560692;175;1 A
10.041372974648;-0.499908447265625;-0.00954589843750001;1.74999999558167;176;1 A
10.0513729746227;-0.49981689453125;-0.0095672607421875;1.75999999555643;177;1 A
10.0613729745975;-0.50006103515625;-0.00957641601562501;1.76999999553118;178;1 A
10.0713729745722;-0.499847412109375;-0.00960693359375001;1.77999999550593;179;1 A
10.081372974547;-0.499908447265625;-0.009613037109375;1.78999999548068;180;1 A
10.0913729745217;-0.499786376953125;-0.00963134765625;1.79999999545544;181;1 A
10.1013729744965;-0.50006103515625;-0.00961914062499999;1.80999999543019;182;1 A
10.1113729744712;-0.499786376953125;-0.00965270996093751;1.81999999540494;183;1 A
10.121372974446;-0.499847412109375;-0.00968017578124999;1.82999999537969;184;1 A
10.1313729744207;-0.499847412109375;-0.0096710205078125;1.83999999535445;185;1 A
10.1413729743955;-0.499969482421875;-0.00971069335937499;1.8499999953292;186;1 A
10.1513729743702;-0.499847412109375;-0.00970458984375;1.85999999530395;187;1 A
10.161372974345;-0.4998779296875;-0.00968322753906251;1.8699999952787;188;1 A
10.1713729743198;-0.499786376953125;-0.009674072265625;1.87999999525346;189;1 A
10.1813729742945;-0.5;-0.0096405029296875;1.88999999522821;190;1 A
10.1913729742693;-0.499725341796875;-0.009613037109375;1.89999999520296;191;1 A
10.201372974244;-0.5;-0.00956115722656251;1.90999999517771;192;1 A
10.2113729742188;-0.499786376953125;-0.00951538085937501;1.91999999515247;193;1 A
10.2213729741935;-0.500030517578125;-0.00947265625;1.92999999512722;194;1 A
10.2313729741683;-0.499725341796875;-0.0094482421875;1.93999999510197;195;1 A
10.241372974143;-0.499969482421875;-0.0094329833984375;1.94999999507672;196;1 A
10.2513729741178;-0.499786376953125;-0.00943603515624999;1.95999999505148;197;1 A
10.2613729740925;-0.4998779296875;-0.0094024658203125;1.96999999502623;198;1 A
10.2713729740673;-0.499755859375;-0.0093994140625;1.97999999500098;199;1 A
10.281372974042;-0.5;-0.0094146728515625;1.98999999497573;200;1 A
10.2913729740168;-0.499786376953125;-0.00946655273437499;1.99999999495049;201;1 A
10.3013729739915;-0.500030517578125;-0.009490966796875;2.00999999492524;202;1 A
10.3113729739663;-0.49981689453125;-0.0095245361328125;2.01999999489999;203;1 A
10.321372973941;-0.5;-0.00953369140625;2.02999999487474;204;1 A
10.3313729739158;-0.49981689453125;-0.00954589843750001;2.0399999948495;205;1 A
10.3413729738905;-0.50006103515625;-0.0095367431640625;2.04999999482425;206;1 A
10.3513729738653;-0.49981689453125;-0.009564208984375;2.059999994799;207;1 A
10.36137297384;-0.49993896484375;-0.00956115722656251;2.06999999477375;208;1 A
10.3713729738148;-0.499847412109375;-0.0095672607421875;2.0799999947485;209;1 A
10.3813729737896;-0.5;-0.00953369140625;2.08999999472326;210;1 A
10.3913729737643;-0.499786376953125;-0.00951232910156249;2.09999999469801;211;1 A
10.4013729737391;-0.499847412109375;-0.009478759765625;2.10999999467276;212;1 A
10.4113729737138;-0.49981689453125;-0.00946655273437499;2.11999999464751;213;1 A
10.4213729736886;-0.499969482421875;-0.009442138671875;2.12999999462227;214;1 A
10.4313729736633;-0.49981689453125;-0.0094268798828125;2.13999999459702;215;1 A
10.4413729736381;-0.49993896484375;-0.00941162109375;2.14999999457177;216;1 A
10.4513729736128;-0.499755859375;-0.0094024658203125;2.15999999454652;217;1 A
10.4613729735876;-0.5;-0.009368896484375;2.16999999452128;218;1 A
10.4713729735623;-0.499725341796875;-0.00937805175781251;2.17999999449603;219;1 A
10.4813729735371;-0.49993896484375;-0.0093963623046875;2.18999999447078;220;1 A
10.4913729735118;-0.499725341796875;-0.00942382812500001;2.19999999444553;221;1 A
10.5013729734866;-0.5;-0.0094268798828125;2.20999999442029;222;1 A
10.5113729734613;-0.49981689453125;-0.0094329833984375;2.21999999439504;223;1 A
10.5213729734361;-0.499908447265625;-0.00942077636718749;2.22999999436979;224;1 A
10.5313729734108;-0.499755859375;-0.00941162109375;2.23999999434454;225;1 A
10.5413729733856;-0.500030517578125;-0.00937805175781251;2.2499999943193;226;1 A
10.5513729733603;-0.499786376953125;-0.00941162109375;2.25999999429405;227;1 A
10.5613729733351;-0.49993896484375;-0.00946044921875;2.2699999942688;228;1 A
10.5713729733098;-0.499755859375;-0.00951232910156249;2.27999999424355;229;1 A
10.5813729732846;-0.5;-0.0095184326171875;2.28999999421831;230;1 A
10.5913729732594;-0.499847412109375;-0.00952758789062499;2.29999999419306;231;1 A
10.6013729732341;-0.499908447265625;-0.00952758789062499;2.30999999416781;232;1 A
10.6113729732089;-0.499847412109375;-0.009552001953125;2.31999999414256;233;1 A
10.6213729731836;-0.50006103515625;-0.00954589843750001;2.32999999411732;234;1 A
10.6313729731584;-0.4998779296875;-0.0095367431640625;2.33999999409207;235;1 A
10.6413729731331;-0.49993896484375;-0.00951232910156249;2.34999999406682;236;1 A
10.6513729731079;-0.499786376953125;-0.00949707031249999;2.35999999404157;237;1 A
10.6613729730826;-0.500091552734375;-0.0094268798828125;2.36999999401633;238;1 A
10.6713729730574;-0.49981689453125;-0.009381103515625;2.37999999399108;239;1 A
10.6813729730321;-0.499908447265625;-0.0093536376953125;2.38999999396583;240;1 A
10.6913729730069;-0.499755859375;-0.00934448242187499;2.39999999394058;241;1 A
10.7013729729816;-0.500030517578125;-0.009326171875;2.40999999391533;242;1 A
10.7113729729564;-0.49981689453125;-0.0093353271484375;2.41999999389009;243;1 A
10.7213729729311;-0.499908447265625;-0.00933227539062501;2.42999999386484;244;1 A
10.7313729729059;-0.499755859375;-0.0093505859375;2.43999999383959;245;1 A
10.7413729728806;-0.49993896484375;-0.00934448242187499;2.44999999381434;246;1 A
10.7513729728554;-0.499755859375;-0.00932922363281249;2.4599999937891;247;1 A
10.7613729728301;-0.49993896484375;-0.00937805175781251;2.46999999376385;248;1 A
10.7713729728049;-0.499725341796875;-0.009442138671875;2.4799999937386;249;1 A
10.7813729727796;-0.499969482421875;-0.0094635009765625;2.48999999371335;250;1 A
10.7913729727544;-0.499755859375;-0.00948486328125001;2.49999999368811;251;1 A
10.8013729727292;-0.499969482421875;-0.00950012207031251;2.50999999366286;252;1 A
10.8113729727039;-0.499847412109375;-0.00950927734375;2.51999999363761;253;1 A
10.8213729726787;-0.4998779296875;-0.00948181152343749;2.52999999361236;254;1 A
10.8313729726534;-0.499755859375;-0.00946960449218751;2.53999999358712;255;1 A
10.8413729726282;-0.5;-0.0094573974609375;2.54999999356187;256;1 A
10.8513729726029;-0.499786376953125;-0.00946960449218751;2.55999999353662;257;1 A
10.8613729725777;-0.500030517578125;-0.0094482421875;2.56999999351137;258;1 A
10.8713729725524;-0.499847412109375;-0.00945434570312501;2.57999999348613;259;1 A
10.8813729725272;-0.499969482421875;-0.0094635009765625;2.58999999346088;260;1 A
10.8913729725019;-0.499847412109375;-0.00948486328125001;2.59999999343563;261;1 A
10.9013729724767;-0.5;-0.00950012207031251;2.60999999341038;262;1 A
10.9113729724514;-0.499908447265625;-0.0095245361328125;2.61999999338514;263;1 A
10.9213729724262;-0.49993896484375;-0.00952758789062499;2.62999999335989;264;1 A
10.9313729724009;-0.4998779296875;-0.0095245361328125;2.63999999333464;265;1 A
10.9413729723757;-0.500091552734375;-0.0095184326171875;2.64999999330939;266;1 A
10.9513729723504;-0.49981689453125;-0.0095489501953125;2.65999999328415;267;1 A
10.9613729723252;-0.499847412109375;-0.0095550537109375;2.6699999932589;268;1 A
10.9713729722999;-0.49981689453125;-0.00957336425781249;2.67999999323365;269;1 A
10.9813729722747;-0.5;-0.0095489501953125;2.6899999932084;270;1 A
10.9913729722495;-0.499786376953125;-0.00955810546874999;2.69999999318316;271;1 A
11.0013729722242;-0.49993896484375;-0.0095703125;2.70999999315791;272;1 A
11.011372972199;-0.49969482421875;-0.00954284667968749;2.71999999313266;273;1 A
11.0213729721737;-0.5;-0.00948486328125001;2.72999999310741;274;1 A
11.0313729721485;-0.499847412109375;-0.00943908691406251;2.73999999308217;275;1 A
11.0413729721232;-0.4998779296875;-0.0093841552734375;2.74999999305692;276;1 A
11.051372972098;-0.499755859375;-0.00937499999999999;2.75999999303167;277;1 A
11.0613729720727;-0.5;-0.009326171875;2.76999999300642;278;1 A
11.0713729720475;-0.499725341796875;-0.00930175781250001;2.77999999298117;279;1 A
11.0813729720222;-0.49993896484375;-0.00926818847656249;2.78999999295593;280;1 A
11.091372971997;-0.499786376953125;-0.00923767089843749;2.79999999293068;281;1 A
11.1013729719717;-0.49993896484375;-0.00919189453124999;2.80999999290543;282;1 A
11.1113729719465;-0.499725341796875;-0.00916137695312499;2.81999999288018;283;1 A
11.1213729719212;-0.499969482421875;-0.0091522216796875;2.82999999285494;284;1 A
11.131372971896;-0.49981689453125;-0.009136962890625;2.83999999282969;285;1 A
11.1413729718707;-0.499969482421875;-0.0090972900390625;2.84999999280444;286;1 A
11.1513729718455;-0.499847412109375;-0.00908813476562501;2.85999999277919;287;1 A
11.1613729718202;-0.499908447265625;-0.00905456542968749;2.86999999275395;288;1 A
11.171372971795;-0.499786376953125;-0.0090362548828125;2.8799999927287;289;1 A
11.1813729717697;-0.499969482421875;-0.0090057373046875;2.88999999270345;290;1 A
11.1913729717445;-0.499908447265625;-0.00902099609375;2.8999999926782;291;1 A
11.2013729717193;-0.499908447265625;-0.009051513671875;2.90999999265296;292;1 A
11.211372971694;-0.499847412109375;-0.00905761718750001;2.91999999262771;293;1 A
11.2213729716688;-0.499969482421875;-0.00904541015625;2.92999999260246;294;1 A
11.2313729716435;-0.49981689453125;-0.00902404785156249;2.93999999257721;295;1 A
11.2413729716183;-0.499908447265625;-0.0090057373046875;2.94999999255197;296;1 A
11.251372971593;-0.4998779296875;-0.00902404785156249;2.95999999252672;297;1 A
11.2613729715678;-0.49993896484375;-0.00901184082031251;2.96999999250147;298;1 A
11.2713729715425;-0.499847412109375;-0.009033203125;2.97999999247622;299;1 A
11.2813729715173;-0.499847412109375;-0.00904235839843751;2.98999999245098;300;1 A
11.291372971492;-0.499847412109375;-0.00906982421874999;2.99999999242573;301;1 A
11.3013729714668;-0.5;-0.009075927734375;3.00999999240048;302;1 A
11.3113729714415;-0.49981689453125;-0.00908203125;3.01999999237523;303;1 A
11.3213729714163;-0.49993896484375;-0.00910339355468751;3.02999999234999;304;1 A
11.331372971391;-0.49981689453125;-0.009112548828125;3.03999999232474;305;1 A
11.3413729713658;-0.499969482421875;-0.0091094970703125;3.04999999229949;306;1 A
11.3513729713405;-0.499755859375;-0.009124755859375;3.05999999227424;307;1 A
11.3613729713153;-0.499908447265625;-0.0091094970703125;3.069999992249;308;1 A
11.37137297129;-0.49981689453125;-0.00914306640625;3.07999999222375;309;1 A
11.3813729712648;-0.499969482421875;-0.009136962890625;3.0899999921985;310;1 A
11.3913729712395;-0.499725341796875;-0.009173583984375;3.09999999217325;311;1 A
11.4013729712143;-0.499908447265625;-0.00924072265625001;3.109999992148;312;1 A
11.4113729711891;-0.499786376953125;-0.0092926025390625;3.11999999212276;313;1 A
11.4213729711638;-0.499908447265625;-0.0093109130859375;3.12999999209751;314;1 A
11.4313729711386;-0.499847412109375;-0.009307861328125;3.13999999207226;315;1 A
11.4413729711133;-0.499908447265625;-0.009307861328125;3.14999999204701;316;1 A
11.4513729710881;-0.499786376953125;-0.0093414306640625;3.15999999202177;317;1 A
11.4613729710628;-0.499908447265625;-0.00933227539062501;3.16999999199652;318;1 A
11.4713729710376;-0.499847412109375;-0.009368896484375;3.17999999197127;319;1 A
11.4813729710123;-0.499908447265625;-0.0093719482421875;3.18999999194602;320;1 A
11.4913729709871;-0.49981689453125;-0.00939331054687501;3.19999999192078;321;1 A
11.5013729709618;-0.499969482421875;-0.0093963623046875;3.20999999189553;322;1 A
11.5113729709366;-0.4998779296875;-0.00940551757812499;3.21999999187028;323;1 A
11.5213729709113;-0.499908447265625;-0.00941162109375;3.22999999184503;324;1 A
11.5313729708861;-0.499847412109375;-0.0093841552734375;3.23999999181979;325;1 A
11.5413729708608;-0.499969482421875;-0.00933837890625;3.24999999179454;326;1 A
11.5513729708356;-0.499847412109375;-0.0093353271484375;3.25999999176929;327;1 A
11.5613729708103;-0.49993896484375;-0.009320068359375;3.26999999174404;328;1 A
11.5713729707851;-0.499786376953125;-0.0093536376953125;3.2799999917188;329;1 A
11.5813729707598;-0.49993896484375;-0.00934753417968751;3.28999999169355;330;1 A
11.5913729707346;-0.49981689453125;-0.00937805175781251;3.2999999916683;331;1 A
11.6013729707093;-0.4998779296875;-0.00942382812500001;3.30999999164305;332;1 A
11.6113729706841;-0.49981689453125;-0.0094451904296875;3.31999999161781;333;1 A
11.6213729706589;-0.4998779296875;-0.00945434570312501;3.32999999159256;334;1 A
11.6313729706336;-0.499786376953125;-0.0094635009765625;3.33999999156731;335;1 A
11.6413729706084;-0.499908447265625;-0.0094635009765625;3.34999999154206;336;1 A
11.6513729705831;-0.499786376953125;-0.00948486328125001;3.35999999151682;337;1 A
11.6613729705579;-0.49993896484375;-0.00946044921875;3.36999999149157;338;1 A
11.6713729705326;-0.499755859375;-0.00948181152343749;3.37999999146632;339;1 A
11.6813729705074;-0.499908447265625;-0.0094573974609375;3.38999999144107;340;1 A
11.6913729704821;-0.49981689453125;-0.00945129394531249;3.39999999141583;341;1 A
11.7013729704569;-0.499908447265625;-0.00943603515624999;3.40999999139058;342;1 A
11.7113729704316;-0.49981689453125;-0.00945129394531249;3.41999999136533;343;1 A
11.7213729704064;-0.49993896484375;-0.00948181152343749;3.42999999134008;344;1 A
11.7313729703811;-0.499786376953125;-0.009490966796875;3.43999999131483;345;1 A
11.7413729703559;-0.499908447265625;-0.0094635009765625;3.44999999128959;346;1 A
11.7513729703306;-0.49981689453125;-0.00946960449218751;3.45999999126434;347;1 A
11.7613729703054;-0.49993896484375;-0.009442138671875;3.46999999123909;348;1 A
11.7713729702801;-0.49981689453125;-0.0094482421875;3.47999999121384;349;1 A
11.7813729702549;-0.499847412109375;-0.00942382812500001;3.4899999911886;350;1 A
11.7913729702296;-0.499847412109375;-0.0094451904296875;3.49999999116335;351;1 A
11.8013729702044;-0.49993896484375;-0.00946655273437499;3.5099999911381;352;1 A
11.8113729701791;-0.4998779296875;-0.00948486328125001;3.51999999111285;353;1 A
11.8213729701539;-0.499847412109375;-0.0095062255859375;3.52999999108761;354;1 A
11.8313729701287;-0.499786376953125;-0.0095184326171875;3.53999999106236;355;1 A
11.8413729701034;-0.49993896484375;-0.009539794921875;3.54999999103711;356;1 A
11.8513729700782;-0.4998779296875;-0.00954284667968749;3.55999999101186;357;1 A
11.8613729700529;-0.5;-0.009521484375;3.56999999098662;358;1 A
11.8713729700277;-0.499755859375;-0.00953063964843751;3.57999999096137;359;1 A
11.8813729700024;-0.499847412109375;-0.00951538085937501;3.58999999093612;360;1 A
11.8913729699772;-0.499786376953125;-0.00953369140625;3.59999999091087;361;1 A
11.9013729699519;-0.499908447265625;-0.00954284667968749;3.60999999088563;362;1 A
11.9113729699267;-0.499755859375;-0.0095550537109375;3.61999999086038;363;1 A
11.9213729699014;-0.499969482421875;-0.0095703125;3.62999999083513;364;1 A
11.9313729698762;-0.499755859375;-0.00956115722656251;3.63999999080988;365;1 A
11.9413729698509;-0.500030517578125;-0.00952758789062499;3.64999999078464;366;1 A
11.9513729698257;-0.499786376953125;-0.0095062255859375;3.65999999075939;367;1 A
11.9613729698004;-0.499969482421875;-0.009490966796875;3.66999999073414;368;1 A
11.9713729697752;-0.499755859375;-0.0094879150390625;3.67999999070889;369;1 A
11.9813729697499;-0.49993896484375;-0.0094451904296875;3.68999999068365;370;1 A
11.9913729697247;-0.49981689453125;-0.0094451904296875;3.6999999906584;371;1 A
12.0013729696994;-0.499969482421875;-0.0094451904296875;3.70999999063315;372;1 A
12.0113729696742;-0.499786376953125;-0.009478759765625;3.7199999906079;373;1 A
12.021372969649;-0.5;-0.00945129394531249;3.72999999058266;374;1 A
12.0313729696237;-0.49981689453125;-0.0094451904296875;3.73999999055741;375;1 A
12.0413729695985;-0.49993896484375;-0.0094573974609375;3.74999999053216;376;1 A
12.0513729695732;-0.499847412109375;-0.00946655273437499;3.75999999050691;377;1 A
12.061372969548;-0.4998779296875;-0.00945434570312501;3.76999999048167;378;1 A
12.0713729695227;-0.499847412109375;-0.00946960449218751;3.77999999045642;379;1 A
12.0813729694975;-0.49993896484375;-0.0094573974609375;3.78999999043117;380;1 A
12.0913729694722;-0.4998779296875;-0.00945434570312501;3.79999999040592;381;1 A
12.101372969447;-0.49981689453125;-0.00942077636718749;3.80999999038067;382;1 A
12.1113729694217;-0.499847412109375;-0.0093963623046875;3.81999999035543;383;1 A
12.1213729693965;-0.49993896484375;-0.0093841552734375;3.82999999033018;384;1 A
12.1313729693712;-0.49981689453125;-0.00937499999999999;3.83999999030493;385;1 A
12.141372969346;-0.499969482421875;-0.00937499999999999;3.84999999027968;386;1 A
12.1513729693207;-0.499847412109375;-0.0093994140625;3.85999999025444;387;1 A
12.1613729692955;-0.499908447265625;-0.0094024658203125;3.86999999022919;388;1 A
12.1713729692702;-0.499725341796875;-0.00942077636718749;3.87999999020394;389;1 A
12.181372969245;-0.499969482421875;-0.00940551757812499;3.88999999017869;390;1 A
12.1913729692197;-0.499755859375;-0.0094268798828125;3.89999999015345;391;1 A
12.2013729691945;-0.49993896484375;-0.00942382812500001;3.9099999901282;392;1 A
12.2113729691692;-0.49981689453125;-0.009429931640625;3.91999999010295;393;1 A
12.221372969144;-0.49993896484375;-0.009429931640625;3.9299999900777;394;1 A
12.2313729691188;-0.499755859375;-0.00943908691406251;3.93999999005246;395;1 A
12.2413729690935;-0.499969482421875;-0.0094482421875;3.94999999002721;396;1 A
12.2513729690683;-0.499725341796875;-0.0094482421875;3.95999999000196;397;1 A
12.261372969043;-0.499908447265625;-0.009417724609375;3.96999998997671;398;1 A
12.2713729690178;-0.499755859375;-0.0093963623046875;3.97999998995147;399;1 A
12.2813729689925;-0.499969482421875;-0.00935974121093749;3.98999998992622;400;1 A
12.2913729689673;-0.499847412109375;-0.0093658447265625;3.99999998990097;401;1 A
12.301372968942;-0.499969482421875;-0.00934448242187499;4.00999998987572;402;1 A
12.3113729689168;-0.49981689453125;-0.009356689453125;4.01999998985048;403;1 A
12.3213729688915;-0.49993896484375;-0.009368896484375;4.02999998982523;404;1 A
12.3313729688663;-0.499847412109375;-0.0093658447265625;4.03999998979998;405;1 A
12.341372968841;-0.4998779296875;-0.0093658447265625;4.04999998977473;406;1 A
12.3513729688158;-0.499847412109375;-0.00939331054687501;4.05999998974949;407;1 A
12.3613729687905;-0.49993896484375;-0.0094146728515625;4.06999998972424;408;1 A
12.3713729687653;-0.49981689453125;-0.0094482421875;4.07999998969899;409;1 A
12.38137296874;-0.4998779296875;-0.0094268798828125;4.08999998967374;410;1 A
12.3913729687148;-0.49981689453125;-0.0094024658203125;4.0999999896485;411;1 A
12.4013729686895;-0.49993896484375;-0.0093414306640625;4.10999998962325;412;1 A
12.4113729686643;-0.499847412109375;-0.0092926025390625;4.119999989598;413;1 A
12.421372968639;-0.49993896484375;-0.009228515625;4.12999998957275;414;1 A
12.4313729686138;-0.499786376953125;-0.00919494628906251;4.1399999895475;415;1 A
12.4413729685886;-0.499847412109375;-0.009185791015625;4.14999998952226;416;1 A
12.4513729685633;-0.499755859375;-0.00919189453124999;4.15999998949701;417;1 A
12.4613729685381;-0.499969482421875;-0.0091827392578125;4.16999998947176;418;1 A
12.4713729685128;-0.49981689453125;-0.00920715332031249;4.17999998944651;419;1 A
12.4813729684876;-0.499908447265625;-0.00921020507812501;4.18999998942127;420;1 A
12.4913729684623;-0.499755859375;-0.00922241210937499;4.19999998939602;421;1 A
12.5013729684371;-0.499969482421875;-0.009185791015625;4.20999998937077;422;1 A
12.5113729684118;-0.499725341796875;-0.009173583984375;4.21999998934552;423;1 A
12.5213729683866;-0.499969482421875;-0.009185791015625;4.22999998932028;424;1 A
12.5313729683613;-0.499725341796875;-0.00917968750000001;4.23999998929503;425;1 A
12.5413729683361;-0.5;-0.00916748046875;4.24999998926978;426;1 A
12.5513729683108;-0.499755859375;-0.009185791015625;4.25999998924453;427;1 A
12.5613729682856;-0.499969482421875;-0.00921630859375;4.26999998921929;428;1 A
12.5713729682603;-0.499847412109375;-0.009259033203125;4.27999998919404;429;1 A
12.5813729682351;-0.499908447265625;-0.00925598144531251;4.28999998916879;430;1 A
12.5913729682098;-0.499847412109375;-0.0092742919921875;4.29999998914354;431;1 A
12.6013729681846;-0.5;-0.009307861328125;4.3099999891183;432;1 A
12.6113729681593;-0.49981689453125;-0.00936279296875001;4.31999998909305;433;1 A
12.6213729681341;-0.49993896484375;-0.0093994140625;4.3299999890678;434;1 A
12.6313729681088;-0.499847412109375;-0.00943603515624999;4.33999998904255;435;1 A
12.6413729680836;-0.49993896484375;-0.0094879150390625;4.34999998901731;436;1 A
12.6513729680584;-0.499847412109375;-0.009503173828125;4.35999998899206;437;1 A
12.6613729680331;-0.499908447265625;-0.009478759765625;4.36999998896681;438;1 A
12.6713729680079;-0.499847412109375;-0.00943603515624999;4.37999998894156;439;1 A
12.6813729679826;-0.499908447265625;-0.00938720703125;4.38999998891632;440;1 A
12.6913729679574;-0.499755859375;-0.0093536376953125;4.39999998889107;441;1 A
12.7013729679321;-0.499908447265625;-0.0093048095703125;4.40999998886582;442;1 A
12.7113729679069;-0.499786376953125;-0.00928649902343751;4.41999998884057;443;1 A
12.7213729678816;-0.4998779296875;-0.0092620849609375;4.42999998881533;444;1 A
12.7313729678564;-0.499786376953125;-0.0092315673828125;4.43999998879008;445;1 A
12.7413729678311;-0.49993896484375;-0.00917663574218749;4.44999998876483;446;1 A
12.7513729678059;-0.499847412109375;-0.00913391113281251;4.45999998873958;447;1 A
12.7613729677806;-0.499969482421875;-0.00908813476562501;4.46999998871433;448;1 A
12.7713729677554;-0.499786376953125;-0.00906982421874999;4.47999998868909;449;1 A
12.7813729677301;-0.499847412109375;-0.009033203125;4.48999998866384;450;1 A
12.7913729677049;-0.499755859375;-0.0090057373046875;4.49999998863859;451;1 A
12.8013729676796;-0.499908447265625;-0.00898132324218751;4.50999998861334;452;1 A
12.8113729676544;-0.49981689453125;-0.008984375;4.5199999885881;453;1 A
12.8213729676291;-0.49981689453125;-0.0089996337890625;4.52999998856285;454;1 A
12.8313729676039;-0.499755859375;-0.0090301513671875;4.5399999885376;455;1 A
12.8413729675786;-0.5;-0.00904541015625;4.54999998851235;456;1 A
12.8513729675534;-0.499786376953125;-0.00905456542968749;4.55999998848711;457;1 A
12.8613729675282;-0.499847412109375;-0.009033203125;4.56999998846186;458;1 A
12.8713729675029;-0.499786376953125;-0.0090362548828125;4.57999998843661;459;1 A
12.8813729674777;-0.49993896484375;-0.009014892578125;4.58999998841136;460;1 A
12.8913729674524;-0.499786376953125;-0.00901184082031251;4.59999998838612;461;1 A
12.9013729674272;-0.4998779296875;-0.0089996337890625;4.60999998836087;462;1 A
12.9113729674019;-0.4998779296875;-0.00896301269531249;4.61999998833562;463;1 A
12.9213729673767;-0.499908447265625;-0.0089447021484375;4.62999998831037;464;1 A
12.9313729673514;-0.499786376953125;-0.008953857421875;4.63999998828513;465;1 A
12.9413729673262;-0.499847412109375;-0.0089385986328125;4.64999998825988;466;1 A
12.9513729673009;-0.499847412109375;-0.008941650390625;4.65999998823463;467;1 A
12.9613729672757;-0.49993896484375;-0.008929443359375;4.66999998820938;468;1 A
12.9713729672504;-0.4998779296875;-0.008941650390625;4.67999998818414;469;1 A
12.9813729672252;-0.499908447265625;-0.00893554687500001;4.68999998815889;470;1 A
12.9913729671999;-0.49981689453125;-0.0089599609375;4.69999998813364;471;1 A
13.0013729671747;-0.499847412109375;-0.00898132324218751;4.70999998810839;472;1 A
13.0113729671494;-0.49981689453125;-0.009002685546875;4.71999998808315;473;1 A
13.0213729671242;-0.499908447265625;-0.008990478515625;4.7299999880579;474;1 A
13.0313729670989;-0.49981689453125;-0.00899658203125001;4.73999998803265;475;1 A
13.0413729670737;-0.499969482421875;-0.0089996337890625;4.7499999880074;476;1 A
13.0513729670485;-0.499725341796875;-0.009014892578125;4.75999998798216;477;1 A
13.0613729670232;-0.499786376953125;-0.009002685546875;4.76999998795691;478;1 A
13.071372966998;-0.499755859375;-0.0090057373046875;4.77999998793166;479;1 A
13.0813729669727;-0.49993896484375;-0.009002685546875;4.78999998790641;480;1 A
13.0913729669475;-0.49969482421875;-0.0090301513671875;4.79999998788116;481;1 A
13.1013729669222;-0.49993896484375;-0.00904541015625;4.80999998785592;482;1 A
13.111372966897;-0.499786376953125;-0.0090606689453125;4.81999998783067;483;1 A
13.1213729668717;-0.5;-0.00906982421874999;4.82999998780542;484;1 A
13.1313729668465;-0.49981689453125;-0.00908813476562501;4.83999998778017;485;1 A
13.1413729668212;-0.49981689453125;-0.0090972900390625;4.84999998775493;486;1 A
13.151372966796;-0.499847412109375;-0.0091064453125;4.85999998772968;487;1 A
13.1613729667707;-0.499908447265625;-0.00910339355468751;4.86999998770443;488;1 A
13.1713729667455;-0.499847412109375;-0.00913391113281251;4.87999998767918;489;1 A
13.1813729667202;-0.499847412109375;-0.00914611816406249;4.88999998765394;490;1 A
13.191372966695;-0.49981689453125;-0.00919189453124999;4.89999998762869;491;1 A
13.2013729666697;-0.5;-0.0092437744140625;4.90999998760344;492;1 A
13.2113729666445;-0.499847412109375;-0.0092926025390625;4.91999998757819;493;1 A
13.2213729666192;-0.499755859375;-0.009307861328125;4.92999998755295;494;1 A
13.231372966594;-0.499847412109375;-0.0093048095703125;4.9399999875277;495;1 A
13.2413729665687;-0.499969482421875;-0.00927734375;4.94999998750245;496;1 A
13.2513729665435;-0.499786376953125;-0.00926513671875;4.9599999874772;497;1 A
13.2613729665183;-0.4998779296875;-0.009234619140625;4.96999998745196;498;1 A
13.271372966493;-0.499786376953125;-0.009246826171875;4.97999998742671;499;1 A
13.2813729664678;-0.49993896484375;-0.009259033203125;4.98999998740146;500;1 A
13.2913729664425;-0.499786376953125;-0.0092803955078125;4.99999998737621;501;1 A
13.3013729664173;-0.499847412109375;-0.0092926025390625;5.00999998735097;502;1 A
13.311372966392;-0.49981689453125;-0.009295654296875;5.01999998732572;503;1 A
13.3213729663668;-0.499847412109375;-0.00927734375;5.02999998730047;504;1 A
13.3313729663415;-0.499786376953125;-0.00926818847656249;5.03999998727522;505;1 A
13.3413729663163;-0.499908447265625;-0.0092498779296875;5.04999998724998;506;1 A
13.351372966291;-0.499786376953125;-0.00927124023437501;5.05999998722473;507;1 A
13.3613729662658;-0.499908447265625;-0.00929870605468749;5.06999998719948;508;1 A
13.3713729662405;-0.499755859375;-0.00933837890625;5.07999998717423;509;1 A
13.3813729662153;-0.499847412109375;-0.00933837890625;5.08999998714899;510;1 A
13.39137296619;-0.499786376953125;-0.0093536376953125;5.09999998712374;511;1 A
13.4013729661648;-0.5;-0.0093658447265625;5.10999998709849;512;1 A
13.4113729661395;-0.499786376953125;-0.009381103515625;5.11999998707324;513;1 A
13.4213729661143;-0.499786376953125;-0.0093841552734375;5.129999987048;514;1 A
13.431372966089;-0.49981689453125;-0.0093994140625;5.13999998702275;515;1 A
13.4413729660638;-0.499969482421875;-0.0094024658203125;5.1499999869975;516;1 A
13.4513729660385;-0.499847412109375;-0.00942382812500001;5.15999998697225;517;1 A
13.4613729660133;-0.499908447265625;-0.0094268798828125;5.169999986947;518;1 A
13.4713729659881;-0.499847412109375;-0.00946044921875;5.17999998692176;519;1 A
13.4813729659628;-0.499969482421875;-0.00947265625;5.18999998689651;520;1 A
13.4913729659376;-0.49981689453125;-0.00950012207031251;5.19999998687126;521;1 A
13.5013729659123;-0.499847412109375;-0.009503173828125;5.20999998684601;522;1 A
13.5113729658871;-0.4998779296875;-0.00949707031249999;5.21999998682077;523;1 A
13.5213729658618;-0.499908447265625;-0.00949707031249999;5.22999998679552;524;1 A
13.5313729658366;-0.49981689453125;-0.0094940185546875;5.23999998677027;525;1 A
13.5413729658113;-0.49981689453125;-0.00946960449218751;5.24999998674502;526;1 A
13.5513729657861;-0.49981689453125;-0.00945129394531249;5.25999998671978;527;1 A
13.5613729657608;-0.49993896484375;-0.0094329833984375;5.26999998669453;528;1 A
13.5713729657356;-0.499725341796875;-0.009442138671875;5.27999998666928;529;1 A
13.5813729657103;-0.499847412109375;-0.00941162109375;5.28999998664403;530;1 A
13.5913729656851;-0.49981689453125;-0.00940856933593751;5.29999998661879;531;1 A
13.6013729656598;-0.4998779296875;-0.00942077636718749;5.30999998659354;532;1 A
13.6113729656346;-0.499847412109375;-0.0094329833984375;5.31999998656829;533;1 A
13.6213729656093;-0.499847412109375;-0.00942077636718749;5.32999998654304;534;1 A
13.6313729655841;-0.499755859375;-0.0094146728515625;5.3399999865178;535;1 A
13.6413729655588;-0.499969482421875;-0.00942077636718749;5.34999998649255;536;1 A
13.6513729655336;-0.49981689453125;-0.00946655273437499;5.3599999864673;537;1 A
13.6613729655083;-0.499847412109375;-0.00947265625;5.36999998644205;538;1 A
13.6713729654831;-0.49981689453125;-0.0094879150390625;5.37999998641681;539;1 A
13.6813729654579;-0.49993896484375;-0.009503173828125;5.38999998639156;540;1 A
13.6913729654326;-0.499786376953125;-0.00951232910156249;5.39999998636631;541;1 A
13.7013729654074;-0.499847412109375;-0.00949707031249999;5.40999998634106;542;1 A
13.7113729653821;-0.49981689453125;-0.0094879150390625;5.41999998631582;543;1 A
13.7213729653569;-0.499969482421875;-0.00948486328125001;5.42999998629057;544;1 A
13.7313729653316;-0.499847412109375;-0.00950927734375;5.43999998626532;545;1 A
13.7413729653064;-0.499786376953125;-0.0095184326171875;5.44999998624007;546;1 A
13.7513729652811;-0.49981689453125;-0.0095367431640625;5.45999998621483;547;1 A
13.7613729652559;-0.499969482421875;-0.00953063964843751;5.46999998618958;548;1 A
13.7713729652306;-0.49981689453125;-0.0095489501953125;5.47999998616433;549;1 A
13.7813729652054;-0.4998779296875;-0.0095489501953125;5.48999998613908;550;1 A
13.7913729651801;-0.49981689453125;-0.00956115722656251;5.49999998611383;551;1 A
13.8013729651549;-0.499969482421875;-0.0095703125;5.50999998608859;552;1 A
13.8113729651296;-0.49981689453125;-0.00957641601562501;5.51999998606334;553;1 A
13.8213729651044;-0.499908447265625;-0.00958862304687499;5.52999998603809;554;1 A
13.8313729650791;-0.499786376953125;-0.00960388183593749;5.53999998601284;555;1 A
13.8413729650539;-0.499908447265625;-0.0096160888671875;5.5499999859876;556;1 A
13.8513729650286;-0.49969482421875;-0.0096588134765625;5.55999998596235;557;1 A
13.8613729650034;-0.4998779296875;-0.0096710205078125;5.5699999859371;558;1 A
13.8713729649781;-0.499725341796875;-0.0097198486328125;5.57999998591185;559;1 A
13.8813729649529;-0.499908447265625;-0.0097381591796875;5.58999998588661;560;1 A
13.8913729649277;-0.499786376953125;-0.0097625732421875;5.59999998586136;561;1 A
13.9013729649024;-0.499755859375;-0.0097808837890625;5.60999998583611;562;1 A
13.9113729648772;-0.499755859375;-0.00979003906250001;5.61999998581086;563;1 A
13.9213729648519;-0.499969482421875;-0.009796142578125;5.62999998578562;564;1 A
13.9313729648267;-0.499786376953125;-0.00978698730468749;5.63999998576037;565;1 A
13.9413729648014;-0.4998779296875;-0.00992431640624999;5.64999998573512;566;1 A
13.9513729647762;-0.499786376953125;-0.00979003906250001;5.65999998570987;567;1 A
13.9613729647509;-0.49993896484375;-0.0097686767578125;5.66999998568463;568;1 A
13.9713729647257;-0.499786376953125;-0.00975952148437501;5.67999998565938;569;1 A
13.9813729647004;-0.499908447265625;-0.009722900390625;5.68999998563413;570;1 A
13.9913729646752;-0.499847412109375;-0.00972595214843749;5.69999998560888;571;1 A
14.0013729646499;-0.499908447265625;-0.009716796875;5.70999998558364;572;1 A
14.0113729646247;-0.49981689453125;-0.009716796875;5.71999998555839;573;1 A
14.0213729645994;-0.499847412109375;-0.00972900390625001;5.72999998553314;574;1 A
14.0313729645742;-0.499847412109375;-0.00974426269531251;5.73999998550789;575;1 A
14.0413729645489;-0.49993896484375;-0.00972595214843749;5.74999998548265;576;1 A
14.0513729645237;-0.499786376953125;-0.009716796875;5.7599999854574;577;1 A
14.0613729644984;-0.499786376953125;-0.00966796875000001;5.76999998543215;578;1 A
14.0713729644732;-0.499847412109375;-0.0096588134765625;5.7799999854069;579;1 A
14.081372964448;-0.4998779296875;-0.009625244140625;5.78999998538166;580;1 A
14.0913729644227;-0.499786376953125;-0.00963439941406249;5.79999998535641;581;1 A
14.1013729643975;-0.499755859375;-0.0096405029296875;5.80999998533116;582;1 A
14.1113729643722;-0.499725341796875;-0.00965270996093751;5.81999998530591;583;1 A
14.121372964347;-0.49993896484375;-0.0096710205078125;5.82999998528066;584;1 A
14.1313729643217;-0.499786376953125;-0.0096771240234375;5.83999998525542;585;1 A
14.1413729642965;-0.49981689453125;-0.0096923828125;5.84999998523017;586;1 A
14.1513729642712;-0.499725341796875;-0.0097076416015625;5.85999998520492;587;1 A
14.161372964246;-0.49993896484375;-0.0097198486328125;5.86999998517967;588;1 A
14.1713729642207;-0.499786376953125;-0.00975646972656249;5.87999998515443;589;1 A
14.1813729641955;-0.499908447265625;-0.00974426269531251;5.88999998512918;590;1 A
14.1913729641702;-0.499786376953125;-0.0097625732421875;5.89999998510393;591;1 A
14.201372964145;-0.499908447265625;-0.00975646972656249;5.90999998507868;592;1 A
14.2113729641197;-0.499847412109375;-0.00974121093749999;5.91999998505344;593;1 A
14.2213729640945;-0.499847412109375;-0.00971374511718751;5.92999998502819;594;1 A
14.2313729640692;-0.499847412109375;-0.0096771240234375;5.93999998500294;595;1 A
14.241372964044;-0.499969482421875;-0.00966491699218749;5.94999998497769;596;1 A
14.2513729640187;-0.499847412109375;-0.00966491699218749;5.95999998495245;597;1 A
14.2613729639935;-0.499755859375;-0.009661865234375;5.9699999849272;598;1 A
14.2713729639682;-0.499847412109375;-0.0096893310546875;5.97999998490195;599;1 A
14.281372963943;-0.499908447265625;-0.009686279296875;5.9899999848767;600;1 A
14.2913729639178;-0.499908447265625;-0.00971374511718751;5.99999998485146;601;1 A
14.3013729638925;-0.499786376953125;-0.00971374511718751;6.00999998482621;602;1 A
14.3113729638673;-0.499847412109375;-0.00970458984375;6.01999998480096;603;1 A
14.321372963842;-0.49993896484375;-0.0096893310546875;6.02999998477571;604;1 A
14.3313729638168;-0.499847412109375;-0.00965576171875;6.03999998475047;605;1 A
14.3413729637915;-0.49981689453125;-0.0096282958984375;6.04999998472522;606;1 A
14.3513729637663;-0.499908447265625;-0.009600830078125;6.05999998469997;607;1 A
14.361372963741;-0.49993896484375;-0.00957641601562501;6.06999998467472;608;1 A
14.3713729637158;-0.499847412109375;-0.00959167480468751;6.07999998464948;609;1 A
14.3813729636905;-0.499786376953125;-0.009564208984375;6.08999998462423;610;1 A
14.3913729636653;-0.499786376953125;-0.00956115722656251;6.09999998459898;611;1 A
14.40137296364;-0.499908447265625;-0.00952758789062499;6.10999998457373;612;1 A
14.4113729636148;-0.499786376953125;-0.009503173828125;6.11999998454849;613;1 A
14.4213729635895;-0.499847412109375;-0.00950012207031251;6.12999998452324;614;1 A
14.4313729635643;-0.49981689453125;-0.00953369140625;6.13999998449799;615;1 A
14.441372963539;-0.499908447265625;-0.0095794677734375;6.14999998447274;616;1 A
14.4513729635138;-0.49981689453125;-0.0096160888671875;6.1599999844475;617;1 A
14.4613729634885;-0.49981689453125;-0.00962219238281251;6.16999998442225;618;1 A
14.4713729634633;-0.49969482421875;-0.0096405029296875;6.179999984397;619;1 A
14.481372963438;-0.49993896484375;-0.00963439941406249;6.18999998437175;620;1 A
14.4913729634128;-0.499786376953125;-0.00966491699218749;6.1999999843465;621;1 A
14.5013729633876;-0.499786376953125;-0.00965576171875;6.20999998432126;622;1 A
14.5113729633623;-0.499786376953125;-0.00963134765625;6.21999998429601;623;1 A
14.5213729633371;-0.499969482421875;-0.0095947265625;6.22999998427076;624;1 A
14.5313729633118;-0.499847412109375;-0.00955810546874999;6.23999998424551;625;1 A
14.5413729632866;-0.499755859375;-0.0095367431640625;6.24999998422027;626;1 A
14.5513729632613;-0.499847412109375;-0.00953369140625;6.25999998419502;627;1 A
14.5613729632361;-0.499908447265625;-0.0095184326171875;6.26999998416977;628;1 A
14.5713729632108;-0.49981689453125;-0.00952758789062499;6.27999998414452;629;1 A
14.5813729631856;-0.49981689453125;-0.009503173828125;6.28999998411928;630;1 A
14.5913729631603;-0.499847412109375;-0.00949707031249999;6.29999998409403;631;1 A
14.6013729631351;-0.499908447265625;-0.009478759765625;6.30999998406878;632;1 A
14.6113729631098;-0.4998779296875;-0.00946044921875;6.31999998404353;633;1 A
14.6213729630846;-0.499847412109375;-0.00948181152343749;6.32999998401829;634;1 A
14.6313729630593;-0.499847412109375;-0.00946960449218751;6.33999998399304;635;1 A
14.6413729630341;-0.499908447265625;-0.00945434570312501;6.34999998396779;636;1 A
14.6513729630088;-0.499786376953125;-0.0094268798828125;6.35999998394254;637;1 A
14.6613729629836;-0.499755859375;-0.00937805175781251;6.3699999839173;638;1 A
14.6713729629583;-0.49981689453125;-0.009356689453125;6.37999998389205;639;1 A
14.6813729629331;-0.49993896484375;-0.0093231201171875;6.3899999838668;640;1 A
14.6913729629078;-0.499786376953125;-0.0093231201171875;6.39999998384155;641;1 A
14.7013729628826;-0.499755859375;-0.00930175781250001;6.40999998381631;642;1 A
14.7113729628574;-0.499664306640625;-0.00929870605468749;6.41999998379106;643;1 A
14.7213729628321;-0.499908447265625;-0.0093109130859375;6.42999998376581;644;1 A
14.7313729628069;-0.49981689453125;-0.00930175781250001;6.43999998374056;645;1 A
14.7413729627816;-0.499725341796875;-0.009295654296875;6.44999998371532;646;1 A
14.7513729627564;-0.499755859375;-0.00926513671875;6.45999998369007;647;1 A
14.7613729627311;-0.499969482421875;-0.00923767089843749;6.46999998366482;648;1 A
14.7713729627059;-0.49981689453125;-0.0092132568359375;6.47999998363957;649;1 A
14.7813729626806;-0.499847412109375;-0.00917663574218749;6.48999998361433;650;1 A
14.7913729626554;-0.499847412109375;-0.00922241210937499;6.49999998358908;651;1 A
14.8013729626301;-0.499969482421875;-0.0092742919921875;6.50999998356383;652;1 A
14.8113729626049;-0.499847412109375;-0.00933227539062501;6.51999998353858;653;1 A
14.8213729625796;-0.49981689453125;-0.0093658447265625;6.52999998351333;654;1 A
14.8313729625544;-0.499847412109375;-0.0093963623046875;6.53999998348809;655;1 A
14.8413729625291;-0.499908447265625;-0.0094573974609375;6.54999998346284;656;1 A
14.8513729625039;-0.49981689453125;-0.00950012207031251;6.55999998343759;657;1 A
14.8613729624786;-0.499786376953125;-0.0095062255859375;6.56999998341234;658;1 A
14.8713729624534;-0.49981689453125;-0.0095245361328125;6.5799999833871;659;1 A
14.8813729624281;-0.4998779296875;-0.009521484375;6.58999998336185;660;1 A
14.8913729624029;-0.499786376953125;-0.00954284667968749;6.5999999833366;661;1 A
14.9013729623776;-0.499725341796875;-0.00951232910156249;6.60999998331135;662;1 A
14.9113729623524;-0.49981689453125;-0.0094879150390625;6.61999998328611;663;1 A
14.9213729623272;-0.4998779296875;-0.00946044921875;6.62999998326086;664;1 A
14.9313729623019;-0.499786376953125;-0.00942382812500001;6.63999998323561;665;1 A
14.9413729622767;-0.499725341796875;-0.0094024658203125;6.64999998321036;666;1 A
14.9513729622514;-0.499786376953125;-0.00939331054687501;6.65999998318512;667;1 A
14.9613729622262;-0.499908447265625;-0.00937805175781251;6.66999998315987;668;1 A
14.9713729622009;-0.499786376953125;-0.00937499999999999;6.67999998313462;669;1 A
14.9813729621757;-0.499786376953125;-0.00934448242187499;6.68999998310937;670;1 A
14.9913729621504;-0.499725341796875;-0.00934448242187499;6.69999998308413;671;1 A
15.0013729621252;-0.49993896484375;-0.0093109130859375;6.70999998305888;672;1 A
15.0113729620999;-0.499755859375;-0.0092803955078125;6.71999998303363;673;1 A
15.0213729620747;-0.499786376953125;-0.009246826171875;6.72999998300838;674;1 A
15.0313729620494;-0.499755859375;-0.00922241210937499;6.73999998298314;675;1 A
15.0413729620242;-0.499908447265625;-0.0092041015625;6.74999998295789;676;1 A
15.0513729619989;-0.49981689453125;-0.00919189453124999;6.75999998293264;677;1 A
15.0613729619737;-0.499755859375;-0.0091827392578125;6.76999998290739;678;1 A
15.0713729619484;-0.499847412109375;-0.009173583984375;6.77999998288215;679;1 A
15.0813729619232;-0.499969482421875;-0.00913391113281251;6.7899999828569;680;1 A
15.0913729618979;-0.499786376953125;-0.00914916992187501;6.79999998283165;681;1 A
15.1013729618727;-0.49981689453125;-0.00913391113281251;6.8099999828064;682;1 A
15.1113729618475;-0.499847412109375;-0.00913391113281251;6.81999998278116;683;1 A
15.1213729618222;-0.49993896484375;-0.0091278076171875;6.82999998275591;684;1 A
15.131372961797;-0.499786376953125;-0.009112548828125;6.83999998273066;685;1 A
15.1413729617717;-0.499786376953125;-0.009075927734375;6.84999998270541;686;1 A
15.1513729617465;-0.49981689453125;-0.009051513671875;6.85999998268016;687;1 A
15.1613729617212;-0.499908447265625;-0.00904235839843751;6.86999998265492;688;1 A
15.171372961696;-0.499786376953125;-0.009033203125;6.87999998262967;689;1 A
15.1813729616707;-0.49981689453125;-0.009002685546875;6.88999998260442;690;1 A
15.1913729616455;-0.49981689453125;-0.0089691162109375;6.89999998257917;691;1 A
15.2013729616202;-0.4998779296875;-0.00892333984375;6.90999998255393;692;1 A
15.211372961595;-0.499786376953125;-0.0089080810546875;6.91999998252868;693;1 A
15.2213729615697;-0.49981689453125;-0.00890197753906249;6.92999998250343;694;1 A
15.2313729615445;-0.499755859375;-0.008892822265625;6.93999998247818;695;1 A
15.2413729615192;-0.4998779296875;-0.0089111328125;6.94999998245294;696;1 A
15.251372961494;-0.499755859375;-0.00893249511718749;6.95999998242769;697;1 A
15.2613729614687;-0.499725341796875;-0.0089599609375;6.96999998240244;698;1 A
15.2713729614435;-0.499786376953125;-0.0090057373046875;6.97999998237719;699;1 A
15.2813729614182;-0.49993896484375;-0.0090362548828125;6.98999998235195;700;1 A
