Time (s);WE(1).Potential (V);WE(1).Current (A);Corrected time (s);Index;Current range
16.155608959211;-0.59979248046875;-0.012017822265625;0;1;1 A
16.1656089591858;-0.59991455078125;-0.0112274169921875;0.00999999997475243;2;1 A
16.1756089591605;-0.5997314453125;-0.010791015625;0.0199999999495049;3;1 A
16.1856089591353;-0.59979248046875;-0.010577392578125;0.0299999999242573;4;1 A
16.19560895911;-0.599761962890625;-0.0104736328125;0.0399999998990097;5;1 A
16.2056089590848;-0.59991455078125;-0.0103759765625;0.0499999998737621;6;1 A
16.2156089590595;-0.59979248046875;-0.010302734375;0.0599999998485146;7;1 A
16.2256089590343;-0.599761962890625;-0.0102386474609375;0.069999999823267;8;1 A
16.235608959009;-0.599700927734375;-0.0102264404296875;0.0799999997980194;9;1 A
16.2456089589838;-0.59991455078125;-0.0102203369140625;0.0899999997727718;10;1 A
16.2556089589585;-0.599761962890625;-0.01014404296875;0.0999999997475243;11;1 A
16.2656089589333;-0.599822998046875;-0.0101287841796875;0.109999999722277;12;1 A
16.275608958908;-0.5997314453125;-0.010089111328125;0.119999999697029;13;1 A
16.2856089588828;-0.59979248046875;-0.010064697265625;0.129999999671782;14;1 A
16.2956089588575;-0.599761962890625;-0.0100189208984375;0.139999999646534;15;1 A
16.3056089588323;-0.599700927734375;-0.00998840332031251;0.149999999621286;16;1 A
16.315608958807;-0.599761962890625;-0.009991455078125;0.159999999596039;17;1 A
16.3256089587818;-0.59991455078125;-0.009967041015625;0.169999999570791;18;1 A
16.3356089587566;-0.599761962890625;-0.00992736816406251;0.179999999545544;19;1 A
16.3456089587313;-0.599822998046875;-0.0099212646484375;0.189999999520296;20;1 A
16.3556089587061;-0.5997314453125;-0.0099029541015625;0.199999999495049;21;1 A
16.3656089586808;-0.59991455078125;-0.00991210937500001;0.209999999469801;22;1 A
16.3756089586556;-0.599761962890625;-0.009844970703125;0.219999999444553;23;1 A
16.3856089586303;-0.599822998046875;-0.0098297119140625;0.229999999419306;24;1 A
16.3956089586051;-0.599761962890625;-0.00982666015625;0.239999999394058;25;1 A
16.4056089585798;-0.59991455078125;-0.00979003906250001;0.249999999368811;26;1 A
16.4156089585546;-0.59979248046875;-0.009765625;0.259999999343563;27;1 A
16.4256089585293;-0.599761962890625;-0.00972900390625001;0.269999999318316;28;1 A
16.4356089585041;-0.599761962890625;-0.009716796875;0.279999999293068;29;1 A
16.4456089584788;-0.59991455078125;-0.0097015380859375;0.28999999926782;30;1 A
16.4556089584536;-0.599761962890625;-0.00963134765625;0.299999999242573;31;1 A
16.4656089584283;-0.59979248046875;-0.00962219238281251;0.309999999217325;32;1 A
16.4756089584031;-0.599761962890625;-0.00959167480468751;0.319999999192078;33;1 A
16.4856089583778;-0.59991455078125;-0.00960388183593749;0.32999999916683;34;1 A
16.4956089583526;-0.59979248046875;-0.009600830078125;0.339999999141583;35;1 A
16.5056089583273;-0.5997314453125;-0.00962219238281251;0.349999999116335;36;1 A
16.5156089583021;-0.599761962890625;-0.00966491699218749;0.359999999091087;37;1 A
16.5256089582768;-0.599853515625;-0.0096588134765625;0.36999999906584;38;1 A
16.5356089582516;-0.5997314453125;-0.0096435546875;0.379999999040592;39;1 A
16.5456089582264;-0.5997314453125;-0.0096466064453125;0.389999999015345;40;1 A
16.5556089582011;-0.599761962890625;-0.0096588134765625;0.399999998990097;41;1 A
16.5656089581759;-0.59979248046875;-0.0096923828125;0.40999999896485;42;1 A
16.5756089581506;-0.599761962890625;-0.0096466064453125;0.419999998939602;43;1 A
16.5856089581254;-0.599761962890625;-0.00964965820312499;0.429999998914354;44;1 A
16.5956089581001;-0.599761962890625;-0.009661865234375;0.439999998889107;45;1 A
16.6056089580749;-0.599822998046875;-0.0096435546875;0.449999998863859;46;1 A
16.6156089580496;-0.5997314453125;-0.0095977783203125;0.459999998838612;47;1 A
16.6256089580244;-0.59979248046875;-0.0095489501953125;0.469999998813364;48;1 A
16.6356089579991;-0.599761962890625;-0.00953063964843751;0.479999998788116;49;1 A
16.6456089579739;-0.599853515625;-0.00951538085937501;0.489999998762869;50;1 A
16.6556089579486;-0.599761962890625;-0.0094573974609375;0.499999998737621;51;1 A
16.6656089579234;-0.599822998046875;-0.00945434570312501;0.509999998712374;52;1 A
16.6756089578981;-0.599761962890625;-0.00945129394531249;0.519999998687126;53;1 A
16.6856089578729;-0.599853515625;-0.00946655273437499;0.529999998661879;54;1 A
16.6956089578476;-0.599853515625;-0.00945434570312501;0.539999998636631;55;1 A
16.7056089578224;-0.59991455078125;-0.0094757080078125;0.549999998611383;56;1 A
16.7156089577971;-0.59967041015625;-0.009539794921875;0.559999998586136;57;1 A
16.7256089577719;-0.599822998046875;-0.00956115722656251;0.569999998560888;58;1 A
16.7356089577466;-0.59979248046875;-0.0095550537109375;0.579999998535641;59;1 A
16.7456089577214;-0.599822998046875;-0.0095703125;0.589999998510393;60;1 A
16.7556089576962;-0.5997314453125;-0.009564208984375;0.599999998485146;61;1 A
16.7656089576709;-0.599853515625;-0.00958862304687499;0.609999998459898;62;1 A
16.7756089576457;-0.59979248046875;-0.00954284667968749;0.61999999843465;63;1 A
16.7856089576204;-0.599761962890625;-0.0095489501953125;0.629999998409403;64;1 A
16.7956089575952;-0.599761962890625;-0.0095489501953125;0.639999998384155;65;1 A
16.8056089575699;-0.599853515625;-0.0095367431640625;0.649999998358908;66;1 A
16.8156089575447;-0.59979248046875;-0.0095245361328125;0.65999999833366;67;1 A
16.8256089575194;-0.599761962890625;-0.00954284667968749;0.669999998308413;68;1 A
16.8356089574942;-0.5997314453125;-0.00959167480468751;0.679999998283165;69;1 A
16.8456089574689;-0.59991455078125;-0.00963134765625;0.689999998257917;70;1 A
16.8556089574437;-0.5997314453125;-0.009613037109375;0.69999999823267;71;1 A
16.8656089574184;-0.599700927734375;-0.00963745117187501;0.709999998207422;72;1 A
16.8756089573932;-0.5997314453125;-0.00963745117187501;0.719999998182175;73;1 A
16.8856089573679;-0.599945068359375;-0.00965270996093751;0.729999998156927;74;1 A
16.8956089573427;-0.5997314453125;-0.00961914062499999;0.73999999813168;75;1 A
16.9056089573174;-0.599822998046875;-0.00959167480468751;0.749999998106432;76;1 A
16.9156089572922;-0.5997314453125;-0.00958251953125;0.759999998081184;77;1 A
16.9256089572669;-0.599853515625;-0.009552001953125;0.769999998055937;78;1 A
16.9356089572417;-0.599761962890625;-0.009539794921875;0.779999998030689;79;1 A
16.9456089572165;-0.599853515625;-0.00955810546874999;0.789999998005442;80;1 A
16.9556089571912;-0.59979248046875;-0.0095703125;0.799999997980194;81;1 A
16.965608957166;-0.59991455078125;-0.00958251953125;0.809999997954947;82;1 A
16.9756089571407;-0.59979248046875;-0.0095245361328125;0.819999997929699;83;1 A
16.9856089571155;-0.59979248046875;-0.00950927734375;0.829999997904451;84;1 A
16.9956089570902;-0.599700927734375;-0.00950012207031251;0.839999997879204;85;1 A
17.005608957065;-0.59991455078125;-0.00948181152343749;0.849999997853956;86;1 A
17.0156089570397;-0.5997314453125;-0.0094573974609375;0.859999997828709;87;1 A
17.0256089570145;-0.5997314453125;-0.00945129394531249;0.869999997803461;88;1 A
17.0356089569892;-0.599761962890625;-0.00948181152343749;0.879999997778214;89;1 A
17.045608956964;-0.599761962890625;-0.009503173828125;0.889999997752966;90;1 A
17.0556089569387;-0.59979248046875;-0.0094757080078125;0.899999997727718;91;1 A
17.0656089569135;-0.599761962890625;-0.00946044921875;0.909999997702471;92;1 A
17.0756089568882;-0.5997314453125;-0.009442138671875;0.919999997677223;93;1 A
17.085608956863;-0.59991455078125;-0.00946044921875;0.929999997651976;94;1 A
17.0956089568377;-0.5997314453125;-0.009442138671875;0.939999997626728;95;1 A
17.1056089568125;-0.599761962890625;-0.00945129394531249;0.949999997601481;96;1 A
17.1156089567872;-0.599700927734375;-0.009478759765625;0.959999997576233;97;1 A
17.125608956762;-0.599822998046875;-0.0094635009765625;0.969999997550985;98;1 A
17.1356089567367;-0.5997314453125;-0.00942382812500001;0.979999997525738;99;1 A
17.1456089567115;-0.599853515625;-0.0093994140625;0.98999999750049;100;1 A
17.1556089566863;-0.59967041015625;-0.0093841552734375;0.999999997475243;101;1 A
17.165608956661;-0.599853515625;-0.009381103515625;1.00999999745;102;1 A
17.1756089566358;-0.59979248046875;-0.00931396484374999;1.01999999742475;103;1 A
17.1856089566105;-0.599822998046875;-0.00929870605468749;1.0299999973995;104;1 A
17.1956089565853;-0.599761962890625;-0.0093048095703125;1.03999999737425;105;1 A
17.20560895656;-0.599822998046875;-0.00931396484374999;1.049999997349;106;1 A
17.2156089565348;-0.599761962890625;-0.009320068359375;1.05999999732376;107;1 A
17.2256089565095;-0.5997314453125;-0.0093414306640625;1.06999999729851;108;1 A
17.2356089564843;-0.59979248046875;-0.0094024658203125;1.07999999727326;109;1 A
17.245608956459;-0.599884033203125;-0.0094451904296875;1.08999999724801;110;1 A
17.2556089564338;-0.599761962890625;-0.00942077636718749;1.09999999722277;111;1 A
17.2656089564085;-0.599761962890625;-0.009429931640625;1.10999999719752;112;1 A
17.2756089563833;-0.5997314453125;-0.00942382812500001;1.11999999717227;113;1 A
17.285608956358;-0.59979248046875;-0.0094451904296875;1.12999999714702;114;1 A
17.2956089563328;-0.599761962890625;-0.0094329833984375;1.13999999712178;115;1 A
17.3056089563075;-0.599822998046875;-0.0094635009765625;1.14999999709653;116;1 A
17.3156089562823;-0.5997314453125;-0.0095184326171875;1.15999999707128;117;1 A
17.325608956257;-0.5997314453125;-0.00954284667968749;1.16999999704603;118;1 A
17.3356089562318;-0.599761962890625;-0.009539794921875;1.17999999702079;119;1 A
17.3456089562065;-0.5997314453125;-0.0095550537109375;1.18999999699554;120;1 A
17.3556089561813;-0.599700927734375;-0.0095794677734375;1.19999999697029;121;1 A
17.3656089561561;-0.59979248046875;-0.009600830078125;1.20999999694504;122;1 A
17.3756089561308;-0.59979248046875;-0.00954589843750001;1.2199999969198;123;1 A
17.3856089561056;-0.59979248046875;-0.00954589843750001;1.22999999689455;124;1 A
17.3956089560803;-0.599761962890625;-0.00955810546874999;1.2399999968693;125;1 A
17.4056089560551;-0.599822998046875;-0.0095367431640625;1.24999999684405;126;1 A
17.4156089560298;-0.5997314453125;-0.00946655273437499;1.25999999681881;127;1 A
17.4256089560046;-0.599822998046875;-0.0094024658203125;1.26999999679356;128;1 A
17.4356089559793;-0.599761962890625;-0.00937499999999999;1.27999999676831;129;1 A
17.4456089559541;-0.599822998046875;-0.009381103515625;1.28999999674306;130;1 A
17.4556089559288;-0.599761962890625;-0.009356689453125;1.29999999671782;131;1 A
17.4656089559036;-0.599822998046875;-0.00939331054687501;1.30999999669257;132;1 A
17.4756089558783;-0.599761962890625;-0.00941162109375;1.31999999666732;133;1 A
17.4856089558531;-0.599884033203125;-0.009429931640625;1.32999999664207;134;1 A
17.4956089558278;-0.599700927734375;-0.0094146728515625;1.33999999661683;135;1 A
17.5056089558026;-0.599822998046875;-0.0094329833984375;1.34999999659158;136;1 A
17.5156089557773;-0.599761962890625;-0.009478759765625;1.35999999656633;137;1 A
17.5256089557521;-0.599761962890625;-0.00948486328125001;1.36999999654108;138;1 A
17.5356089557268;-0.599761962890625;-0.0094635009765625;1.37999999651583;139;1 A
17.5456089557016;-0.599761962890625;-0.009478759765625;1.38999999649059;140;1 A
17.5556089556763;-0.599761962890625;-0.0094757080078125;1.39999999646534;141;1 A
17.5656089556511;-0.5997314453125;-0.0094879150390625;1.40999999644009;142;1 A
17.5756089556259;-0.599761962890625;-0.00945434570312501;1.41999999641484;143;1 A
17.5856089556006;-0.599761962890625;-0.0094573974609375;1.4299999963896;144;1 A
17.5956089555754;-0.599822998046875;-0.009503173828125;1.43999999636435;145;1 A
17.6056089555501;-0.59979248046875;-0.00954589843750001;1.4499999963391;146;1 A
17.6156089555249;-0.599700927734375;-0.009539794921875;1.45999999631385;147;1 A
17.6256089554996;-0.5997314453125;-0.00954284667968749;1.46999999628861;148;1 A
17.6356089554744;-0.59979248046875;-0.009564208984375;1.47999999626336;149;1 A
17.6456089554491;-0.59979248046875;-0.00958251953125;1.48999999623811;150;1 A
17.6556089554239;-0.59979248046875;-0.0095550537109375;1.49999999621286;151;1 A
17.6656089553986;-0.599822998046875;-0.00956115722656251;1.50999999618762;152;1 A
17.6756089553734;-0.599761962890625;-0.00955810546874999;1.51999999616237;153;1 A
17.6856089553481;-0.599761962890625;-0.0095855712890625;1.52999999613712;154;1 A
17.6956089553229;-0.59979248046875;-0.0095947265625;1.53999999611187;155;1 A
17.7056089552976;-0.599853515625;-0.00963745117187501;1.54999999608663;156;1 A
17.7156089552724;-0.599700927734375;-0.00968017578124999;1.55999999606138;157;1 A
17.7256089552471;-0.599822998046875;-0.0096893310546875;1.56999999603613;158;1 A
17.7356089552219;-0.599761962890625;-0.00966491699218749;1.57999999601088;159;1 A
17.7456089551966;-0.599761962890625;-0.00966491699218749;1.58999999598564;160;1 A
17.7556089551714;-0.599822998046875;-0.00964965820312499;1.59999999596039;161;1 A
17.7656089551461;-0.599761962890625;-0.0096435546875;1.60999999593514;162;1 A
17.7756089551209;-0.59979248046875;-0.0095947265625;1.61999999590989;163;1 A
17.7856089550957;-0.599822998046875;-0.0095947265625;1.62999999588465;164;1 A
17.7956089550704;-0.599822998046875;-0.0096099853515625;1.6399999958594;165;1 A
17.8056089550452;-0.5997314453125;-0.0096160888671875;1.64999999583415;166;1 A
17.8156089550199;-0.59979248046875;-0.0096099853515625;1.6599999958089;167;1 A
17.8256089549947;-0.5997314453125;-0.00960388183593749;1.66999999578366;168;1 A
17.8356089549694;-0.5997314453125;-0.00961914062499999;1.67999999575841;169;1 A
17.8456089549442;-0.5997314453125;-0.009613037109375;1.68999999573316;170;1 A
17.8556089549189;-0.599761962890625;-0.0095550537109375;1.69999999570791;171;1 A
17.8656089548937;-0.599700927734375;-0.0095550537109375;1.70999999568267;172;1 A
17.8756089548684;-0.599761962890625;-0.0095489501953125;1.71999999565742;173;1 A
17.8856089548432;-0.59979248046875;-0.0095672607421875;1.72999999563217;174;1 A
17.8956089548179;-0.599700927734375;-0.00955810546874999;1.73999999560692;175;1 A
17.9056089547927;-0.5997314453125;-0.009564208984375;1.74999999558167;176;1 A
17.9156089547674;-0.599761962890625;-0.0095855712890625;1.75999999555643;177;1 A
17.9256089547422;-0.59979248046875;-0.00958862304687499;1.76999999553118;178;1 A
17.9356089547169;-0.59979248046875;-0.00956115722656251;1.77999999550593;179;1 A
17.9456089546917;-0.5997314453125;-0.0095672607421875;1.78999999548068;180;1 A
17.9556089546664;-0.5997314453125;-0.0095672607421875;1.79999999545544;181;1 A
17.9656089546412;-0.599853515625;-0.009564208984375;1.80999999543019;182;1 A
17.975608954616;-0.59979248046875;-0.00952758789062499;1.81999999540494;183;1 A
17.9856089545907;-0.599884033203125;-0.0095367431640625;1.82999999537969;184;1 A
17.9956089545655;-0.59979248046875;-0.009564208984375;1.83999999535445;185;1 A
18.0056089545402;-0.599761962890625;-0.0095794677734375;1.8499999953292;186;1 A
18.015608954515;-0.599822998046875;-0.00958251953125;1.85999999530395;187;1 A
18.0256089544897;-0.599822998046875;-0.0095977783203125;1.8699999952787;188;1 A
18.0356089544645;-0.5997314453125;-0.0096160888671875;1.87999999525346;189;1 A
18.0456089544392;-0.599761962890625;-0.009613037109375;1.88999999522821;190;1 A
18.055608954414;-0.5997314453125;-0.00954589843750001;1.89999999520296;191;1 A
18.0656089543887;-0.59979248046875;-0.009564208984375;1.90999999517771;192;1 A
18.0756089543635;-0.5997314453125;-0.0095672607421875;1.91999999515247;193;1 A
18.0856089543382;-0.599761962890625;-0.0095672607421875;1.92999999512722;194;1 A
18.095608954313;-0.599761962890625;-0.009539794921875;1.93999999510197;195;1 A
18.1056089542877;-0.5997314453125;-0.009539794921875;1.94999999507672;196;1 A
18.1156089542625;-0.59979248046875;-0.00957641601562501;1.95999999505148;197;1 A
18.1256089542372;-0.5997314453125;-0.00958251953125;1.96999999502623;198;1 A
18.135608954212;-0.599761962890625;-0.009539794921875;1.97999999500098;199;1 A
18.1456089541867;-0.599822998046875;-0.009521484375;1.98999999497573;200;1 A
18.1556089541615;-0.599761962890625;-0.00949707031249999;1.99999999495049;201;1 A
18.1656089541362;-0.5997314453125;-0.00945434570312501;2.00999999492524;202;1 A
18.175608954111;-0.599822998046875;-0.0093658447265625;2.01999999489999;203;1 A
18.1856089540858;-0.599853515625;-0.0093414306640625;2.02999999487474;204;1 A
18.1956089540605;-0.5997314453125;-0.009356689453125;2.0399999948495;205;1 A
18.2056089540353;-0.59979248046875;-0.00935974121093749;2.04999999482425;206;1 A
18.21560895401;-0.59979248046875;-0.0093536376953125;2.059999994799;207;1 A
18.2256089539848;-0.59979248046875;-0.00935974121093749;2.06999999477375;208;1 A
18.2356089539595;-0.5997314453125;-0.009368896484375;2.0799999947485;209;1 A
18.2456089539343;-0.59979248046875;-0.00936279296875001;2.08999999472326;210;1 A
18.255608953909;-0.5997314453125;-0.0093048095703125;2.09999999469801;211;1 A
18.2656089538838;-0.599822998046875;-0.009295654296875;2.10999999467276;212;1 A
18.2756089538585;-0.5997314453125;-0.0092926025390625;2.11999999464751;213;1 A
18.2856089538333;-0.599761962890625;-0.00928344726562499;2.12999999462227;214;1 A
18.295608953808;-0.5997314453125;-0.0092437744140625;2.13999999459702;215;1 A
18.3056089537828;-0.59979248046875;-0.00920715332031249;2.14999999457177;216;1 A
18.3156089537575;-0.5997314453125;-0.009197998046875;2.15999999454652;217;1 A
18.3256089537323;-0.599761962890625;-0.009173583984375;2.16999999452128;218;1 A
18.335608953707;-0.599700927734375;-0.009136962890625;2.17999999449603;219;1 A
18.3456089536818;-0.599700927734375;-0.0091400146484375;2.18999999447078;220;1 A
18.3556089536565;-0.599761962890625;-0.00914611816406249;2.19999999444553;221;1 A
18.3656089536313;-0.599700927734375;-0.00917663574218749;2.20999999442029;222;1 A
18.375608953606;-0.59979248046875;-0.0091522216796875;2.21999999439504;223;1 A
18.3856089535808;-0.599761962890625;-0.0092041015625;2.22999999436979;224;1 A
18.3956089535556;-0.599761962890625;-0.0092620849609375;2.23999999434454;225;1 A
18.4056089535303;-0.5997314453125;-0.00929870605468749;2.2499999943193;226;1 A
18.4156089535051;-0.599700927734375;-0.0093109130859375;2.25999999429405;227;1 A
18.4256089534798;-0.59979248046875;-0.00933227539062501;2.2699999942688;228;1 A
18.4356089534546;-0.59979248046875;-0.0093536376953125;2.27999999424355;229;1 A
18.4456089534293;-0.599761962890625;-0.0093505859375;2.28999999421831;230;1 A
18.4556089534041;-0.59979248046875;-0.00927734375;2.29999999419306;231;1 A
18.4656089533788;-0.59979248046875;-0.00925598144531251;2.30999999416781;232;1 A
18.4756089533536;-0.599761962890625;-0.00924072265625001;2.31999999414256;233;1 A
18.4856089533283;-0.59979248046875;-0.009246826171875;2.32999999411732;234;1 A
18.4956089533031;-0.59979248046875;-0.0092193603515625;2.33999999409207;235;1 A
18.5056089532778;-0.59979248046875;-0.00922546386718751;2.34999999406682;236;1 A
18.5156089532526;-0.599761962890625;-0.00927124023437501;2.35999999404157;237;1 A
18.5256089532273;-0.59979248046875;-0.009307861328125;2.36999999401633;238;1 A
18.5356089532021;-0.5997314453125;-0.0093231201171875;2.37999999399108;239;1 A
18.5456089531768;-0.59979248046875;-0.009356689453125;2.38999999396583;240;1 A
18.5556089531516;-0.599761962890625;-0.0093719482421875;2.39999999394058;241;1 A
18.5656089531263;-0.599761962890625;-0.00938720703125;2.40999999391533;242;1 A
18.5756089531011;-0.599761962890625;-0.0093505859375;2.41999999389009;243;1 A
18.5856089530758;-0.59979248046875;-0.00937805175781251;2.42999999386484;244;1 A
18.5956089530506;-0.5997314453125;-0.0094024658203125;2.43999999383959;245;1 A
18.6056089530254;-0.59967041015625;-0.00937499999999999;2.44999999381434;246;1 A
18.6156089530001;-0.5997314453125;-0.00932922363281249;2.4599999937891;247;1 A
18.6256089529749;-0.599700927734375;-0.0093048095703125;2.46999999376385;248;1 A
18.6356089529496;-0.599761962890625;-0.00931701660156251;2.4799999937386;249;1 A
18.6456089529244;-0.599700927734375;-0.00934448242187499;2.48999999371335;250;1 A
18.6556089528991;-0.599761962890625;-0.0093048095703125;2.49999999368811;251;1 A
18.6656089528739;-0.59979248046875;-0.00930175781250001;2.50999999366286;252;1 A
18.6756089528486;-0.599761962890625;-0.0092803955078125;2.51999999363761;253;1 A
18.6856089528234;-0.59979248046875;-0.00927734375;2.52999999361236;254;1 A
18.6956089527981;-0.5997314453125;-0.009234619140625;2.53999999358712;255;1 A
18.7056089527729;-0.59979248046875;-0.0092132568359375;2.54999999356187;256;1 A
18.7156089527476;-0.599761962890625;-0.00922546386718751;2.55999999353662;257;1 A
18.7256089527224;-0.59979248046875;-0.0092193603515625;2.56999999351137;258;1 A
18.7356089526971;-0.599761962890625;-0.00922241210937499;2.57999999348613;259;1 A
18.7456089526719;-0.599853515625;-0.009259033203125;2.58999999346088;260;1 A
18.7556089526466;-0.599761962890625;-0.00928955078125;2.59999999343563;261;1 A
18.7656089526214;-0.59979248046875;-0.00934448242187499;2.60999999341038;262;1 A
18.7756089525961;-0.599761962890625;-0.00934448242187499;2.61999999338514;263;1 A
18.7856089525709;-0.599822998046875;-0.00941162109375;2.62999999335989;264;1 A
18.7956089525456;-0.599761962890625;-0.0094757080078125;2.63999999333464;265;1 A
18.8056089525204;-0.599761962890625;-0.009521484375;2.64999999330939;266;1 A
18.8156089524952;-0.5997314453125;-0.009539794921875;2.65999999328415;267;1 A
18.8256089524699;-0.599761962890625;-0.009564208984375;2.6699999932589;268;1 A
18.8356089524447;-0.599761962890625;-0.009613037109375;2.67999999323365;269;1 A
18.8456089524194;-0.5997314453125;-0.009625244140625;2.6899999932084;270;1 A
18.8556089523942;-0.599761962890625;-0.009613037109375;2.69999999318316;271;1 A
18.8656089523689;-0.5997314453125;-0.00965270996093751;2.70999999315791;272;1 A
18.8756089523437;-0.59979248046875;-0.00966491699218749;2.71999999313266;273;1 A
18.8856089523184;-0.5997314453125;-0.0096893310546875;2.72999999310741;274;1 A
18.8956089522932;-0.599761962890625;-0.00965576171875;2.73999999308217;275;1 A
18.9056089522679;-0.599700927734375;-0.00965270996093751;2.74999999305692;276;1 A
18.9156089522427;-0.599761962890625;-0.0096710205078125;2.75999999303167;277;1 A
18.9256089522174;-0.599700927734375;-0.00963439941406249;2.76999999300642;278;1 A
18.9356089521922;-0.599761962890625;-0.00960388183593749;2.77999999298117;279;1 A
18.9456089521669;-0.599822998046875;-0.0096160888671875;2.78999999295593;280;1 A
18.9556089521417;-0.599761962890625;-0.0096160888671875;2.79999999293068;281;1 A
18.9656089521164;-0.599761962890625;-0.00963745117187501;2.80999999290543;282;1 A
18.9756089520912;-0.5997314453125;-0.0095855712890625;2.81999999288018;283;1 A
18.9856089520659;-0.599853515625;-0.0095947265625;2.82999999285494;284;1 A
18.9956089520407;-0.5997314453125;-0.0095794677734375;2.83999999282969;285;1 A
19.0056089520155;-0.59979248046875;-0.0095977783203125;2.84999999280444;286;1 A
19.0156089519902;-0.599700927734375;-0.00957641601562501;2.85999999277919;287;1 A
19.025608951965;-0.59979248046875;-0.00955810546874999;2.86999999275395;288;1 A
19.0356089519397;-0.599761962890625;-0.0095489501953125;2.8799999927287;289;1 A
19.0456089519145;-0.59979248046875;-0.00953063964843751;2.88999999270345;290;1 A
19.0556089518892;-0.5997314453125;-0.0094879150390625;2.8999999926782;291;1 A
19.065608951864;-0.599822998046875;-0.0094940185546875;2.90999999265296;292;1 A
19.0756089518387;-0.599700927734375;-0.00949707031249999;2.91999999262771;293;1 A
19.0856089518135;-0.59967041015625;-0.0095184326171875;2.92999999260246;294;1 A
19.0956089517882;-0.5997314453125;-0.0094879150390625;2.93999999257721;295;1 A
19.105608951763;-0.5997314453125;-0.00950012207031251;2.94999999255197;296;1 A
19.1156089517377;-0.599761962890625;-0.0095184326171875;2.95999999252672;297;1 A
19.1256089517125;-0.59967041015625;-0.009490966796875;2.96999999250147;298;1 A
19.1356089516872;-0.5997314453125;-0.0094451904296875;2.97999999247622;299;1 A
19.145608951662;-0.5997314453125;-0.00942077636718749;2.98999999245098;300;1 A
19.1556089516367;-0.599761962890625;-0.0094146728515625;2.99999999242573;301;1 A
19.1656089516115;-0.5997314453125;-0.00943603515624999;3.00999999240048;302;1 A
19.1756089515862;-0.59979248046875;-0.00940551757812499;3.01999999237523;303;1 A
19.185608951561;-0.599822998046875;-0.00943908691406251;3.02999999234999;304;1 A
19.1956089515357;-0.5997314453125;-0.00946960449218751;3.03999999232474;305;1 A
19.2056089515105;-0.59979248046875;-0.00948486328125001;3.04999999229949;306;1 A
19.2156089514853;-0.5997314453125;-0.00946960449218751;3.05999999227424;307;1 A
19.22560895146;-0.599822998046875;-0.00946044921875;3.069999992249;308;1 A
19.2356089514348;-0.599700927734375;-0.0094879150390625;3.07999999222375;309;1 A
19.2456089514095;-0.599822998046875;-0.00949707031249999;3.0899999921985;310;1 A
19.2556089513843;-0.59967041015625;-0.0095062255859375;3.09999999217325;311;1 A
19.265608951359;-0.599822998046875;-0.00958251953125;3.109999992148;312;1 A
19.2756089513338;-0.5997314453125;-0.009625244140625;3.11999999212276;313;1 A
19.2856089513085;-0.59979248046875;-0.0096771240234375;3.12999999209751;314;1 A
19.2956089512833;-0.59979248046875;-0.00965270996093751;3.13999999207226;315;1 A
19.305608951258;-0.59979248046875;-0.0096466064453125;3.14999999204701;316;1 A
19.3156089512328;-0.5997314453125;-0.0096588134765625;3.15999999202177;317;1 A
19.3256089512075;-0.5997314453125;-0.00963439941406249;3.16999999199652;318;1 A
19.3356089511823;-0.59979248046875;-0.0095947265625;3.17999999197127;319;1 A
19.345608951157;-0.599822998046875;-0.0095703125;3.18999999194602;320;1 A
19.3556089511318;-0.599761962890625;-0.00956115722656251;3.19999999192078;321;1 A
19.3656089511065;-0.59979248046875;-0.009564208984375;3.20999999189553;322;1 A
19.3756089510813;-0.5997314453125;-0.00952758789062499;3.21999999187028;323;1 A
19.385608951056;-0.59979248046875;-0.009539794921875;3.22999999184503;324;1 A
19.3956089510308;-0.599822998046875;-0.00954284667968749;3.23999999181979;325;1 A
19.4056089510055;-0.599700927734375;-0.0095367431640625;3.24999999179454;326;1 A
19.4156089509803;-0.5997314453125;-0.00951232910156249;3.25999999176929;327;1 A
19.4256089509551;-0.599761962890625;-0.00948486328125001;3.26999999174404;328;1 A
19.4356089509298;-0.5997314453125;-0.00948486328125001;3.2799999917188;329;1 A
19.4456089509046;-0.5997314453125;-0.00945434570312501;3.28999999169355;330;1 A
19.4556089508793;-0.5997314453125;-0.00939331054687501;3.2999999916683;331;1 A
19.4656089508541;-0.599853515625;-0.00938720703125;3.30999999164305;332;1 A
19.4756089508288;-0.599761962890625;-0.0093658447265625;3.31999999161781;333;1 A
19.4856089508036;-0.599761962890625;-0.00937499999999999;3.32999999159256;334;1 A
19.4956089507783;-0.5997314453125;-0.00933227539062501;3.33999999156731;335;1 A
19.5056089507531;-0.599853515625;-0.00933837890625;3.34999999154206;336;1 A
19.5156089507278;-0.5997314453125;-0.0093658447265625;3.35999999151682;337;1 A
19.5256089507026;-0.599761962890625;-0.009368896484375;3.36999999149157;338;1 A
19.5356089506773;-0.5997314453125;-0.0093505859375;3.37999999146632;339;1 A
19.5456089506521;-0.59979248046875;-0.00934753417968751;3.38999999144107;340;1 A
19.5556089506268;-0.599761962890625;-0.0093505859375;3.39999999141583;341;1 A
19.5656089506016;-0.599700927734375;-0.009356689453125;3.40999999139058;342;1 A
19.5756089505763;-0.5997314453125;-0.009295654296875;3.41999999136533;343;1 A
19.5856089505511;-0.5997314453125;-0.00926818847656249;3.42999999134008;344;1 A
19.5956089505258;-0.5997314453125;-0.00922241210937499;3.43999999131483;345;1 A
19.6056089505006;-0.599578857421875;-0.00917968750000001;3.44999999128959;346;1 A
19.6156089504753;-0.599761962890625;-0.0091217041015625;3.45999999126434;347;1 A
19.6256089504501;-0.599700927734375;-0.0090972900390625;3.46999999123909;348;1 A
19.6356089504249;-0.599761962890625;-0.00913391113281251;3.47999999121384;349;1 A
19.6456089503996;-0.59967041015625;-0.00917663574218749;3.4899999911886;350;1 A
19.6556089503744;-0.599761962890625;-0.009185791015625;3.49999999116335;351;1 A
19.6656089503491;-0.5997314453125;-0.00922241210937499;3.5099999911381;352;1 A
19.6756089503239;-0.5997314453125;-0.0092498779296875;3.51999999111285;353;1 A
19.6856089502986;-0.599700927734375;-0.00930175781250001;3.52999999108761;354;1 A
19.6956089502734;-0.5997314453125;-0.00926818847656249;3.53999999106236;355;1 A
19.7056089502481;-0.599822998046875;-0.00927124023437501;3.54999999103711;356;1 A
19.7156089502229;-0.5997314453125;-0.00928955078125;3.55999999101186;357;1 A
19.7256089501976;-0.599761962890625;-0.0093109130859375;3.56999999098662;358;1 A
19.7356089501724;-0.599761962890625;-0.0093109130859375;3.57999999096137;359;1 A
19.7456089501471;-0.599853515625;-0.0093109130859375;3.58999999093612;360;1 A
19.7556089501219;-0.599761962890625;-0.009295654296875;3.59999999091087;361;1 A
19.7656089500966;-0.5997314453125;-0.00928649902343751;3.60999999088563;362;1 A
19.7756089500714;-0.5997314453125;-0.00925292968749999;3.61999999086038;363;1 A
19.7856089500461;-0.599822998046875;-0.0092803955078125;3.62999999083513;364;1 A
19.7956089500209;-0.59979248046875;-0.009295654296875;3.63999999080988;365;1 A
19.8056089499956;-0.599884033203125;-0.009320068359375;3.64999999078464;366;1 A
19.8156089499704;-0.599761962890625;-0.00932922363281249;3.65999999075939;367;1 A
19.8256089499451;-0.59979248046875;-0.0093658447265625;3.66999999073414;368;1 A
19.8356089499199;-0.59979248046875;-0.00941162109375;3.67999999070889;369;1 A
19.8456089498947;-0.599700927734375;-0.0093994140625;3.68999999068365;370;1 A
19.8556089498694;-0.59979248046875;-0.0093109130859375;3.6999999906584;371;1 A
19.8656089498442;-0.5997314453125;-0.00925598144531251;3.70999999063315;372;1 A
19.8756089498189;-0.599853515625;-0.009228515625;3.7199999906079;373;1 A
19.8856089497937;-0.599700927734375;-0.009246826171875;3.72999999058266;374;1 A
19.8956089497684;-0.599761962890625;-0.009228515625;3.73999999055741;375;1 A
19.9056089497432;-0.5997314453125;-0.0092620849609375;3.74999999053216;376;1 A
19.9156089497179;-0.59979248046875;-0.009295654296875;3.75999999050691;377;1 A
19.9256089496927;-0.59967041015625;-0.009307861328125;3.76999999048167;378;1 A
19.9356089496674;-0.5997314453125;-0.00928955078125;3.77999999045642;379;1 A
19.9456089496422;-0.599822998046875;-0.00928955078125;3.78999999043117;380;1 A
19.9556089496169;-0.59979248046875;-0.0092926025390625;3.79999999040592;381;1 A
19.9656089495917;-0.59967041015625;-0.00928955078125;3.80999999038067;382;1 A
19.9756089495664;-0.59979248046875;-0.0092498779296875;3.81999999035543;383;1 A
19.9856089495412;-0.599853515625;-0.00925292968749999;3.82999999033018;384;1 A
19.9956089495159;-0.599761962890625;-0.0092620849609375;3.83999999030493;385;1 A
20.0056089494907;-0.599822998046875;-0.00927734375;3.84999999027968;386;1 A
20.0156089494654;-0.599761962890625;-0.009259033203125;3.85999999025444;387;1 A
20.0256089494402;-0.599822998046875;-0.00927734375;3.86999999022919;388;1 A
20.035608949415;-0.59979248046875;-0.009295654296875;3.87999999020394;389;1 A
20.0456089493897;-0.599761962890625;-0.00928955078125;3.88999999017869;390;1 A
20.0556089493645;-0.5997314453125;-0.00923767089843749;3.89999999015345;391;1 A
20.0656089493392;-0.599853515625;-0.0092193603515625;3.9099999901282;392;1 A
20.075608949314;-0.599761962890625;-0.00920715332031249;3.91999999010295;393;1 A
20.0856089492887;-0.59967041015625;-0.00921630859375;3.9299999900777;394;1 A
20.0956089492635;-0.599700927734375;-0.0091888427734375;3.93999999005246;395;1 A
20.1056089492382;-0.5997314453125;-0.0092041015625;3.94999999002721;396;1 A
20.115608949213;-0.59979248046875;-0.0092498779296875;3.95999999000196;397;1 A
20.1256089491877;-0.599639892578125;-0.0092742919921875;3.96999998997671;398;1 A
20.1356089491625;-0.5997314453125;-0.00928344726562499;3.97999998995147;399;1 A
20.1456089491372;-0.599761962890625;-0.0093109130859375;3.98999998992622;400;1 A
20.155608949112;-0.59979248046875;-0.00933227539062501;3.99999998990097;401;1 A
20.1656089490867;-0.59967041015625;-0.00933837890625;4.00999998987572;402;1 A
20.1756089490615;-0.599761962890625;-0.00927734375;4.01999998985048;403;1 A
20.1856089490362;-0.5997314453125;-0.009259033203125;4.02999998982523;404;1 A
20.195608949011;-0.59979248046875;-0.009228515625;4.03999998979998;405;1 A
20.2056089489857;-0.599761962890625;-0.0091827392578125;4.04999998977473;406;1 A
20.2156089489605;-0.599822998046875;-0.00910034179687499;4.05999998974949;407;1 A
20.2256089489352;-0.599853515625;-0.00903930664062499;4.06999998972424;408;1 A
20.23560894891;-0.599761962890625;-0.0090362548828125;4.07999998969899;409;1 A
20.2456089488848;-0.599761962890625;-0.0090484619140625;4.08999998967374;410;1 A
20.2556089488595;-0.59979248046875;-0.00905456542968749;4.0999999896485;411;1 A
20.2656089488343;-0.599822998046875;-0.0091094970703125;4.10999998962325;412;1 A
20.275608948809;-0.59979248046875;-0.00914611816406249;4.119999989598;413;1 A
20.2856089487838;-0.5997314453125;-0.0091888427734375;4.12999998957275;414;1 A
20.2956089487585;-0.5997314453125;-0.0091583251953125;4.1399999895475;415;1 A
20.3056089487333;-0.599822998046875;-0.00914306640625;4.14999998952226;416;1 A
20.315608948708;-0.59979248046875;-0.009136962890625;4.15999998949701;417;1 A
20.3256089486828;-0.599700927734375;-0.0091400146484375;4.16999998947176;418;1 A
20.3356089486575;-0.599761962890625;-0.0090972900390625;4.17999998944651;419;1 A
20.3456089486323;-0.599700927734375;-0.00908203125;4.18999998942127;420;1 A
20.355608948607;-0.599761962890625;-0.0090789794921875;4.19999998939602;421;1 A
20.3656089485818;-0.599609375;-0.00908813476562501;4.20999998937077;422;1 A
20.3756089485565;-0.599761962890625;-0.0090484619140625;4.21999998934552;423;1 A
20.3856089485313;-0.5997314453125;-0.00906982421874999;4.22999998932028;424;1 A
20.395608948506;-0.5997314453125;-0.00910034179687499;4.23999998929503;425;1 A
20.4056089484808;-0.599639892578125;-0.009112548828125;4.24999998926978;426;1 A
20.4156089484555;-0.599700927734375;-0.0090972900390625;4.25999998924453;427;1 A
20.4256089484303;-0.59979248046875;-0.00911865234375001;4.26999998921929;428;1 A
20.435608948405;-0.5997314453125;-0.00914916992187501;4.27999998919404;429;1 A
20.4456089483798;-0.599761962890625;-0.00914306640625;4.28999998916879;430;1 A
20.4556089483546;-0.59979248046875;-0.00908813476562501;4.29999998914354;431;1 A
20.4656089483293;-0.599822998046875;-0.00908203125;4.3099999891183;432;1 A
20.4756089483041;-0.599761962890625;-0.00907287597656251;4.31999998909305;433;1 A
20.4856089482788;-0.5997314453125;-0.00908813476562501;4.3299999890678;434;1 A
20.4956089482536;-0.59979248046875;-0.00905456542968749;4.33999998904255;435;1 A
20.5056089482283;-0.599884033203125;-0.00905761718750001;4.34999998901731;436;1 A
20.5156089482031;-0.599761962890625;-0.00908813476562501;4.35999998899206;437;1 A
20.5256089481778;-0.599761962890625;-0.00911865234375001;4.36999998896681;438;1 A
20.5356089481526;-0.599822998046875;-0.0091400146484375;4.37999998894156;439;1 A
20.5456089481273;-0.59979248046875;-0.00917968750000001;4.38999998891632;440;1 A
20.5556089481021;-0.599761962890625;-0.00921630859375;4.39999998889107;441;1 A
20.5656089480768;-0.5997314453125;-0.0092620849609375;4.40999998886582;442;1 A
20.5756089480516;-0.599700927734375;-0.009246826171875;4.41999998884057;443;1 A
20.5856089480263;-0.599761962890625;-0.00927734375;4.42999998881533;444;1 A
20.5956089480011;-0.5997314453125;-0.009307861328125;4.43999998879008;445;1 A
20.6056089479758;-0.59967041015625;-0.0093231201171875;4.44999998876483;446;1 A
20.6156089479506;-0.599822998046875;-0.0093048095703125;4.45999998873958;447;1 A
20.6256089479253;-0.5997314453125;-0.0093109130859375;4.46999998871433;448;1 A
20.6356089479001;-0.599822998046875;-0.0093505859375;4.47999998868909;449;1 A
20.6456089478748;-0.5997314453125;-0.00938720703125;4.48999998866384;450;1 A
20.6556089478496;-0.5997314453125;-0.0093719482421875;4.49999998863859;451;1 A
20.6656089478244;-0.599822998046875;-0.00942077636718749;4.50999998861334;452;1 A
20.6756089477991;-0.599822998046875;-0.00946044921875;4.5199999885881;453;1 A
20.6856089477739;-0.59967041015625;-0.0095062255859375;4.52999998856285;454;1 A
20.6956089477486;-0.599822998046875;-0.0094940185546875;4.5399999885376;455;1 A
20.7056089477234;-0.59979248046875;-0.00949707031249999;4.54999998851235;456;1 A
20.7156089476981;-0.599761962890625;-0.0095367431640625;4.55999998848711;457;1 A
20.7256089476729;-0.599761962890625;-0.00952758789062499;4.56999998846186;458;1 A
20.7356089476476;-0.59979248046875;-0.00948486328125001;4.57999998843661;459;1 A
20.7456089476224;-0.59979248046875;-0.00946044921875;4.58999998841136;460;1 A
20.7556089475971;-0.5997314453125;-0.0094635009765625;4.59999998838612;461;1 A
20.7656089475719;-0.599761962890625;-0.00947265625;4.60999998836087;462;1 A
20.7756089475466;-0.5997314453125;-0.009429931640625;4.61999998833562;463;1 A
20.7856089475214;-0.599822998046875;-0.009429931640625;4.62999998831037;464;1 A
20.7956089474961;-0.5997314453125;-0.00942077636718749;4.63999998828513;465;1 A
20.8056089474709;-0.599700927734375;-0.00939331054687501;4.64999998825988;466;1 A
20.8156089474456;-0.599761962890625;-0.00933227539062501;4.65999998823463;467;1 A
20.8256089474204;-0.599761962890625;-0.00926513671875;4.66999998820938;468;1 A
20.8356089473951;-0.599700927734375;-0.00922546386718751;4.67999998818414;469;1 A
20.8456089473699;-0.599609375;-0.00917968750000001;4.68999998815889;470;1 A
20.8556089473446;-0.59979248046875;-0.0091094970703125;4.69999998813364;471;1 A
20.8656089473194;-0.599700927734375;-0.00911560058593749;4.70999998810839;472;1 A
20.8756089472942;-0.5997314453125;-0.009124755859375;4.71999998808315;473;1 A
20.8856089472689;-0.59967041015625;-0.00914916992187501;4.7299999880579;474;1 A
20.8956089472437;-0.5997314453125;-0.0090972900390625;4.73999998803265;475;1 A
20.9056089472184;-0.599761962890625;-0.009051513671875;4.7499999880074;476;1 A
20.9156089471932;-0.599761962890625;-0.00903930664062499;4.75999998798216;477;1 A
20.9256089471679;-0.59967041015625;-0.00902404785156249;4.76999998795691;478;1 A
20.9356089471427;-0.5997314453125;-0.00902709960937501;4.77999998793166;479;1 A
20.9456089471174;-0.59979248046875;-0.0090667724609375;4.78999998790641;480;1 A
20.9556089470922;-0.599853515625;-0.0091278076171875;4.79999998788116;481;1 A
20.9656089470669;-0.599700927734375;-0.009197998046875;4.80999998785592;482;1 A
20.9756089470417;-0.5997314453125;-0.0092010498046875;4.81999998783067;483;1 A
20.9856089470164;-0.599822998046875;-0.0092498779296875;4.82999998780542;484;1 A
20.9956089469912;-0.59979248046875;-0.0092803955078125;4.83999998778017;485;1 A
21.0056089469659;-0.599822998046875;-0.00929870605468749;4.84999998775493;486;1 A
21.0156089469407;-0.59979248046875;-0.0092803955078125;4.85999998772968;487;1 A
21.0256089469154;-0.59979248046875;-0.00928955078125;4.86999998770443;488;1 A
21.0356089468902;-0.5997314453125;-0.00934448242187499;4.87999998767918;489;1 A
21.0456089468649;-0.5997314453125;-0.0093841552734375;4.88999998765394;490;1 A
21.0556089468397;-0.599761962890625;-0.009356689453125;4.89999998762869;491;1 A
21.0656089468145;-0.599761962890625;-0.009381103515625;4.90999998760344;492;1 A
21.0756089467892;-0.599700927734375;-0.00939025878906249;4.91999998757819;493;1 A
21.085608946764;-0.599700927734375;-0.00942077636718749;4.92999998755295;494;1 A
21.0956089467387;-0.599761962890625;-0.0094024658203125;4.9399999875277;495;1 A
21.1056089467135;-0.59979248046875;-0.00940551757812499;4.94999998750245;496;1 A
21.1156089466882;-0.599761962890625;-0.0094329833984375;4.9599999874772;497;1 A
21.125608946663;-0.59967041015625;-0.00945129394531249;4.96999998745196;498;1 A
21.1356089466377;-0.599761962890625;-0.0094482421875;4.97999998742671;499;1 A
21.1456089466125;-0.5997314453125;-0.0094635009765625;4.98999998740146;500;1 A
21.1556089465872;-0.599853515625;-0.00948181152343749;4.99999998737621;501;1 A
21.165608946562;-0.5997314453125;-0.009521484375;5.00999998735097;502;1 A
21.1756089465367;-0.599761962890625;-0.00949707031249999;5.01999998732572;503;1 A
21.1856089465115;-0.59979248046875;-0.009539794921875;5.02999998730047;504;1 A
21.1956089464862;-0.599761962890625;-0.0095672607421875;5.03999998727522;505;1 A
21.205608946461;-0.599700927734375;-0.0095703125;5.04999998724998;506;1 A
21.2156089464357;-0.59979248046875;-0.00953369140625;5.05999998722473;507;1 A
21.2256089464105;-0.59991455078125;-0.0095062255859375;5.06999998719948;508;1 A
21.2356089463852;-0.5997314453125;-0.0095184326171875;5.07999998717423;509;1 A
21.24560894636;-0.599761962890625;-0.00950012207031251;5.08999998714899;510;1 A
21.2556089463347;-0.5997314453125;-0.009429931640625;5.09999998712374;511;1 A
21.2656089463095;-0.599822998046875;-0.00941162109375;5.10999998709849;512;1 A
21.2756089462843;-0.599761962890625;-0.00938720703125;5.11999998707324;513;1 A
21.285608946259;-0.5997314453125;-0.0093841552734375;5.129999987048;514;1 A
21.2956089462338;-0.599700927734375;-0.0093231201171875;5.13999998702275;515;1 A
21.3056089462085;-0.599822998046875;-0.0093109130859375;5.1499999869975;516;1 A
21.3156089461833;-0.59979248046875;-0.0093109130859375;5.15999998697225;517;1 A
21.325608946158;-0.59967041015625;-0.00927734375;5.169999986947;518;1 A
21.3356089461328;-0.59979248046875;-0.00922241210937499;5.17999998692176;519;1 A
21.3456089461075;-0.59979248046875;-0.0091705322265625;5.18999998689651;520;1 A
21.3556089460823;-0.5997314453125;-0.009124755859375;5.19999998687126;521;1 A
21.365608946057;-0.599639892578125;-0.0090911865234375;5.20999998684601;522;1 A
21.3756089460318;-0.5997314453125;-0.0090057373046875;5.21999998682077;523;1 A
21.3856089460065;-0.599761962890625;-0.009014892578125;5.22999998679552;524;1 A
21.3956089459813;-0.5997314453125;-0.00902404785156249;5.23999998677027;525;1 A
21.405608945956;-0.59967041015625;-0.0090484619140625;5.24999998674502;526;1 A
21.4156089459308;-0.599761962890625;-0.0090362548828125;5.25999998671978;527;1 A
21.4256089459055;-0.599761962890625;-0.0090362548828125;5.26999998669453;528;1 A
21.4356089458803;-0.59979248046875;-0.009063720703125;5.27999998666928;529;1 A
21.445608945855;-0.599700927734375;-0.009063720703125;5.28999998664403;530;1 A
21.4556089458298;-0.59979248046875;-0.00900878906249999;5.29999998661879;531;1 A
21.4656089458045;-0.599761962890625;-0.00897827148437499;5.30999998659354;532;1 A
21.4756089457793;-0.5997314453125;-0.00895080566406251;5.31999998656829;533;1 A
21.4856089457541;-0.599761962890625;-0.0089752197265625;5.32999998654304;534;1 A
21.4956089457288;-0.59979248046875;-0.00893249511718749;5.3399999865178;535;1 A
21.5056089457036;-0.599853515625;-0.0089263916015625;5.34999998649255;536;1 A
21.5156089456783;-0.599700927734375;-0.00893249511718749;5.3599999864673;537;1 A
21.5256089456531;-0.599700927734375;-0.0089141845703125;5.36999998644205;538;1 A
21.5356089456278;-0.5997314453125;-0.00888671874999999;5.37999998641681;539;1 A
21.5456089456026;-0.59979248046875;-0.00887145996093749;5.38999998639156;540;1 A
21.5556089455773;-0.5997314453125;-0.008868408203125;5.39999998636631;541;1 A
21.5656089455521;-0.599639892578125;-0.00885620117187499;5.40999998634106;542;1 A
21.5756089455268;-0.599761962890625;-0.0087890625;5.41999998631582;543;1 A
21.5856089455016;-0.59979248046875;-0.00878295898437501;5.42999998629057;544;1 A
21.5956089454763;-0.599761962890625;-0.0087738037109375;5.43999998626532;545;1 A
21.6056089454511;-0.59967041015625;-0.00878295898437501;5.44999998624007;546;1 A
21.6156089454258;-0.5997314453125;-0.00878295898437501;5.45999998621483;547;1 A
21.6256089454006;-0.599639892578125;-0.00881042480468749;5.46999998618958;548;1 A
21.6356089453753;-0.599822998046875;-0.00887451171875001;5.47999998616433;549;1 A
21.6456089453501;-0.599639892578125;-0.0089111328125;5.48999998613908;550;1 A
21.6556089453248;-0.599761962890625;-0.0089141845703125;5.49999998611383;551;1 A
21.6656089452996;-0.59979248046875;-0.00896606445312501;5.50999998608859;552;1 A
21.6756089452743;-0.59979248046875;-0.00902099609375;5.51999998606334;553;1 A
21.6856089452491;-0.599700927734375;-0.00909423828125;5.52999998603809;554;1 A
21.6956089452239;-0.599761962890625;-0.00908508300781249;5.53999998601284;555;1 A
21.7056089451986;-0.59979248046875;-0.0091064453125;5.5499999859876;556;1 A
21.7156089451734;-0.599700927734375;-0.00913085937499999;5.55999998596235;557;1 A
21.7256089451481;-0.599700927734375;-0.0091278076171875;5.5699999859371;558;1 A
21.7356089451229;-0.599761962890625;-0.0090911865234375;5.57999998591185;559;1 A
21.7456089450976;-0.599822998046875;-0.00908508300781249;5.58999998588661;560;1 A
21.7556089450724;-0.5997314453125;-0.00911560058593749;5.59999998586136;561;1 A
21.7656089450471;-0.599700927734375;-0.00914611816406249;5.60999998583611;562;1 A
21.7756089450219;-0.599761962890625;-0.00913391113281251;5.61999998581086;563;1 A
21.7856089449966;-0.59979248046875;-0.00916442871093751;5.62999998578562;564;1 A
21.7956089449714;-0.59979248046875;-0.00916137695312499;5.63999998576037;565;1 A
21.8056089449461;-0.59967041015625;-0.0091705322265625;5.64999998573512;566;1 A
21.8156089449209;-0.599761962890625;-0.00913391113281251;5.65999998570987;567;1 A
21.8256089448956;-0.59979248046875;-0.00911865234375001;5.66999998568463;568;1 A
21.8356089448704;-0.5997314453125;-0.00914306640625;5.67999998565938;569;1 A
21.8456089448451;-0.599609375;-0.00916442871093751;5.68999998563413;570;1 A
21.8556089448199;-0.599761962890625;-0.0091552734375;5.69999998560888;571;1 A
21.8656089447946;-0.599700927734375;-0.009173583984375;5.70999998558364;572;1 A
21.8756089447694;-0.59979248046875;-0.009197998046875;5.71999998555839;573;1 A
21.8856089447441;-0.599700927734375;-0.0092437744140625;5.72999998553314;574;1 A
21.8956089447189;-0.599761962890625;-0.0092315673828125;5.73999998550789;575;1 A
21.9056089446937;-0.5997314453125;-0.00925292968749999;5.74999998548265;576;1 A
21.9156089446684;-0.59967041015625;-0.00928649902343751;5.7599999854574;577;1 A
21.9256089446432;-0.5997314453125;-0.00931396484374999;5.76999998543215;578;1 A
21.9356089446179;-0.599761962890625;-0.00931396484374999;5.7799999854069;579;1 A
21.9456089445927;-0.599853515625;-0.009326171875;5.78999998538166;580;1 A
21.9556089445674;-0.599761962890625;-0.0093353271484375;5.79999998535641;581;1 A
21.9656089445422;-0.599700927734375;-0.00933837890625;5.80999998533116;582;1 A
21.9756089445169;-0.599761962890625;-0.00931396484374999;5.81999998530591;583;1 A
21.9856089444917;-0.599853515625;-0.00933227539062501;5.82999998528066;584;1 A
21.9956089444664;-0.59979248046875;-0.00934753417968751;5.83999998525542;585;1 A
22.0056089444412;-0.599700927734375;-0.0093658447265625;5.84999998523017;586;1 A
22.0156089444159;-0.599853515625;-0.0093353271484375;5.85999998520492;587;1 A
22.0256089443907;-0.5997314453125;-0.00933227539062501;5.86999998517967;588;1 A
22.0356089443654;-0.59979248046875;-0.009356689453125;5.87999998515443;589;1 A
22.0456089443402;-0.599639892578125;-0.0093505859375;5.88999998512918;590;1 A
22.0556089443149;-0.5997314453125;-0.00933837890625;5.89999998510393;591;1 A
22.0656089442897;-0.59979248046875;-0.009368896484375;5.90999998507868;592;1 A
22.0756089442644;-0.59979248046875;-0.00940856933593751;5.91999998505344;593;1 A
22.0856089442392;-0.59967041015625;-0.0094635009765625;5.92999998502819;594;1 A
22.095608944214;-0.599761962890625;-0.0094573974609375;5.93999998500294;595;1 A
22.1056089441887;-0.5997314453125;-0.00950927734375;5.94999998497769;596;1 A
22.1156089441635;-0.5997314453125;-0.0095367431640625;5.95999998495245;597;1 A
22.1256089441382;-0.599639892578125;-0.009521484375;5.9699999849272;598;1 A
22.135608944113;-0.5997314453125;-0.00948181152343749;5.97999998490195;599;1 A
22.1456089440877;-0.599822998046875;-0.0094573974609375;5.9899999848767;600;1 A
22.1556089440625;-0.599761962890625;-0.00946044921875;5.99999998485146;601;1 A
22.1656089440372;-0.599700927734375;-0.00946044921875;6.00999998482621;602;1 A
22.175608944012;-0.59979248046875;-0.0094146728515625;6.01999998480096;603;1 A
22.1856089439867;-0.599822998046875;-0.0094024658203125;6.02999998477571;604;1 A
22.1956089439615;-0.599761962890625;-0.00935974121093749;6.03999998475047;605;1 A
22.2056089439362;-0.599700927734375;-0.0093505859375;6.04999998472522;606;1 A
22.215608943911;-0.599761962890625;-0.0093231201171875;6.05999998469997;607;1 A
22.2256089438857;-0.599822998046875;-0.0093414306640625;6.06999998467472;608;1 A
22.2356089438605;-0.599761962890625;-0.00937805175781251;6.07999998464948;609;1 A
22.2456089438352;-0.599700927734375;-0.00937499999999999;6.08999998462423;610;1 A
22.25560894381;-0.5997314453125;-0.009356689453125;6.09999998459898;611;1 A
22.2656089437847;-0.5997314453125;-0.0093963623046875;6.10999998457373;612;1 A
22.2756089437595;-0.59979248046875;-0.0094329833984375;6.11999998454849;613;1 A
22.2856089437342;-0.599609375;-0.00946960449218751;6.12999998452324;614;1 A
22.295608943709;-0.59979248046875;-0.009442138671875;6.13999998449799;615;1 A
22.3056089436838;-0.599761962890625;-0.00945434570312501;6.14999998447274;616;1 A
22.3156089436585;-0.59979248046875;-0.00946960449218751;6.1599999844475;617;1 A
22.3256089436333;-0.599700927734375;-0.00948181152343749;6.16999998442225;618;1 A
22.335608943608;-0.59979248046875;-0.009478759765625;6.179999984397;619;1 A
22.3456089435828;-0.599761962890625;-0.00946655273437499;6.18999998437175;620;1 A
22.3556089435575;-0.59979248046875;-0.00949707031249999;6.1999999843465;621;1 A
22.3656089435323;-0.5997314453125;-0.009521484375;6.20999998432126;622;1 A
22.375608943507;-0.599761962890625;-0.00952758789062499;6.21999998429601;623;1 A
22.3856089434818;-0.5997314453125;-0.0095245361328125;6.22999998427076;624;1 A
22.3956089434565;-0.599700927734375;-0.009521484375;6.23999998424551;625;1 A
22.4056089434313;-0.59967041015625;-0.0095184326171875;6.24999998422027;626;1 A
22.415608943406;-0.599761962890625;-0.0094573974609375;6.25999998419502;627;1 A
22.4256089433808;-0.599853515625;-0.0094451904296875;6.26999998416977;628;1 A
22.4356089433555;-0.59979248046875;-0.00948486328125001;6.27999998414452;629;1 A
22.4456089433303;-0.599700927734375;-0.00948486328125001;6.28999998411928;630;1 A
22.455608943305;-0.59967041015625;-0.0094451904296875;6.29999998409403;631;1 A
22.4656089432798;-0.59979248046875;-0.0094482421875;6.30999998406878;632;1 A
22.4756089432545;-0.599761962890625;-0.00946044921875;6.31999998404353;633;1 A
22.4856089432293;-0.599700927734375;-0.00947265625;6.32999998401829;634;1 A
22.495608943204;-0.59979248046875;-0.009417724609375;6.33999998399304;635;1 A
22.5056089431788;-0.599853515625;-0.0093963623046875;6.34999998396779;636;1 A
22.5156089431536;-0.5997314453125;-0.00938720703125;6.35999998394254;637;1 A
22.5256089431283;-0.59967041015625;-0.0093658447265625;6.3699999839173;638;1 A
22.5356089431031;-0.599761962890625;-0.009320068359375;6.37999998389205;639;1 A
22.5456089430778;-0.5997314453125;-0.00930175781250001;6.3899999838668;640;1 A
22.5556089430526;-0.5997314453125;-0.00933837890625;6.39999998384155;641;1 A
22.5656089430273;-0.599609375;-0.00937805175781251;6.40999998381631;642;1 A
22.5756089430021;-0.59979248046875;-0.00934753417968751;6.41999998379106;643;1 A
22.5856089429768;-0.599761962890625;-0.0093505859375;6.42999998376581;644;1 A
22.5956089429516;-0.5997314453125;-0.0093414306640625;6.43999998374056;645;1 A
22.6056089429263;-0.599700927734375;-0.0093353271484375;6.44999998371532;646;1 A
22.6156089429011;-0.599761962890625;-0.00928649902343751;6.45999998369007;647;1 A
22.6256089428758;-0.599761962890625;-0.00927124023437501;6.46999998366482;648;1 A
22.6356089428506;-0.5997314453125;-0.0092926025390625;6.47999998363957;649;1 A
22.6456089428253;-0.59967041015625;-0.00930175781250001;6.48999998361433;650;1 A
22.6556089428001;-0.599761962890625;-0.0093048095703125;6.49999998358908;651;1 A
22.6656089427748;-0.599884033203125;-0.00932922363281249;6.50999998356383;652;1 A
22.6756089427496;-0.5997314453125;-0.00934448242187499;6.51999998353858;653;1 A
22.6856089427243;-0.599700927734375;-0.009356689453125;6.52999998351333;654;1 A
22.6956089426991;-0.59979248046875;-0.0093048095703125;6.53999998348809;655;1 A
22.7056089426738;-0.59979248046875;-0.00928955078125;6.54999998346284;656;1 A
22.7156089426486;-0.599761962890625;-0.00928955078125;6.55999998343759;657;1 A
22.7256089426234;-0.59979248046875;-0.00927734375;6.56999998341234;658;1 A
22.7356089425981;-0.5997314453125;-0.00925292968749999;6.5799999833871;659;1 A
22.7456089425729;-0.599761962890625;-0.009259033203125;6.58999998336185;660;1 A
22.7556089425476;-0.599700927734375;-0.00927124023437501;6.5999999833366;661;1 A
22.7656089425224;-0.59967041015625;-0.00927734375;6.60999998331135;662;1 A
22.7756089424971;-0.5997314453125;-0.0092437744140625;6.61999998328611;663;1 A
22.7856089424719;-0.599761962890625;-0.0092498779296875;6.62999998326086;664;1 A
22.7956089424466;-0.5997314453125;-0.0092437744140625;6.63999998323561;665;1 A
22.8056089424214;-0.599639892578125;-0.00924072265625001;6.64999998321036;666;1 A
22.8156089423961;-0.599700927734375;-0.00919494628906251;6.65999998318512;667;1 A
22.8256089423709;-0.5997314453125;-0.009197998046875;6.66999998315987;668;1 A
22.8356089423456;-0.59979248046875;-0.009234619140625;6.67999998313462;669;1 A
22.8456089423204;-0.599700927734375;-0.00924072265625001;6.68999998310937;670;1 A
22.8556089422951;-0.599761962890625;-0.00922546386718751;6.69999998308413;671;1 A
22.8656089422699;-0.599761962890625;-0.009259033203125;6.70999998305888;672;1 A
22.8756089422446;-0.599761962890625;-0.0092926025390625;6.71999998303363;673;1 A
22.8856089422194;-0.599700927734375;-0.00933227539062501;6.72999998300838;674;1 A
22.8956089421941;-0.59979248046875;-0.009307861328125;6.73999998298314;675;1 A
22.9056089421689;-0.599822998046875;-0.0093048095703125;6.74999998295789;676;1 A
22.9156089421436;-0.5997314453125;-0.00931396484374999;6.75999998293264;677;1 A
22.9256089421184;-0.5997314453125;-0.0093231201171875;6.76999998290739;678;1 A
22.9356089420932;-0.59979248046875;-0.00929870605468749;6.77999998288215;679;1 A
22.9456089420679;-0.599853515625;-0.0092803955078125;6.7899999828569;680;1 A
22.9556089420427;-0.59979248046875;-0.00928955078125;6.79999998283165;681;1 A
22.9656089420174;-0.599700927734375;-0.00928955078125;6.8099999828064;682;1 A
22.9756089419922;-0.599700927734375;-0.009234619140625;6.81999998278116;683;1 A
22.9856089419669;-0.599761962890625;-0.009228515625;6.82999998275591;684;1 A
22.9956089419417;-0.5997314453125;-0.0092193603515625;6.83999998273066;685;1 A
23.0056089419164;-0.599700927734375;-0.009228515625;6.84999998270541;686;1 A
23.0156089418912;-0.59979248046875;-0.0092041015625;6.85999998268016;687;1 A
23.0256089418659;-0.599761962890625;-0.0091888427734375;6.86999998265492;688;1 A
23.0356089418407;-0.599761962890625;-0.0091827392578125;6.87999998262967;689;1 A
23.0456089418154;-0.599700927734375;-0.00913085937499999;6.88999998260442;690;1 A
23.0556089417902;-0.599761962890625;-0.0090362548828125;6.89999998257917;691;1 A
23.0656089417649;-0.599700927734375;-0.00900878906249999;6.90999998255393;692;1 A
23.0756089417397;-0.59979248046875;-0.0090179443359375;6.91999998252868;693;1 A
23.0856089417144;-0.59967041015625;-0.009051513671875;6.92999998250343;694;1 A
23.0956089416892;-0.5997314453125;-0.00901184082031251;6.93999998247818;695;1 A
23.1056089416639;-0.599761962890625;-0.0089996337890625;6.94999998245294;696;1 A
23.1156089416387;-0.5997314453125;-0.0089996337890625;6.95999998242769;697;1 A
23.1256089416135;-0.599700927734375;-0.0089996337890625;6.96999998240244;698;1 A
23.1356089415882;-0.599761962890625;-0.0089691162109375;6.97999998237719;699;1 A
23.145608941563;-0.599822998046875;-0.0089752197265625;6.98999998235195;700;1 A
