Time (s);WE(1).Potential (V);WE(1).Current (A);Corrected time (s);Index;Current range;Overload
70.380639822306;-0.90789794921875;-2.3419189453125;0;1;1 A;Current overload
70.3906398222807;-0.97503662109375;-2.02239990234375;0.00999999997475243;2;1 A;Current overload
70.4006398222555;-1.05133056640625;-1.43798828125;0.0199999999495049;3;1 A;
70.4106398222302;-1.0504150390625;-1.20269775390625;0.0299999999242573;4;1 A;
70.420639822205;-1.0498046875;-1.0650634765625;0.0399999998990097;5;1 A;
70.4306398221797;-1.0498046875;-0.96527099609375;0.0499999998737621;6;1 A;
70.4406398221545;-1.0498046875;-0.8929443359375;0.0599999998485146;7;1 A;
70.4506398221292;-1.0498046875;-0.83831787109375;0.069999999823267;8;1 A;
70.460639822104;-1.0498046875;-0.7965087890625;0.0799999997980194;9;1 A;
70.4706398220787;-1.0491943359375;-0.76080322265625;0.0899999997727718;10;1 A;
70.4806398220535;-1.0498046875;-0.73272705078125;0.0999999997475243;11;1 A;
70.4906398220282;-1.04949951171875;-0.70892333984375;0.109999999722277;12;1 A;
70.500639822003;-1.0498046875;-0.69061279296875;0.119999999697029;13;1 A;
70.5106398219777;-1.04949951171875;-0.6719970703125;0.129999999671782;14;1 A;
70.5206398219525;-1.0498046875;-0.6549072265625;0.139999999646534;15;1 A;
70.5306398219273;-1.04949951171875;-0.6396484375;0.149999999621286;16;1 A;
70.540639821902;-1.0498046875;-0.62835693359375;0.159999999596039;17;1 A;
70.5506398218768;-1.0498046875;-0.61798095703125;0.169999999570791;18;1 A;
70.5606398218515;-1.0498046875;-0.60882568359375;0.179999999545544;19;1 A;
70.5706398218263;-1.0498046875;-0.60150146484375;0.189999999520296;20;1 A;
70.580639821801;-1.0498046875;-0.59783935546875;0.199999999495049;21;1 A;
70.5906398217758;-1.04949951171875;-0.59326171875;0.209999999469801;22;1 A;
70.6006398217505;-1.0498046875;-0.5902099609375;0.219999999444553;23;1 A;
70.6106398217253;-1.0498046875;-0.58807373046875;0.229999999419306;24;1 A;
70.6206398217;-1.04949951171875;-0.58807373046875;0.239999999394058;25;1 A;
70.6306398216748;-1.04949951171875;-0.5853271484375;0.249999999368811;26;1 A;
70.6406398216495;-1.04949951171875;-0.582275390625;0.259999999343563;27;1 A;
70.6506398216243;-1.04949951171875;-0.5804443359375;0.269999999318316;28;1 A;
70.660639821599;-1.0498046875;-0.58074951171875;0.279999999293068;29;1 A;
70.6706398215738;-1.04949951171875;-0.57891845703125;0.28999999926782;30;1 A;
70.6806398215485;-1.04949951171875;-0.57586669921875;0.299999999242573;31;1 A;
70.6906398215233;-1.0491943359375;-0.57220458984375;0.309999999217325;32;1 A;
70.700639821498;-1.0491943359375;-0.570068359375;0.319999999192078;33;1 A;
70.7106398214728;-1.0504150390625;-0.5657958984375;0.32999999916683;34;1 A;
70.7206398214475;-1.0491943359375;-0.56243896484375;0.339999999141583;35;1 A;
70.7306398214223;-1.04949951171875;-0.55999755859375;0.349999999116335;36;1 A;
70.7406398213971;-1.04949951171875;-0.56060791015625;0.359999999091087;37;1 A;
70.7506398213718;-1.04949951171875;-0.5596923828125;0.36999999906584;38;1 A;
70.7606398213466;-1.04949951171875;-0.55908203125;0.379999999040592;39;1 A;
70.7706398213213;-1.04949951171875;-0.55999755859375;0.389999999015345;40;1 A;
70.7806398212961;-1.0498046875;-0.56243896484375;0.399999998990097;41;1 A;
70.7906398212708;-1.0498046875;-0.56365966796875;0.40999999896485;42;1 A;
70.8006398212456;-1.0498046875;-0.56488037109375;0.419999998939602;43;1 A;
70.8106398212203;-1.04949951171875;-0.5645751953125;0.429999998914354;44;1 A;
70.8206398211951;-1.0498046875;-0.56549072265625;0.439999998889107;45;1 A;
70.8306398211698;-1.0498046875;-0.56396484375;0.449999998863859;46;1 A;
70.8406398211446;-1.0498046875;-0.56182861328125;0.459999998838612;47;1 A;
70.8506398211193;-1.04949951171875;-0.55938720703125;0.469999998813364;48;1 A;
70.8606398210941;-1.04949951171875;-0.5596923828125;0.479999998788116;49;1 A;
70.8706398210688;-1.0498046875;-0.55908203125;0.489999998762869;50;1 A;
70.8806398210436;-1.04949951171875;-0.5572509765625;0.499999998737621;51;1 A;
70.8906398210183;-1.04949951171875;-0.555419921875;0.509999998712374;52;1 A;
70.9006398209931;-1.04949951171875;-0.55694580078125;0.519999998687126;53;1 A;
70.9106398209678;-1.05010986328125;-0.55572509765625;0.529999998661879;54;1 A;
70.9206398209426;-1.04949951171875;-0.55572509765625;0.539999998636631;55;1 A;
70.9306398209173;-1.05010986328125;-0.55419921875;0.549999998611383;56;1 A;
70.9406398208921;-1.04949951171875;-0.5535888671875;0.559999998586136;57;1 A;
70.9506398208669;-1.0491943359375;-0.5511474609375;0.569999998560888;58;1 A;
70.9606398208416;-1.0498046875;-0.5487060546875;0.579999998535641;59;1 A;
70.9706398208164;-1.0491943359375;-0.54718017578125;0.589999998510393;60;1 A;
70.9806398207911;-1.04949951171875;-0.546875;0.599999998485146;61;1 A;
70.9906398207659;-1.0491943359375;-0.5450439453125;0.609999998459898;62;1 A;
71.0006398207406;-1.04888916015625;-0.54473876953125;0.61999999843465;63;1 A;
71.0106398207154;-1.04949951171875;-0.54534912109375;0.629999998409403;64;1 A;
71.0206398206901;-1.04949951171875;-0.54962158203125;0.639999998384155;65;1 A;
71.0306398206649;-1.0498046875;-0.5517578125;0.649999998358908;66;1 A;
71.0406398206396;-1.04949951171875;-0.55389404296875;0.65999999833366;67;1 A;
71.0506398206144;-1.0491943359375;-0.5548095703125;0.669999998308413;68;1 A;
71.0606398205891;-1.0498046875;-0.5572509765625;0.679999998283165;69;1 A;
71.0706398205639;-1.0498046875;-0.5572509765625;0.689999998257917;70;1 A;
71.0806398205386;-1.04949951171875;-0.5560302734375;0.69999999823267;71;1 A;
71.0906398205134;-1.04949951171875;-0.55419921875;0.709999998207422;72;1 A;
71.1006398204881;-1.0498046875;-0.55389404296875;0.719999998182175;73;1 A;
71.1106398204629;-1.05010986328125;-0.5523681640625;0.729999998156927;74;1 A;
71.1206398204376;-1.04949951171875;-0.55206298828125;0.73999999813168;75;1 A;
71.1306398204124;-1.04949951171875;-0.55206298828125;0.749999998106432;76;1 A;
71.1406398203872;-1.0498046875;-0.55389404296875;0.759999998081184;77;1 A;
71.1506398203619;-1.04949951171875;-0.5523681640625;0.769999998055937;78;1 A;
71.1606398203367;-1.04949951171875;-0.55145263671875;0.779999998030689;79;1 A;
71.1706398203114;-1.04949951171875;-0.55023193359375;0.789999998005442;80;1 A;
71.1806398202862;-1.0498046875;-0.55023193359375;0.799999997980194;81;1 A;
71.1906398202609;-1.0491943359375;-0.5499267578125;0.809999997954947;82;1 A;
71.2006398202357;-1.04949951171875;-0.55145263671875;0.819999997929699;83;1 A;
71.2106398202104;-1.04949951171875;-0.5535888671875;0.829999997904451;84;1 A;
71.2206398201852;-1.04949951171875;-0.557861328125;0.839999997879204;85;1 A;
71.2306398201599;-1.0491943359375;-0.55908203125;0.849999997853956;86;1 A;
71.2406398201347;-1.04949951171875;-0.5609130859375;0.859999997828709;87;1 A;
71.2506398201094;-1.04949951171875;-0.56060791015625;0.869999997803461;88;1 A;
71.2606398200842;-1.04888916015625;-0.56060791015625;0.879999997778214;89;1 A;
71.2706398200589;-1.0491943359375;-0.5584716796875;0.889999997752966;90;1 A;
71.2806398200337;-1.0498046875;-0.556640625;0.899999997727718;91;1 A;
71.2906398200084;-1.04949951171875;-0.556640625;0.909999997702471;92;1 A;
71.3006398199832;-1.0498046875;-0.55755615234375;0.919999997677223;93;1 A;
71.3106398199579;-1.0491943359375;-0.556640625;0.929999997651976;94;1 A;
71.3206398199327;-1.0491943359375;-0.5572509765625;0.939999997626728;95;1 A;
71.3306398199074;-1.04949951171875;-0.55755615234375;0.949999997601481;96;1 A;
71.3406398198822;-1.04949951171875;-0.560302734375;0.959999997576233;97;1 A;
71.350639819857;-1.04949951171875;-0.56060791015625;0.969999997550985;98;1 A;
71.3606398198317;-1.0491943359375;-0.55999755859375;0.979999997525738;99;1 A;
71.3706398198065;-1.04949951171875;-0.55908203125;0.98999999750049;100;1 A;
71.3806398197812;-1.0491943359375;-0.55908203125;0.999999997475243;101;1 A;
71.390639819756;-1.04949951171875;-0.5584716796875;1.00999999745;102;1 A;
71.4006398197307;-1.0498046875;-0.557861328125;1.01999999742475;103;1 A;
71.4106398197055;-1.04949951171875;-0.557861328125;1.0299999973995;104;1 A;
71.4206398196802;-1.0491943359375;-0.55877685546875;1.03999999737425;105;1 A;
71.430639819655;-1.0498046875;-0.55694580078125;1.049999997349;106;1 A;
71.4406398196297;-1.04949951171875;-0.556640625;1.05999999732376;107;1 A;
71.4506398196045;-1.04949951171875;-0.55572509765625;1.06999999729851;108;1 A;
71.4606398195792;-1.0491943359375;-0.557861328125;1.07999999727326;109;1 A;
71.470639819554;-1.05010986328125;-0.55755615234375;1.08999999724801;110;1 A;
71.4806398195287;-1.0491943359375;-0.555419921875;1.09999999722277;111;1 A;
71.4906398195035;-1.0498046875;-0.5523681640625;1.10999999719752;112;1 A;
71.5006398194782;-1.0498046875;-0.55023193359375;1.11999999717227;113;1 A;
71.510639819453;-1.04949951171875;-0.54718017578125;1.12999999714702;114;1 A;
71.5206398194277;-1.0498046875;-0.54412841796875;1.13999999712178;115;1 A;
71.5306398194025;-1.0491943359375;-0.54168701171875;1.14999999709653;116;1 A;
71.5406398193772;-1.0498046875;-0.5419921875;1.15999999707128;117;1 A;
71.550639819352;-1.04949951171875;-0.54229736328125;1.16999999704603;118;1 A;
71.5606398193268;-1.04949951171875;-0.54290771484375;1.17999999702079;119;1 A;
71.5706398193015;-1.0491943359375;-0.54229736328125;1.18999999699554;120;1 A;
71.5806398192763;-1.05010986328125;-0.543212890625;1.19999999697029;121;1 A;
71.590639819251;-1.04949951171875;-0.54229736328125;1.20999999694504;122;1 A;
71.6006398192258;-1.0491943359375;-0.540771484375;1.2199999969198;123;1 A;
71.6106398192005;-1.0491943359375;-0.54107666015625;1.22999999689455;124;1 A;
71.6206398191753;-1.04949951171875;-0.5426025390625;1.2399999968693;125;1 A;
71.63063981915;-1.04949951171875;-0.54168701171875;1.24999999684405;126;1 A;
71.6406398191248;-1.04949951171875;-0.54107666015625;1.25999999681881;127;1 A;
71.6506398190995;-1.0498046875;-0.54046630859375;1.26999999679356;128;1 A;
71.6606398190743;-1.0498046875;-0.5426025390625;1.27999999676831;129;1 A;
71.670639819049;-1.05010986328125;-0.5426025390625;1.28999999674306;130;1 A;
71.6806398190238;-1.04949951171875;-0.54412841796875;1.29999999671782;131;1 A;
71.6906398189985;-1.05010986328125;-0.54656982421875;1.30999999669257;132;1 A;
71.7006398189733;-1.0491943359375;-0.54901123046875;1.31999999666732;133;1 A;
71.710639818948;-1.04949951171875;-0.54931640625;1.32999999664207;134;1 A;
71.7206398189228;-1.04949951171875;-0.548095703125;1.33999999661683;135;1 A;
71.7306398188975;-1.0491943359375;-0.54718017578125;1.34999999659158;136;1 A;
71.7406398188723;-1.05010986328125;-0.54901123046875;1.35999999656633;137;1 A;
71.750639818847;-1.04888916015625;-0.55084228515625;1.36999999654108;138;1 A;
71.7606398188218;-1.0498046875;-0.55389404296875;1.37999999651583;139;1 A;
71.7706398187966;-1.0491943359375;-0.55633544921875;1.38999999649059;140;1 A;
71.7806398187713;-1.0498046875;-0.55938720703125;1.39999999646534;141;1 A;
71.7906398187461;-1.0491943359375;-0.5609130859375;1.40999999644009;142;1 A;
71.8006398187208;-1.0491943359375;-0.56182861328125;1.41999999641484;143;1 A;
71.8106398186956;-1.05010986328125;-0.56304931640625;1.4299999963896;144;1 A;
71.8206398186703;-1.0498046875;-0.56396484375;1.43999999636435;145;1 A;
71.8306398186451;-1.0491943359375;-0.56304931640625;1.4499999963391;146;1 A;
71.8406398186198;-1.0498046875;-0.5621337890625;1.45999999631385;147;1 A;
71.8506398185946;-1.04949951171875;-0.5615234375;1.46999999628861;148;1 A;
71.8606398185693;-1.05010986328125;-0.5621337890625;1.47999999626336;149;1 A;
71.8706398185441;-1.0491943359375;-0.56060791015625;1.48999999623811;150;1 A;
71.8806398185188;-1.0498046875;-0.55938720703125;1.49999999621286;151;1 A;
71.8906398184936;-1.04949951171875;-0.55938720703125;1.50999999618762;152;1 A;
71.9006398184683;-1.0491943359375;-0.5615234375;1.51999999616237;153;1 A;
71.9106398184431;-1.0491943359375;-0.562744140625;1.52999999613712;154;1 A;
71.9206398184178;-1.0498046875;-0.5633544921875;1.53999999611187;155;1 A;
71.9306398183926;-1.0498046875;-0.56396484375;1.54999999608663;156;1 A;
71.9406398183673;-1.04949951171875;-0.5645751953125;1.55999999606138;157;1 A;
71.9506398183421;-1.04949951171875;-0.56365966796875;1.56999999603613;158;1 A;
71.9606398183168;-1.04949951171875;-0.56365966796875;1.57999999601088;159;1 A;
71.9706398182916;-1.0504150390625;-0.56365966796875;1.58999999598564;160;1 A;
71.9806398182664;-1.0498046875;-0.56396484375;1.59999999596039;161;1 A;
71.9906398182411;-1.0498046875;-0.5615234375;1.60999999593514;162;1 A;
72.0006398182159;-1.04949951171875;-0.55938720703125;1.61999999590989;163;1 A;
72.0106398181906;-1.0498046875;-0.55816650390625;1.62999999588465;164;1 A;
72.0206398181654;-1.0498046875;-0.55633544921875;1.6399999958594;165;1 A;
72.0306398181401;-1.04949951171875;-0.55389404296875;1.64999999583415;166;1 A;
72.0406398181149;-1.05010986328125;-0.55267333984375;1.6599999958089;167;1 A;
72.0506398180896;-1.04949951171875;-0.5523681640625;1.66999999578366;168;1 A;
72.0606398180644;-1.0498046875;-0.55450439453125;1.67999999575841;169;1 A;
72.0706398180391;-1.04949951171875;-0.55572509765625;1.68999999573316;170;1 A;
72.0806398180139;-1.0498046875;-0.556640625;1.69999999570791;171;1 A;
72.0906398179886;-1.04949951171875;-0.5560302734375;1.70999999568267;172;1 A;
72.1006398179634;-1.05010986328125;-0.5560302734375;1.71999999565742;173;1 A;
72.1106398179381;-1.04949951171875;-0.55511474609375;1.72999999563217;174;1 A;
72.1206398179129;-1.04949951171875;-0.55419921875;1.73999999560692;175;1 A;
72.1306398178876;-1.0498046875;-0.55450439453125;1.74999999558167;176;1 A;
72.1406398178624;-1.0491943359375;-0.55450439453125;1.75999999555643;177;1 A;
72.1506398178371;-1.04949951171875;-0.5535888671875;1.76999999553118;178;1 A;
72.1606398178119;-1.04949951171875;-0.55389404296875;1.77999999550593;179;1 A;
72.1706398177867;-1.0498046875;-0.55633544921875;1.78999999548068;180;1 A;
72.1806398177614;-1.05010986328125;-0.56182861328125;1.79999999545544;181;1 A;
72.1906398177362;-1.04949951171875;-0.56549072265625;1.80999999543019;182;1 A;
72.2006398177109;-1.04949951171875;-0.5670166015625;1.81999999540494;183;1 A;
72.2106398176857;-1.05010986328125;-0.567626953125;1.82999999537969;184;1 A;
72.2206398176604;-1.05010986328125;-0.56671142578125;1.83999999535445;185;1 A;
72.2306398176352;-1.04949951171875;-0.5633544921875;1.8499999953292;186;1 A;
72.2406398176099;-1.04949951171875;-0.5596923828125;1.85999999530395;187;1 A;
72.2506398175847;-1.04949951171875;-0.557861328125;1.8699999952787;188;1 A;
72.2606398175594;-1.0491943359375;-0.55572509765625;1.87999999525346;189;1 A;
72.2706398175342;-1.0491943359375;-0.55389404296875;1.88999999522821;190;1 A;
72.2806398175089;-1.05010986328125;-0.5535888671875;1.89999999520296;191;1 A;
72.2906398174837;-1.04949951171875;-0.55389404296875;1.90999999517771;192;1 A;
72.3006398174584;-1.05010986328125;-0.55572509765625;1.91999999515247;193;1 A;
72.3106398174332;-1.0498046875;-0.55633544921875;1.92999999512722;194;1 A;
72.3206398174079;-1.0498046875;-0.55694580078125;1.93999999510197;195;1 A;
72.3306398173827;-1.0491943359375;-0.55938720703125;1.94999999507672;196;1 A;
72.3406398173574;-1.04949951171875;-0.56243896484375;1.95999999505148;197;1 A;
72.3506398173322;-1.0504150390625;-0.56488037109375;1.96999999502623;198;1 A;
72.3606398173069;-1.0491943359375;-0.5657958984375;1.97999999500098;199;1 A;
72.3706398172817;-1.04949951171875;-0.565185546875;1.98999999497573;200;1 A;
72.3806398172565;-1.04949951171875;-0.56488037109375;1.99999999495049;201;1 A;
72.3906398172312;-1.0491943359375;-0.5633544921875;2.00999999492524;202;1 A;
72.400639817206;-1.0498046875;-0.56304931640625;2.01999999489999;203;1 A;
72.4106398171807;-1.05010986328125;-0.56427001953125;2.02999999487474;204;1 A;
72.4206398171555;-1.0498046875;-0.565185546875;2.0399999948495;205;1 A;
72.4306398171302;-1.04949951171875;-0.56427001953125;2.04999999482425;206;1 A;
72.440639817105;-1.0498046875;-0.56121826171875;2.059999994799;207;1 A;
72.4506398170797;-1.04949951171875;-0.560302734375;2.06999999477375;208;1 A;
72.4606398170545;-1.04949951171875;-0.55908203125;2.0799999947485;209;1 A;
72.4706398170292;-1.0491943359375;-0.5584716796875;2.08999999472326;210;1 A;
72.480639817004;-1.04949951171875;-0.5572509765625;2.09999999469801;211;1 A;
72.4906398169787;-1.04949951171875;-0.5572509765625;2.10999999467276;212;1 A;
72.5006398169535;-1.04949951171875;-0.5596923828125;2.11999999464751;213;1 A;
72.5106398169282;-1.04949951171875;-0.56121826171875;2.12999999462227;214;1 A;
72.520639816903;-1.05010986328125;-0.5621337890625;2.13999999459702;215;1 A;
72.5306398168777;-1.04949951171875;-0.56396484375;2.14999999457177;216;1 A;
72.5406398168525;-1.0498046875;-0.56396484375;2.15999999454652;217;1 A;
72.5506398168272;-1.04949951171875;-0.56427001953125;2.16999999452128;218;1 A;
72.560639816802;-1.0491943359375;-0.56396484375;2.17999999449603;219;1 A;
72.5706398167767;-1.0498046875;-0.56488037109375;2.18999999447078;220;1 A;
72.5806398167515;-1.0498046875;-0.565185546875;2.19999999444553;221;1 A;
72.5906398167263;-1.04949951171875;-0.5657958984375;2.20999999442029;222;1 A;
72.600639816701;-1.04949951171875;-0.5657958984375;2.21999999439504;223;1 A;
72.6106398166758;-1.04949951171875;-0.5657958984375;2.22999999436979;224;1 A;
72.6206398166505;-1.0498046875;-0.56610107421875;2.23999999434454;225;1 A;
72.6306398166253;-1.04949951171875;-0.56549072265625;2.2499999943193;226;1 A;
72.6406398166;-1.04949951171875;-0.565185546875;2.25999999429405;227;1 A;
72.6506398165748;-1.04949951171875;-0.56732177734375;2.2699999942688;228;1 A;
72.6606398165495;-1.0491943359375;-0.56610107421875;2.27999999424355;229;1 A;
72.6706398165243;-1.04949951171875;-0.56640625;2.28999999421831;230;1 A;
72.680639816499;-1.04949951171875;-0.56640625;2.29999999419306;231;1 A;
72.6906398164738;-1.0498046875;-0.567626953125;2.30999999416781;232;1 A;
72.7006398164485;-1.0498046875;-0.5682373046875;2.31999999414256;233;1 A;
72.7106398164233;-1.05010986328125;-0.5682373046875;2.32999999411732;234;1 A;
72.720639816398;-1.04949951171875;-0.56854248046875;2.33999999409207;235;1 A;
72.7306398163728;-1.0498046875;-0.57098388671875;2.34999999406682;236;1 A;
72.7406398163475;-1.0504150390625;-0.5712890625;2.35999999404157;237;1 A;
72.7506398163223;-1.0491943359375;-0.57098388671875;2.36999999401633;238;1 A;
72.760639816297;-1.0491943359375;-0.56976318359375;2.37999999399108;239;1 A;
72.7706398162718;-1.04949951171875;-0.5718994140625;2.38999999396583;240;1 A;
72.7806398162465;-1.0498046875;-0.5743408203125;2.39999999394058;241;1 A;
72.7906398162213;-1.04949951171875;-0.57647705078125;2.40999999391533;242;1 A;
72.8006398161961;-1.0491943359375;-0.57769775390625;2.41999999389009;243;1 A;
72.8106398161708;-1.0498046875;-0.57952880859375;2.42999999386484;244;1 A;
72.8206398161456;-1.04949951171875;-0.5816650390625;2.43999999383959;245;1 A;
72.8306398161203;-1.04949951171875;-0.58258056640625;2.44999999381434;246;1 A;
72.8406398160951;-1.04949951171875;-0.5828857421875;2.4599999937891;247;1 A;
72.8506398160698;-1.04949951171875;-0.58441162109375;2.46999999376385;248;1 A;
72.8606398160446;-1.04949951171875;-0.58258056640625;2.4799999937386;249;1 A;
72.8706398160193;-1.04949951171875;-0.5804443359375;2.48999999371335;250;1 A;
72.8806398159941;-1.05010986328125;-0.57708740234375;2.49999999368811;251;1 A;
72.8906398159688;-1.04949951171875;-0.577392578125;2.50999999366286;252;1 A;
72.9006398159436;-1.0491943359375;-0.57464599609375;2.51999999363761;253;1 A;
72.9106398159183;-1.0498046875;-0.5712890625;2.52999999361236;254;1 A;
72.9206398158931;-1.04888916015625;-0.56915283203125;2.53999999358712;255;1 A;
72.9306398158678;-1.0498046875;-0.56976318359375;2.54999999356187;256;1 A;
72.9406398158426;-1.04888916015625;-0.57037353515625;2.55999999353662;257;1 A;
72.9506398158173;-1.04949951171875;-0.57037353515625;2.56999999351137;258;1 A;
72.9606398157921;-1.0498046875;-0.5694580078125;2.57999999348613;259;1 A;
72.9706398157668;-1.04949951171875;-0.57220458984375;2.58999999346088;260;1 A;
72.9806398157416;-1.04949951171875;-0.572509765625;2.59999999343563;261;1 A;
72.9906398157163;-1.04949951171875;-0.572509765625;2.60999999341038;262;1 A;
73.0006398156911;-1.04949951171875;-0.5706787109375;2.61999999338514;263;1 A;
73.0106398156659;-1.04949951171875;-0.57220458984375;2.62999999335989;264;1 A;
73.0206398156406;-1.05010986328125;-0.57159423828125;2.63999999333464;265;1 A;
73.0306398156154;-1.04949951171875;-0.5706787109375;2.64999999330939;266;1 A;
73.0406398155901;-1.0491943359375;-0.56884765625;2.65999999328415;267;1 A;
73.0506398155649;-1.0498046875;-0.570068359375;2.6699999932589;268;1 A;
73.0606398155396;-1.0498046875;-0.5694580078125;2.67999999323365;269;1 A;
73.0706398155144;-1.0498046875;-0.5706787109375;2.6899999932084;270;1 A;
73.0806398154891;-1.0491943359375;-0.57037353515625;2.69999999318316;271;1 A;
73.0906398154639;-1.04949951171875;-0.57403564453125;2.70999999315791;272;1 A;
73.1006398154386;-1.0491943359375;-0.57464599609375;2.71999999313266;273;1 A;
73.1106398154134;-1.04949951171875;-0.57647705078125;2.72999999310741;274;1 A;
73.1206398153881;-1.0498046875;-0.57891845703125;2.73999999308217;275;1 A;
73.1306398153629;-1.0491943359375;-0.58197021484375;2.74999999305692;276;1 A;
73.1406398153376;-1.0491943359375;-0.58258056640625;2.75999999303167;277;1 A;
73.1506398153124;-1.0498046875;-0.582275390625;2.76999999300642;278;1 A;
73.1606398152871;-1.04949951171875;-0.5810546875;2.77999999298117;279;1 A;
73.1706398152619;-1.04949951171875;-0.5828857421875;2.78999999295593;280;1 A;
73.1806398152366;-1.0491943359375;-0.579833984375;2.79999999293068;281;1 A;
73.1906398152114;-1.04949951171875;-0.58013916015625;2.80999999290543;282;1 A;
73.2006398151862;-1.0498046875;-0.57830810546875;2.81999999288018;283;1 A;
73.2106398151609;-1.0498046875;-0.579833984375;2.82999999285494;284;1 A;
73.2206398151357;-1.04888916015625;-0.57952880859375;2.83999999282969;285;1 A;
73.2306398151104;-1.04949951171875;-0.57891845703125;2.84999999280444;286;1 A;
73.2406398150852;-1.05010986328125;-0.57830810546875;2.85999999277919;287;1 A;
73.2506398150599;-1.0491943359375;-0.58074951171875;2.86999999275395;288;1 A;
73.2606398150347;-1.04949951171875;-0.5804443359375;2.8799999927287;289;1 A;
73.2706398150094;-1.0498046875;-0.5816650390625;2.88999999270345;290;1 A;
73.2806398149842;-1.0491943359375;-0.582275390625;2.8999999926782;291;1 A;
73.2906398149589;-1.0491943359375;-0.58685302734375;2.90999999265296;292;1 A;
73.3006398149337;-1.0498046875;-0.58624267578125;2.91999999262771;293;1 A;
73.3106398149084;-1.04949951171875;-0.5889892578125;2.92999999260246;294;1 A;
73.3206398148832;-1.05010986328125;-0.58990478515625;2.93999999257721;295;1 A;
73.3306398148579;-1.04949951171875;-0.5926513671875;2.94999999255197;296;1 A;
73.3406398148327;-1.0498046875;-0.5926513671875;2.95999999252672;297;1 A;
73.3506398148074;-1.05010986328125;-0.59112548828125;2.96999999250147;298;1 A;
73.3606398147822;-1.04949951171875;-0.5902099609375;2.97999999247622;299;1 A;
73.3706398147569;-1.0498046875;-0.59295654296875;2.98999999245098;300;1 A;
73.3806398147317;-1.04949951171875;-0.58990478515625;2.99999999242573;301;1 A;
73.3906398147064;-1.05010986328125;-0.589599609375;3.00999999240048;302;1 A;
73.4006398146812;-1.0498046875;-0.58837890625;3.01999999237523;303;1 A;
73.410639814656;-1.0491943359375;-0.5926513671875;3.02999999234999;304;1 A;
73.4206398146307;-1.0491943359375;-0.5902099609375;3.03999999232474;305;1 A;
73.4306398146055;-1.04949951171875;-0.5908203125;3.04999999229949;306;1 A;
73.4406398145802;-1.0491943359375;-0.589599609375;3.05999999227424;307;1 A;
73.450639814555;-1.04949951171875;-0.59051513671875;3.069999992249;308;1 A;
73.4606398145297;-1.04949951171875;-0.58807373046875;3.07999999222375;309;1 A;
73.4706398145045;-1.04949951171875;-0.5859375;3.0899999921985;310;1 A;
73.4806398144792;-1.04949951171875;-0.58380126953125;3.09999999217325;311;1 A;
73.490639814454;-1.04949951171875;-0.587158203125;3.109999992148;312;1 A;
73.5006398144287;-1.0498046875;-0.584716796875;3.11999999212276;313;1 A;
73.5106398144035;-1.0498046875;-0.58746337890625;3.12999999209751;314;1 A;
73.5206398143782;-1.0498046875;-0.58746337890625;3.13999999207226;315;1 A;
73.530639814353;-1.04949951171875;-0.59295654296875;3.14999999204701;316;1 A;
73.5406398143277;-1.0498046875;-0.5938720703125;3.15999999202177;317;1 A;
73.5506398143025;-1.04949951171875;-0.59326171875;3.16999999199652;318;1 A;
73.5606398142772;-1.04949951171875;-0.592041015625;3.17999999197127;319;1 A;
73.570639814252;-1.04949951171875;-0.594482421875;3.18999999194602;320;1 A;
73.5806398142267;-1.0498046875;-0.59051513671875;3.19999999192078;321;1 A;
73.5906398142015;-1.0491943359375;-0.59112548828125;3.20999999189553;322;1 A;
73.6006398141762;-1.0498046875;-0.58990478515625;3.21999999187028;323;1 A;
73.610639814151;-1.04949951171875;-0.59478759765625;3.22999999184503;324;1 A;
73.6206398141258;-1.0491943359375;-0.59234619140625;3.23999999181979;325;1 A;
73.6306398141005;-1.04949951171875;-0.59478759765625;3.24999999179454;326;1 A;
73.6406398140753;-1.0498046875;-0.59539794921875;3.25999999176929;327;1 A;
73.65063981405;-1.0498046875;-0.59814453125;3.26999999174404;328;1 A;
73.6606398140248;-1.0491943359375;-0.5975341796875;3.2799999917188;329;1 A;
73.6706398139995;-1.0491943359375;-0.595703125;3.28999999169355;330;1 A;
73.6806398139743;-1.0498046875;-0.59356689453125;3.2999999916683;331;1 A;
73.690639813949;-1.0498046875;-0.59539794921875;3.30999999164305;332;1 A;
73.7006398139238;-1.04949951171875;-0.58929443359375;3.31999999161781;333;1 A;
73.7106398138985;-1.04949951171875;-0.592041015625;3.32999999159256;334;1 A;
73.7206398138733;-1.0491943359375;-0.59051513671875;3.33999999156731;335;1 A;
73.730639813848;-1.04949951171875;-0.59417724609375;3.34999999154206;336;1 A;
73.7406398138228;-1.04949951171875;-0.5902099609375;3.35999999151682;337;1 A;
73.7506398137975;-1.0491943359375;-0.58837890625;3.36999999149157;338;1 A;
73.7606398137723;-1.04949951171875;-0.5877685546875;3.37999999146632;339;1 A;
73.770639813747;-1.04949951171875;-0.589599609375;3.38999999144107;340;1 A;
73.7806398137218;-1.0498046875;-0.58685302734375;3.39999999141583;341;1 A;
73.7906398136965;-1.04949951171875;-0.587158203125;3.40999999139058;342;1 A;
73.8006398136713;-1.04949951171875;-0.5859375;3.41999999136533;343;1 A;
73.810639813646;-1.04949951171875;-0.59234619140625;3.42999999134008;344;1 A;
73.8206398136208;-1.0491943359375;-0.59051513671875;3.43999999131483;345;1 A;
73.8306398135956;-1.04949951171875;-0.5938720703125;3.44999999128959;346;1 A;
73.8406398135703;-1.0498046875;-0.5926513671875;3.45999999126434;347;1 A;
73.8506398135451;-1.04949951171875;-0.59478759765625;3.46999999123909;348;1 A;
73.8606398135198;-1.0498046875;-0.59356689453125;3.47999999121384;349;1 A;
73.8706398134946;-1.04888916015625;-0.5938720703125;3.4899999911886;350;1 A;
73.8806398134693;-1.0498046875;-0.59356689453125;3.49999999116335;351;1 A;
73.8906398134441;-1.0498046875;-0.59814453125;3.5099999911381;352;1 A;
73.9006398134188;-1.0491943359375;-0.59600830078125;3.51999999111285;353;1 A;
73.9106398133936;-1.04949951171875;-0.6005859375;3.52999999108761;354;1 A;
73.9206398133683;-1.0498046875;-0.6005859375;3.53999999106236;355;1 A;
73.9306398133431;-1.04949951171875;-0.6072998046875;3.54999999103711;356;1 A;
73.9406398133178;-1.0498046875;-0.60394287109375;3.55999999101186;357;1 A;
73.9506398132926;-1.04949951171875;-0.6036376953125;3.56999999098662;358;1 A;
73.9606398132673;-1.04949951171875;-0.60211181640625;3.57999999096137;359;1 A;
73.9706398132421;-1.0491943359375;-0.60302734375;3.58999999093612;360;1 A;
73.9806398132168;-1.0498046875;-0.599365234375;3.59999999091087;361;1 A;
73.9906398131916;-1.04888916015625;-0.596923828125;3.60999999088563;362;1 A;
74.0006398131663;-1.04949951171875;-0.59356689453125;3.61999999086038;363;1 A;
74.0106398131411;-1.04949951171875;-0.5963134765625;3.62999999083513;364;1 A;
74.0206398131158;-1.04949951171875;-0.58990478515625;3.63999999080988;365;1 A;
74.0306398130906;-1.0498046875;-0.59112548828125;3.64999999078464;366;1 A;
74.0406398130654;-1.05010986328125;-0.587158203125;3.65999999075939;367;1 A;
74.0506398130401;-1.0491943359375;-0.5902099609375;3.66999999073414;368;1 A;
74.0606398130149;-1.04949951171875;-0.587158203125;3.67999999070889;369;1 A;
74.0706398129896;-1.04949951171875;-0.58563232421875;3.68999999068365;370;1 A;
74.0806398129644;-1.0498046875;-0.58624267578125;3.6999999906584;371;1 A;
74.0906398129391;-1.04949951171875;-0.5908203125;3.70999999063315;372;1 A;
74.1006398129139;-1.0491943359375;-0.589599609375;3.7199999906079;373;1 A;
74.1106398128886;-1.0498046875;-0.59112548828125;3.72999999058266;374;1 A;
74.1206398128634;-1.0498046875;-0.58837890625;3.73999999055741;375;1 A;
74.1306398128381;-1.0491943359375;-0.59417724609375;3.74999999053216;376;1 A;
74.1406398128129;-1.04949951171875;-0.58990478515625;3.75999999050691;377;1 A;
74.1506398127876;-1.0498046875;-0.5902099609375;3.76999999048167;378;1 A;
74.1606398127624;-1.05010986328125;-0.58837890625;3.77999999045642;379;1 A;
74.1706398127371;-1.0491943359375;-0.589599609375;3.78999999043117;380;1 A;
74.1806398127119;-1.04949951171875;-0.58563232421875;3.79999999040592;381;1 A;
74.1906398126866;-1.04949951171875;-0.58197021484375;3.80999999038067;382;1 A;
74.2006398126614;-1.0498046875;-0.579833984375;3.81999999035543;383;1 A;
74.2106398126361;-1.0491943359375;-0.58502197265625;3.82999999033018;384;1 A;
74.2206398126109;-1.04949951171875;-0.579833984375;3.83999999030493;385;1 A;
74.2306398125857;-1.05010986328125;-0.58258056640625;3.84999999027968;386;1 A;
74.2406398125604;-1.0491943359375;-0.57769775390625;3.85999999025444;387;1 A;
74.2506398125352;-1.04949951171875;-0.58197021484375;3.86999999022919;388;1 A;
74.2606398125099;-1.0498046875;-0.57769775390625;3.87999999020394;389;1 A;
74.2706398124847;-1.0498046875;-0.57708740234375;3.88999999017869;390;1 A;
74.2806398124594;-1.0498046875;-0.57647705078125;3.89999999015345;391;1 A;
74.2906398124342;-1.0498046875;-0.57861328125;3.9099999901282;392;1 A;
74.3006398124089;-1.04949951171875;-0.57586669921875;3.91999999010295;393;1 A;
74.3106398123837;-1.0498046875;-0.576171875;3.9299999900777;394;1 A;
74.3206398123584;-1.0498046875;-0.57525634765625;3.93999999005246;395;1 A;
74.3306398123332;-1.0491943359375;-0.5816650390625;3.94999999002721;396;1 A;
74.3406398123079;-1.0498046875;-0.576171875;3.95999999000196;397;1 A;
74.3506398122827;-1.0498046875;-0.579833984375;3.96999998997671;398;1 A;
74.3606398122574;-1.04949951171875;-0.57891845703125;3.97999998995147;399;1 A;
74.3706398122322;-1.04949951171875;-0.58502197265625;3.98999998992622;400;1 A;
74.3806398122069;-1.04949951171875;-0.584716796875;3.99999998990097;401;1 A;
74.3906398121817;-1.04949951171875;-0.5859375;4.00999998987572;402;1 A;
74.4006398121564;-1.0498046875;-0.58837890625;4.01999998985048;403;1 A;
74.4106398121312;-1.0491943359375;-0.5950927734375;4.02999998982523;404;1 A;
74.4206398121059;-1.04949951171875;-0.59051513671875;4.03999998979998;405;1 A;
74.4306398120807;-1.04949951171875;-0.59356689453125;4.04999998977473;406;1 A;
74.4406398120555;-1.0491943359375;-0.5902099609375;4.05999998974949;407;1 A;
74.4506398120302;-1.0498046875;-0.595703125;4.06999998972424;408;1 A;
74.460639812005;-1.05010986328125;-0.589599609375;4.07999998969899;409;1 A;
74.4706398119797;-1.0498046875;-0.58929443359375;4.08999998967374;410;1 A;
74.4806398119545;-1.0498046875;-0.58837890625;4.0999999896485;411;1 A;
74.4906398119292;-1.0491943359375;-0.59356689453125;4.10999998962325;412;1 A;
74.500639811904;-1.0498046875;-0.592041015625;4.119999989598;413;1 A;
74.5106398118787;-1.04949951171875;-0.592041015625;4.12999998957275;414;1 A;
74.5206398118535;-1.04949951171875;-0.5908203125;4.1399999895475;415;1 A;
74.5306398118282;-1.04949951171875;-0.5963134765625;4.14999998952226;416;1 A;
74.540639811803;-1.04949951171875;-0.58990478515625;4.15999998949701;417;1 A;
74.5506398117777;-1.04949951171875;-0.5938720703125;4.16999998947176;418;1 A;
74.5606398117525;-1.0504150390625;-0.5908203125;4.17999998944651;419;1 A;
74.5706398117272;-1.04949951171875;-0.596923828125;4.18999998942127;420;1 A;
74.580639811702;-1.0498046875;-0.59478759765625;4.19999998939602;421;1 A;
74.5906398116767;-1.0498046875;-0.59295654296875;4.20999998937077;422;1 A;
74.6006398116515;-1.0504150390625;-0.59356689453125;4.21999998934552;423;1 A;
74.6106398116262;-1.0498046875;-0.59814453125;4.22999998932028;424;1 A;
74.620639811601;-1.05010986328125;-0.59356689453125;4.23999998929503;425;1 A;
74.6306398115757;-1.04949951171875;-0.5950927734375;4.24999998926978;426;1 A;
74.6406398115505;-1.04949951171875;-0.59356689453125;4.25999998924453;427;1 A;
74.6506398115253;-1.0498046875;-0.60150146484375;4.26999998921929;428;1 A;
74.6606398115;-1.04949951171875;-0.59661865234375;4.27999998919404;429;1 A;
74.6706398114748;-1.0498046875;-0.59906005859375;4.28999998916879;430;1 A;
74.6806398114495;-1.04949951171875;-0.59783935546875;4.29999998914354;431;1 A;
74.6906398114243;-1.0491943359375;-0.60150146484375;4.3099999891183;432;1 A;
74.700639811399;-1.04949951171875;-0.59844970703125;4.31999998909305;433;1 A;
74.7106398113738;-1.0498046875;-0.59539794921875;4.3299999890678;434;1 A;
74.7206398113485;-1.0498046875;-0.59356689453125;4.33999998904255;435;1 A;
74.7306398113233;-1.0498046875;-0.59906005859375;4.34999998901731;436;1 A;
74.740639811298;-1.0498046875;-0.59173583984375;4.35999998899206;437;1 A;
74.7506398112728;-1.0491943359375;-0.59600830078125;4.36999998896681;438;1 A;
74.7606398112475;-1.04949951171875;-0.59234619140625;4.37999998894156;439;1 A;
74.7706398112223;-1.04949951171875;-0.5987548828125;4.38999998891632;440;1 A;
74.780639811197;-1.0498046875;-0.59356689453125;4.39999998889107;441;1 A;
74.7906398111718;-1.0491943359375;-0.5926513671875;4.40999998886582;442;1 A;
74.8006398111465;-1.04949951171875;-0.59326171875;4.41999998884057;443;1 A;
74.8106398111213;-1.04949951171875;-0.59722900390625;4.42999998881533;444;1 A;
74.820639811096;-1.0498046875;-0.59539794921875;4.43999998879008;445;1 A;
74.8306398110708;-1.0498046875;-0.59661865234375;4.44999998876483;446;1 A;
74.8406398110455;-1.0498046875;-0.59600830078125;4.45999998873958;447;1 A;
74.8506398110203;-1.04949951171875;-0.60516357421875;4.46999998871433;448;1 A;
74.8606398109951;-1.0491943359375;-0.599365234375;4.47999998868909;449;1 A;
74.8706398109698;-1.04949951171875;-0.60302734375;4.48999998866384;450;1 A;
74.8806398109446;-1.04949951171875;-0.6011962890625;4.49999998863859;451;1 A;
74.8906398109193;-1.0498046875;-0.6060791015625;4.50999998861334;452;1 A;
74.9006398108941;-1.0498046875;-0.6024169921875;4.5199999885881;453;1 A;
74.9106398108688;-1.0491943359375;-0.6005859375;4.52999998856285;454;1 A;
74.9206398108436;-1.04949951171875;-0.60089111328125;4.5399999885376;455;1 A;
74.9306398108183;-1.0491943359375;-0.60638427734375;4.54999998851235;456;1 A;
74.9406398107931;-1.04949951171875;-0.59783935546875;4.55999998848711;457;1 A;
74.9506398107678;-1.04949951171875;-0.60028076171875;4.56999998846186;458;1 A;
74.9606398107426;-1.04888916015625;-0.59722900390625;4.57999998843661;459;1 A;
74.9706398107173;-1.04949951171875;-0.6036376953125;4.58999998841136;460;1 A;
74.9806398106921;-1.04949951171875;-0.59539794921875;4.59999998838612;461;1 A;
74.9906398106668;-1.04949951171875;-0.5950927734375;4.60999998836087;462;1 A;
75.0006398106416;-1.04949951171875;-0.594482421875;4.61999998833562;463;1 A;
75.0106398106163;-1.0498046875;-0.59814453125;4.62999998831037;464;1 A;
75.0206398105911;-1.0498046875;-0.5926513671875;4.63999998828513;465;1 A;
75.0306398105658;-1.04949951171875;-0.58929443359375;4.64999998825988;466;1 A;
75.0406398105406;-1.0498046875;-0.58807373046875;4.65999998823463;467;1 A;
75.0506398105153;-1.0498046875;-0.59600830078125;4.66999998820938;468;1 A;
75.0606398104901;-1.04949951171875;-0.58929443359375;4.67999998818414;469;1 A;
75.0706398104649;-1.05010986328125;-0.59417724609375;4.68999998815889;470;1 A;
75.0806398104396;-1.05010986328125;-0.592041015625;4.69999998813364;471;1 A;
75.0906398104144;-1.04949951171875;-0.59814453125;4.70999998810839;472;1 A;
75.1006398103891;-1.05010986328125;-0.59295654296875;4.71999998808315;473;1 A;
75.1106398103639;-1.04949951171875;-0.58990478515625;4.7299999880579;474;1 A;
75.1206398103386;-1.0498046875;-0.58990478515625;4.73999998803265;475;1 A;
75.1306398103134;-1.0498046875;-0.5950927734375;4.7499999880074;476;1 A;
75.1406398102881;-1.0491943359375;-0.58929443359375;4.75999998798216;477;1 A;
75.1506398102629;-1.0491943359375;-0.5926513671875;4.76999998795691;478;1 A;
75.1606398102376;-1.04949951171875;-0.59234619140625;4.77999998793166;479;1 A;
75.1706398102124;-1.0491943359375;-0.60089111328125;4.78999998790641;480;1 A;
75.1806398101871;-1.0498046875;-0.59051513671875;4.79999998788116;481;1 A;
75.1906398101619;-1.0498046875;-0.59356689453125;4.80999998785592;482;1 A;
75.2006398101366;-1.0498046875;-0.59295654296875;4.81999998783067;483;1 A;
75.2106398101114;-1.04888916015625;-0.59906005859375;4.82999998780542;484;1 A;
75.2206398100861;-1.04888916015625;-0.59661865234375;4.83999998778017;485;1 A;
75.2306398100609;-1.0491943359375;-0.59661865234375;4.84999998775493;486;1 A;
75.2406398100356;-1.05010986328125;-0.59814453125;4.85999998772968;487;1 A;
75.2506398100104;-1.04949951171875;-0.60546875;4.86999998770443;488;1 A;
75.2606398099852;-1.0498046875;-0.59478759765625;4.87999998767918;489;1 A;
75.2706398099599;-1.0498046875;-0.59783935546875;4.88999998765394;490;1 A;
75.2806398099347;-1.05010986328125;-0.594482421875;4.89999998762869;491;1 A;
75.2906398099094;-1.0491943359375;-0.60455322265625;4.90999998760344;492;1 A;
75.3006398098842;-1.0498046875;-0.59661865234375;4.91999998757819;493;1 A;
75.3106398098589;-1.04888916015625;-0.595703125;4.92999998755295;494;1 A;
75.3206398098337;-1.04949951171875;-0.59539794921875;4.9399999875277;495;1 A;
75.3306398098084;-1.05010986328125;-0.59844970703125;4.94999998750245;496;1 A;
75.3406398097832;-1.05010986328125;-0.59326171875;4.9599999874772;497;1 A;
75.3506398097579;-1.04949951171875;-0.5938720703125;4.96999998745196;498;1 A;
75.3606398097327;-1.04949951171875;-0.59356689453125;4.97999998742671;499;1 A;
75.3706398097074;-1.0491943359375;-0.60302734375;4.98999998740146;500;1 A;
75.3806398096822;-1.0498046875;-0.58990478515625;4.99999998737621;501;1 A;
75.3906398096569;-1.0491943359375;-0.59417724609375;5.00999998735097;502;1 A;
75.4006398096317;-1.04949951171875;-0.59173583984375;5.01999998732572;503;1 A;
75.4106398096064;-1.0498046875;-0.5963134765625;5.02999998730047;504;1 A;
75.4206398095812;-1.0498046875;-0.5889892578125;5.03999998727522;505;1 A;
75.4306398095559;-1.04949951171875;-0.58624267578125;5.04999998724998;506;1 A;
75.4406398095307;-1.0491943359375;-0.5865478515625;5.05999998722473;507;1 A;
75.4506398095054;-1.04949951171875;-0.594482421875;5.06999998719948;508;1 A;
75.4606398094802;-1.0498046875;-0.58685302734375;5.07999998717423;509;1 A;
75.470639809455;-1.05010986328125;-0.589599609375;5.08999998714899;510;1 A;
75.4806398094297;-1.0498046875;-0.58807373046875;5.09999998712374;511;1 A;
75.4906398094045;-1.04949951171875;-0.5975341796875;5.10999998709849;512;1 A;
75.5006398093792;-1.04949951171875;-0.587158203125;5.11999998707324;513;1 A;
75.510639809354;-1.0491943359375;-0.58746337890625;5.129999987048;514;1 A;
75.5206398093287;-1.04949951171875;-0.5877685546875;5.13999998702275;515;1 A;
75.5306398093035;-1.04949951171875;-0.58990478515625;5.1499999869975;516;1 A;
75.5406398092782;-1.05010986328125;-0.5841064453125;5.15999998697225;517;1 A;
75.550639809253;-1.0491943359375;-0.58074951171875;5.169999986947;518;1 A;
75.5606398092277;-1.04949951171875;-0.57952880859375;5.17999998692176;519;1 A;
75.5706398092025;-1.0491943359375;-0.58929443359375;5.18999998689651;520;1 A;
75.5806398091772;-1.0491943359375;-0.57525634765625;5.19999998687126;521;1 A;
75.590639809152;-1.04949951171875;-0.57891845703125;5.20999998684601;522;1 A;
75.6006398091267;-1.0498046875;-0.57708740234375;5.21999998682077;523;1 A;
75.6106398091015;-1.04949951171875;-0.58563232421875;5.22999998679552;524;1 A;
75.6206398090762;-1.04949951171875;-0.57891845703125;5.23999998677027;525;1 A;
75.630639809051;-1.0491943359375;-0.57952880859375;5.24999998674502;526;1 A;
75.6406398090257;-1.04949951171875;-0.58258056640625;5.25999998671978;527;1 A;
75.6506398090005;-1.04949951171875;-0.59112548828125;5.26999998669453;528;1 A;
75.6606398089752;-1.04949951171875;-0.584716796875;5.27999998666928;529;1 A;
75.67063980895;-1.04949951171875;-0.58380126953125;5.28999998664403;530;1 A;
75.6806398089248;-1.04888916015625;-0.58319091796875;5.29999998661879;531;1 A;
75.6906398088995;-1.04949951171875;-0.594482421875;5.30999998659354;532;1 A;
75.7006398088743;-1.0498046875;-0.5828857421875;5.31999998656829;533;1 A;
75.710639808849;-1.0498046875;-0.58624267578125;5.32999998654304;534;1 A;
75.7206398088238;-1.0498046875;-0.5859375;5.3399999865178;535;1 A;
75.7306398087985;-1.04949951171875;-0.59295654296875;5.34999998649255;536;1 A;
75.7406398087733;-1.0498046875;-0.58929443359375;5.3599999864673;537;1 A;
75.750639808748;-1.0498046875;-0.58837890625;5.36999998644205;538;1 A;
75.7606398087228;-1.04949951171875;-0.59051513671875;5.37999998641681;539;1 A;
75.7706398086975;-1.0491943359375;-0.60089111328125;5.38999998639156;540;1 A;
75.7806398086723;-1.04949951171875;-0.59295654296875;5.39999998636631;541;1 A;
75.790639808647;-1.0498046875;-0.59814453125;5.40999998634106;542;1 A;
75.8006398086218;-1.05010986328125;-0.5975341796875;5.41999998631582;543;1 A;
75.8106398085965;-1.04949951171875;-0.6072998046875;5.42999998629057;544;1 A;
75.8206398085713;-1.05072021484375;-0.59906005859375;5.43999998626532;545;1 A;
75.830639808546;-1.0498046875;-0.59814453125;5.44999998624007;546;1 A;
75.8406398085208;-1.0498046875;-0.5975341796875;5.45999998621483;547;1 A;
75.8506398084955;-1.0491943359375;-0.59906005859375;5.46999998618958;548;1 A;
75.8606398084703;-1.0498046875;-0.59326171875;5.47999998616433;549;1 A;
75.870639808445;-1.0498046875;-0.5889892578125;5.48999998613908;550;1 A;
75.8806398084198;-1.04949951171875;-0.58868408203125;5.49999998611383;551;1 A;
75.8906398083946;-1.04949951171875;-0.599365234375;5.50999998608859;552;1 A;
75.9006398083693;-1.0498046875;-0.5859375;5.51999998606334;553;1 A;
75.9106398083441;-1.0498046875;-0.59417724609375;5.52999998603809;554;1 A;
75.9206398083188;-1.05010986328125;-0.59295654296875;5.53999998601284;555;1 A;
75.9306398082936;-1.04949951171875;-0.59967041015625;5.5499999859876;556;1 A;
75.9406398082683;-1.04888916015625;-0.59173583984375;5.55999998596235;557;1 A;
75.9506398082431;-1.0498046875;-0.58868408203125;5.5699999859371;558;1 A;
75.9606398082178;-1.04888916015625;-0.59234619140625;5.57999998591185;559;1 A;
75.9706398081926;-1.04949951171875;-0.6005859375;5.58999998588661;560;1 A;
75.9806398081673;-1.0491943359375;-0.59173583984375;5.59999998586136;561;1 A;
75.9906398081421;-1.05010986328125;-0.5950927734375;5.60999998583611;562;1 A;
76.0006398081168;-1.04949951171875;-0.59417724609375;5.61999998581086;563;1 A;
76.0106398080916;-1.0491943359375;-0.60638427734375;5.62999998578562;564;1 A;
76.0206398080663;-1.0498046875;-0.59326171875;5.63999998576037;565;1 A;
76.0306398080411;-1.05010986328125;-0.595703125;5.64999998573512;566;1 A;
76.0406398080158;-1.0498046875;-0.5975341796875;5.65999998570987;567;1 A;
76.0506398079906;-1.0498046875;-0.60302734375;5.66999998568463;568;1 A;
76.0606398079653;-1.0504150390625;-0.59844970703125;5.67999998565938;569;1 A;
76.0706398079401;-1.0498046875;-0.59600830078125;5.68999998563413;570;1 A;
76.0806398079148;-1.0498046875;-0.60028076171875;5.69999998560888;571;1 A;
76.0906398078896;-1.04949951171875;-0.61370849609375;5.70999998558364;572;1 A;
76.1006398078644;-1.0498046875;-0.60333251953125;5.71999998555839;573;1 A;
76.1106398078391;-1.05010986328125;-0.61004638671875;5.72999998553314;574;1 A;
76.1206398078139;-1.0491943359375;-0.60882568359375;5.73999998550789;575;1 A;
76.1306398077886;-1.04949951171875;-0.61981201171875;5.74999998548265;576;1 A;
76.1406398077634;-1.04949951171875;-0.615234375;5.7599999854574;577;1 A;
76.1506398077381;-1.0498046875;-0.61553955078125;5.76999998543215;578;1 A;
76.1606398077129;-1.0498046875;-0.62042236328125;5.7799999854069;579;1 A;
76.1706398076876;-1.04949951171875;-0.62713623046875;5.78999998538166;580;1 A;
76.1806398076624;-1.04949951171875;-0.62042236328125;5.79999998535641;581;1 A;
76.1906398076371;-1.0498046875;-0.618896484375;5.80999998533116;582;1 A;
76.2006398076119;-1.05010986328125;-0.61737060546875;5.81999998530591;583;1 A;
76.2106398075866;-1.04949951171875;-0.6298828125;5.82999998528066;584;1 A;
76.2206398075614;-1.04949951171875;-0.61614990234375;5.83999998525542;585;1 A;
76.2306398075361;-1.0498046875;-0.6207275390625;5.84999998523017;586;1 A;
76.2406398075109;-1.05010986328125;-0.62042236328125;5.85999998520492;587;1 A;
76.2506398074856;-1.04949951171875;-0.62774658203125;5.86999998517967;588;1 A;
76.2606398074604;-1.05010986328125;-0.61798095703125;5.87999998515443;589;1 A;
76.2706398074351;-1.04949951171875;-0.61309814453125;5.88999998512918;590;1 A;
76.2806398074099;-1.04949951171875;-0.616455078125;5.89999998510393;591;1 A;
76.2906398073847;-1.04888916015625;-0.62591552734375;5.90999998507868;592;1 A;
76.3006398073594;-1.05010986328125;-0.6158447265625;5.91999998505344;593;1 A;
76.3106398073342;-1.04949951171875;-0.6182861328125;5.92999998502819;594;1 A;
76.3206398073089;-1.0491943359375;-0.6146240234375;5.93999998500294;595;1 A;
76.3306398072837;-1.04949951171875;-0.62530517578125;5.94999998497769;596;1 A;
76.3406398072584;-1.0491943359375;-0.6134033203125;5.95999998495245;597;1 A;
76.3506398072332;-1.0498046875;-0.615234375;5.9699999849272;598;1 A;
76.3606398072079;-1.0498046875;-0.6195068359375;5.97999998490195;599;1 A;
76.3706398071827;-1.0498046875;-0.62591552734375;5.9899999848767;600;1 A;
76.3806398071574;-1.0491943359375;-0.61981201171875;5.99999998485146;601;1 A;
76.3906398071322;-1.0491943359375;-0.61767578125;6.00999998482621;602;1 A;
76.4006398071069;-1.0498046875;-0.62164306640625;6.01999998480096;603;1 A;
76.4106398070817;-1.0491943359375;-0.63934326171875;6.02999998477571;604;1 A;
76.4206398070564;-1.04949951171875;-0.62652587890625;6.03999998475047;605;1 A;
76.4306398070312;-1.04888916015625;-0.63079833984375;6.04999998472522;606;1 A;
76.4406398070059;-1.04949951171875;-0.63018798828125;6.05999998469997;607;1 A;
76.4506398069807;-1.0498046875;-0.63934326171875;6.06999998467472;608;1 A;
76.4606398069554;-1.04949951171875;-0.63232421875;6.07999998464948;609;1 A;
76.4706398069302;-1.0491943359375;-0.626220703125;6.08999998462423;610;1 A;
76.4806398069049;-1.0498046875;-0.62957763671875;6.09999998459898;611;1 A;
76.4906398068797;-1.0491943359375;-0.6341552734375;6.10999998457373;612;1 A;
76.5006398068545;-1.04949951171875;-0.62652587890625;6.11999998454849;613;1 A;
76.5106398068292;-1.05010986328125;-0.62530517578125;6.12999998452324;614;1 A;
76.520639806804;-1.0491943359375;-0.62347412109375;6.13999998449799;615;1 A;
76.5306398067787;-1.04949951171875;-0.63873291015625;6.14999998447274;616;1 A;
76.5406398067535;-1.05010986328125;-0.62408447265625;6.1599999844475;617;1 A;
76.5506398067282;-1.05010986328125;-0.62408447265625;6.16999998442225;618;1 A;
76.560639806703;-1.0498046875;-0.62713623046875;6.179999984397;619;1 A;
76.5706398066777;-1.0498046875;-0.633544921875;6.18999998437175;620;1 A;
76.5806398066525;-1.0504150390625;-0.62713623046875;6.1999999843465;621;1 A;
76.5906398066272;-1.0498046875;-0.623779296875;6.20999998432126;622;1 A;
76.600639806602;-1.04949951171875;-0.6268310546875;6.21999998429601;623;1 A;
76.6106398065767;-1.0498046875;-0.63873291015625;6.22999998427076;624;1 A;
76.6206398065515;-1.0491943359375;-0.628662109375;6.23999998424551;625;1 A;
76.6306398065262;-1.0491943359375;-0.63232421875;6.24999998422027;626;1 A;
76.640639806501;-1.04949951171875;-0.63018798828125;6.25999998419502;627;1 A;
76.6506398064757;-1.0491943359375;-0.64208984375;6.26999998416977;628;1 A;
76.6606398064505;-1.0491943359375;-0.63079833984375;6.27999998414452;629;1 A;
76.6706398064252;-1.0498046875;-0.62591552734375;6.28999998411928;630;1 A;
76.6806398064;-1.04949951171875;-0.6280517578125;6.29999998409403;631;1 A;
76.6906398063747;-1.04949951171875;-0.63232421875;6.30999998406878;632;1 A;
76.7006398063495;-1.04949951171875;-0.626220703125;6.31999998404353;633;1 A;
76.7106398063243;-1.04949951171875;-0.62347412109375;6.32999998401829;634;1 A;
76.720639806299;-1.0491943359375;-0.62530517578125;6.33999998399304;635;1 A;
76.7306398062738;-1.0491943359375;-0.64056396484375;6.34999998396779;636;1 A;
76.7406398062485;-1.05010986328125;-0.623779296875;6.35999998394254;637;1 A;
76.7506398062233;-1.0498046875;-0.62744140625;6.3699999839173;638;1 A;
76.760639806198;-1.05010986328125;-0.62896728515625;6.37999998389205;639;1 A;
76.7706398061728;-1.04949951171875;-0.6365966796875;6.3899999838668;640;1 A;
76.7806398061475;-1.0498046875;-0.63079833984375;6.39999998384155;641;1 A;
76.7906398061223;-1.04949951171875;-0.62530517578125;6.40999998381631;642;1 A;
76.800639806097;-1.0491943359375;-0.62896728515625;6.41999998379106;643;1 A;
76.8106398060718;-1.0498046875;-0.64056396484375;6.42999998376581;644;1 A;
76.8206398060465;-1.0498046875;-0.6304931640625;6.43999998374056;645;1 A;
76.8306398060213;-1.05010986328125;-0.63568115234375;6.44999998371532;646;1 A;
76.840639805996;-1.0498046875;-0.6353759765625;6.45999998369007;647;1 A;
76.8506398059708;-1.04888916015625;-0.64788818359375;6.46999998366482;648;1 A;
76.8606398059455;-1.0498046875;-0.63812255859375;6.47999998363957;649;1 A;
76.8706398059203;-1.05010986328125;-0.63812255859375;6.48999998361433;650;1 A;
76.880639805895;-1.05010986328125;-0.64239501953125;6.49999998358908;651;1 A;
76.8906398058698;-1.05010986328125;-0.64697265625;6.50999998356383;652;1 A;
76.9006398058445;-1.04888916015625;-0.64300537109375;6.51999998353858;653;1 A;
76.9106398058193;-1.04949951171875;-0.64117431640625;6.52999998351333;654;1 A;
76.9206398057941;-1.0498046875;-0.64544677734375;6.53999998348809;655;1 A;
76.9306398057688;-1.0491943359375;-0.66009521484375;6.54999998346284;656;1 A;
76.9406398057436;-1.04949951171875;-0.6439208984375;6.55999998343759;657;1 A;
76.9506398057183;-1.04949951171875;-0.64849853515625;6.56999998341234;658;1 A;
76.9606398056931;-1.04888916015625;-0.64910888671875;6.5799999833871;659;1 A;
76.9706398056678;-1.04949951171875;-0.66162109375;6.58999998336185;660;1 A;
76.9806398056426;-1.0498046875;-0.6524658203125;6.5999999833366;661;1 A;
76.9906398056173;-1.04949951171875;-0.64727783203125;6.60999998331135;662;1 A;
77.0006398055921;-1.0491943359375;-0.65582275390625;6.61999998328611;663;1 A;
77.0106398055668;-1.0491943359375;-0.66680908203125;6.62999998326086;664;1 A;
77.0206398055416;-1.04949951171875;-0.65673828125;6.63999998323561;665;1 A;
77.0306398055163;-1.0498046875;-0.654296875;6.64999998321036;666;1 A;
77.0406398054911;-1.0498046875;-0.65643310546875;6.65999998318512;667;1 A;
77.0506398054658;-1.04949951171875;-0.67138671875;6.66999998315987;668;1 A;
77.0606398054406;-1.04949951171875;-0.6536865234375;6.67999998313462;669;1 A;
77.0706398054153;-1.0498046875;-0.6549072265625;6.68999998310937;670;1 A;
77.0806398053901;-1.04949951171875;-0.65948486328125;6.69999998308413;671;1 A;
77.0906398053648;-1.05010986328125;-0.670166015625;6.70999998305888;672;1 A;
77.1006398053396;-1.05010986328125;-0.66650390625;6.71999998303363;673;1 A;
77.1106398053143;-1.05010986328125;-0.65643310546875;6.72999998300838;674;1 A;
77.1206398052891;-1.04949951171875;-0.662841796875;6.73999998298314;675;1 A;
77.1306398052639;-1.0498046875;-0.67535400390625;6.74999998295789;676;1 A;
77.1406398052386;-1.04949951171875;-0.66131591796875;6.75999998293264;677;1 A;
77.1506398052134;-1.04949951171875;-0.6640625;6.76999998290739;678;1 A;
77.1606398051881;-1.04949951171875;-0.6591796875;6.77999998288215;679;1 A;
77.1706398051629;-1.04949951171875;-0.6695556640625;6.7899999828569;680;1 A;
77.1806398051376;-1.04949951171875;-0.65643310546875;6.79999998283165;681;1 A;
77.1906398051124;-1.0498046875;-0.648193359375;6.8099999828064;682;1 A;
77.2006398050871;-1.0498046875;-0.65460205078125;6.81999998278116;683;1 A;
77.2106398050619;-1.0498046875;-0.6634521484375;6.82999998275591;684;1 A;
77.2206398050366;-1.0498046875;-0.65765380859375;6.83999998273066;685;1 A;
77.2306398050114;-1.0498046875;-0.655517578125;6.84999998270541;686;1 A;
77.2406398049861;-1.04949951171875;-0.65948486328125;6.85999998268016;687;1 A;
77.2506398049609;-1.04949951171875;-0.67413330078125;6.86999998265492;688;1 A;
77.2606398049356;-1.0498046875;-0.66314697265625;6.87999998262967;689;1 A;
77.2706398049104;-1.0498046875;-0.6707763671875;6.88999998260442;690;1 A;
77.2806398048851;-1.05072021484375;-0.6732177734375;6.89999998257917;691;1 A;
77.2906398048599;-1.04949951171875;-0.68603515625;6.90999998255393;692;1 A;
77.3006398048346;-1.0498046875;-0.67901611328125;6.91999998252868;693;1 A;
77.3106398048094;-1.0498046875;-0.66925048828125;6.92999998250343;694;1 A;
77.3206398047842;-1.05010986328125;-0.67535400390625;6.93999998247818;695;1 A;
77.3306398047589;-1.04949951171875;-0.68328857421875;6.94999998245294;696;1 A;
77.3406398047337;-1.04949951171875;-0.6719970703125;6.95999998242769;697;1 A;
77.3506398047084;-1.04949951171875;-0.6707763671875;6.96999998240244;698;1 A;
77.3606398046832;-1.0491943359375;-0.6695556640625;6.97999998237719;699;1 A;
77.3706398046579;-1.0491943359375;-0.6817626953125;6.98999998235195;700;1 A;
