Time (s);WE(1).Potential (V);WE(1).Current (A);Corrected time (s);Index;Current range
0.52116299868419;0.400360107421875;0.01815185546875;0;1;100 mA
0.531162998658942;0.400482177734375;0.012762451171875;0.00999999997475243;2;100 mA
0.541162998633695;0.400543212890625;0.0098785400390625;0.0199999999495049;3;100 mA
0.551162998608447;0.400482177734375;0.00823974609375;0.0299999999242573;4;100 mA
0.5611629985832;0.4005126953125;0.0070892333984375;0.0399999998990097;5;100 mA
0.571162998557952;0.400543212890625;0.006134033203125;0.0499999998737621;6;100 mA
0.581162998532704;0.40045166015625;0.005548095703125;0.0599999998485146;7;100 mA
0.591162998507457;0.40057373046875;0.005059814453125;0.069999999823267;8;100 mA
0.601162998482209;0.40057373046875;0.004583740234375;0.0799999997980194;9;100 mA
0.611162998456962;0.400421142578125;0.0042877197265625;0.0899999997727718;10;100 mA
0.621162998431714;0.40057373046875;0.00405426025390625;0.0999999997475243;11;100 mA
0.631162998406467;0.40057373046875;0.0037530517578125;0.109999999722277;12;100 mA
0.641162998381219;0.400665283203125;0.00357696533203125;0.119999999697029;13;100 mA
0.651162998355971;0.400665283203125;0.0034619140625;0.129999999671782;14;100 mA
0.661162998330724;0.400604248046875;0.00322845458984375;0.139999999646534;15;100 mA
0.671162998305476;0.400604248046875;0.00314178466796875;0.149999999621286;16;100 mA
0.681162998280229;0.40069580078125;0.00301177978515625;0.159999999596039;17;100 mA
0.691162998254981;0.400634765625;0.00281646728515625;0.169999999570791;18;100 mA
0.701162998229734;0.400634765625;0.00278594970703125;0.179999999545544;19;100 mA
0.711162998204486;0.400665283203125;0.0027020263671875;0.189999999520296;20;100 mA
0.721162998179238;0.400543212890625;0.00257293701171875;0.199999999495049;21;100 mA
0.731162998153991;0.400665283203125;0.00252655029296875;0.209999999469801;22;100 mA
0.741162998128743;0.400634765625;0.00249847412109375;0.219999999444553;23;100 mA
0.751162998103496;0.40057373046875;0.00240020751953125;0.229999999419306;24;100 mA
0.761162998078248;0.400604248046875;0.00236480712890625;0.239999999394058;25;100 mA
0.771162998053001;0.400634765625;0.00232147216796875;0.249999999368811;26;100 mA
0.781162998027753;0.400543212890625;0.0021820068359375;0.259999999343563;27;100 mA
0.791162998002505;0.400604248046875;0.002200927734375;0.269999999318316;28;100 mA
0.801162997977258;0.400634765625;0.0021673583984375;0.279999999293068;29;100 mA
0.81116299795201;0.400543212890625;0.00204132080078125;0.28999999926782;30;100 mA
0.821162997926763;0.40057373046875;0.00205474853515625;0.299999999242573;31;100 mA
0.831162997901515;0.4005126953125;0.00206451416015625;0.309999999217325;32;100 mA
0.841162997876268;0.400482177734375;0.00197052001953125;0.319999999192078;33;100 mA
0.85116299785102;0.400634765625;0.00199188232421875;0.32999999916683;34;100 mA
0.861162997825772;0.400482177734375;0.0020062255859375;0.339999999141583;35;100 mA
0.871162997800525;0.400482177734375;0.00190460205078125;0.349999999116335;36;100 mA
0.881162997775277;0.400604248046875;0.00191650390625;0.359999999091087;37;100 mA
0.89116299775003;0.40045166015625;0.0019049072265625;0.36999999906584;38;100 mA
0.901162997724782;0.40057373046875;0.00179595947265625;0.379999999040592;39;100 mA
0.911162997699535;0.400543212890625;0.00184326171875;0.389999999015345;40;100 mA
0.921162997674287;0.400482177734375;0.0018292236328125;0.399999998990097;41;100 mA
0.931162997649039;0.4005126953125;0.00174163818359375;0.40999999896485;42;100 mA
0.941162997623792;0.400482177734375;0.001763916015625;0.419999998939602;43;100 mA
0.951162997598544;0.400482177734375;0.001806640625;0.429999998914354;44;100 mA
0.961162997573297;0.4005126953125;0.001717529296875;0.439999998889107;45;100 mA
0.971162997548049;0.40045166015625;0.0017303466796875;0.449999998863859;46;100 mA
0.981162997522802;0.40045166015625;0.0017315673828125;0.459999998838612;47;100 mA
0.991162997497554;0.400634765625;0.00162445068359375;0.469999998813364;48;100 mA
1.00116299747231;0.400482177734375;0.00166473388671875;0.479999998788116;49;100 mA
1.01116299744706;0.4005126953125;0.0016754150390625;0.489999998762869;50;100 mA
1.02116299742181;0.400665283203125;0.00159759521484375;0.499999998737621;51;100 mA
1.03116299739656;0.400482177734375;0.00164215087890625;0.509999998712374;52;100 mA
1.04116299737132;0.400634765625;0.001666259765625;0.519999998687126;53;100 mA
1.05116299734607;0.400634765625;0.00158599853515625;0.529999998661879;54;100 mA
1.06116299732082;0.400543212890625;0.00161895751953125;0.539999998636631;55;100 mA
1.07116299729557;0.40057373046875;0.00163299560546875;0.549999998611383;56;100 mA
1.08116299727033;0.400634765625;0.0015594482421875;0.559999998586136;57;100 mA
1.09116299724508;0.400543212890625;0.00159820556640625;0.569999998560888;58;100 mA
1.10116299721983;0.40057373046875;0.00161956787109375;0.579999998535641;59;100 mA
1.11116299719458;0.40057373046875;0.001507568359375;0.589999998510393;60;100 mA
1.12116299716934;0.400604248046875;0.00156524658203125;0.599999998485146;61;100 mA
1.13116299714409;0.400634765625;0.001572265625;0.609999998459898;62;100 mA
1.14116299711884;0.400543212890625;0.00148834228515625;0.61999999843465;63;100 mA
1.15116299709359;0.400665283203125;0.00152008056640625;0.629999998409403;64;100 mA
1.16116299706835;0.400634765625;0.00154541015625;0.639999998384155;65;100 mA
1.1711629970431;0.400604248046875;0.00149322509765625;0.649999998358908;66;100 mA
1.18116299701785;0.400604248046875;0.00150848388671875;0.65999999833366;67;100 mA
1.1911629969926;0.400665283203125;0.0015252685546875;0.669999998308413;68;100 mA
1.20116299696735;0.400604248046875;0.00142822265625;0.679999998283165;69;100 mA
1.21116299694211;0.40069580078125;0.00145904541015625;0.689999998257917;70;100 mA
1.22116299691686;0.400604248046875;0.00149932861328125;0.69999999823267;71;100 mA
1.23116299689161;0.400604248046875;0.0014141845703125;0.709999998207422;72;100 mA
1.24116299686636;0.400634765625;0.00144683837890625;0.719999998182175;73;100 mA
1.25116299684112;0.40057373046875;0.00150848388671875;0.729999998156927;74;100 mA
1.26116299681587;0.400604248046875;0.00142333984375;0.73999999813168;75;100 mA
1.27116299679062;0.400634765625;0.00146209716796875;0.749999998106432;76;100 mA
1.28116299676537;0.4005126953125;0.00148101806640625;0.759999998081184;77;100 mA
1.29116299674013;0.4005126953125;0.0013818359375;0.769999998055937;78;100 mA
1.30116299671488;0.400604248046875;0.00142242431640625;0.779999998030689;79;100 mA
1.31116299668963;0.4005126953125;0.001435546875;0.789999998005442;80;100 mA
1.32116299666438;0.400543212890625;0.00137451171875;0.799999997980194;81;100 mA
1.33116299663914;0.4005126953125;0.0014404296875;0.809999997954947;82;100 mA
1.34116299661389;0.400482177734375;0.00145294189453125;0.819999997929699;83;100 mA
1.35116299658864;0.40057373046875;0.00136383056640625;0.829999997904451;84;100 mA
1.36116299656339;0.400482177734375;0.0014093017578125;0.839999997879204;85;100 mA
1.37116299653815;0.40045166015625;0.001429443359375;0.849999997853956;86;100 mA
1.3811629965129;0.400604248046875;0.001361083984375;0.859999997828709;87;100 mA
1.39116299648765;0.400482177734375;0.001392822265625;0.869999997803461;88;100 mA
1.4011629964624;0.40045166015625;0.00144134521484375;0.879999997778214;89;100 mA
1.41116299643716;0.40057373046875;0.00136260986328125;0.889999997752966;90;100 mA
1.42116299641191;0.4005126953125;0.00136444091796875;0.899999997727718;91;100 mA
1.43116299638666;0.40045166015625;0.0014166259765625;0.909999997702471;92;100 mA
1.44116299636141;0.400604248046875;0.001314697265625;0.919999997677223;93;100 mA
1.45116299633617;0.400482177734375;0.0013336181640625;0.929999997651976;94;100 mA
1.46116299631092;0.40045166015625;0.0013836669921875;0.939999997626728;95;100 mA
1.47116299628567;0.400665283203125;0.001300048828125;0.949999997601481;96;100 mA
1.48116299626042;0.400482177734375;0.00134124755859375;0.959999997576233;97;100 mA
1.49116299623518;0.4005126953125;0.0013446044921875;0.969999997550985;98;100 mA
1.50116299620993;0.400634765625;0.00128570556640625;0.979999997525738;99;100 mA
1.51116299618468;0.400390625;0.00133697509765625;0.98999999750049;100;100 mA
1.52116299615943;0.400543212890625;0.00134368896484375;0.999999997475243;101;100 mA
1.53116299613419;0.400634765625;0.00128143310546875;1.00999999745;102;100 mA
1.54116299610894;0.400482177734375;0.00131591796875;1.01999999742475;103;100 mA
1.55116299608369;0.40057373046875;0.0013677978515625;1.0299999973995;104;100 mA
1.56116299605844;0.400665283203125;0.00126953125;1.03999999737425;105;100 mA
1.57116299603319;0.400604248046875;0.00132080078125;1.049999997349;106;100 mA
1.58116299600795;0.400665283203125;0.00134552001953125;1.05999999732376;107;100 mA
1.5911629959827;0.400634765625;0.0012457275390625;1.06999999729851;108;100 mA
1.60116299595745;0.400604248046875;0.00128570556640625;1.07999999727326;109;100 mA
1.6111629959322;0.400665283203125;0.0013250732421875;1.08999999724801;110;100 mA
1.62116299590696;0.400604248046875;0.00126556396484375;1.09999999722277;111;100 mA
1.63116299588171;0.400634765625;0.0012750244140625;1.10999999719752;112;100 mA
1.64116299585646;0.400665283203125;0.0012847900390625;1.11999999717227;113;100 mA
1.65116299583121;0.400604248046875;0.001224365234375;1.12999999714702;114;100 mA
1.66116299580597;0.400665283203125;0.00126678466796875;1.13999999712178;115;100 mA
1.67116299578072;0.400604248046875;0.001307373046875;1.14999999709653;116;100 mA
1.68116299575547;0.400604248046875;0.00122955322265625;1.15999999707128;117;100 mA
1.69116299573022;0.40069580078125;0.0012677001953125;1.16999999704603;118;100 mA
1.70116299570498;0.400543212890625;0.0013201904296875;1.17999999702079;119;100 mA
1.71116299567973;0.400604248046875;0.00121826171875;1.18999999699554;120;100 mA
1.72116299565448;0.400634765625;0.00127716064453125;1.19999999697029;121;100 mA
1.73116299562923;0.400604248046875;0.001300048828125;1.20999999694504;122;100 mA
1.74116299560399;0.40057373046875;0.0012158203125;1.2199999969198;123;100 mA
1.75116299557874;0.400634765625;0.0012628173828125;1.22999999689455;124;100 mA
1.76116299555349;0.4005126953125;0.00128875732421875;1.2399999968693;125;100 mA
1.77116299552824;0.400665283203125;0.00120574951171875;1.24999999684405;126;100 mA
1.781162995503;0.40057373046875;0.0012353515625;1.25999999681881;127;100 mA
1.79116299547775;0.40045166015625;0.00124755859375;1.26999999679356;128;100 mA
1.8011629954525;0.400604248046875;0.00119537353515625;1.27999999676831;129;100 mA
1.81116299542725;0.4005126953125;0.00123382568359375;1.28999999674306;130;100 mA
1.82116299540201;0.40045166015625;0.00127105712890625;1.29999999671782;131;100 mA
1.83116299537676;0.400604248046875;0.00117523193359375;1.30999999669257;132;100 mA
1.84116299535151;0.4005126953125;0.00122711181640625;1.31999999666732;133;100 mA
1.85116299532626;0.400390625;0.001234130859375;1.32999999664207;134;100 mA
1.86116299530102;0.40057373046875;0.00115875244140625;1.33999999661683;135;100 mA
1.87116299527577;0.40057373046875;0.0012115478515625;1.34999999659158;136;100 mA
1.88116299525052;0.400421142578125;0.00124053955078125;1.35999999656633;137;100 mA
1.89116299522527;0.400543212890625;0.00117431640625;1.36999999654108;138;100 mA
1.90116299520002;0.40045166015625;0.001236572265625;1.37999999651583;139;100 mA
1.91116299517478;0.400482177734375;0.001221923828125;1.38999999649059;140;100 mA
1.92116299514953;0.400665283203125;0.001160888671875;1.39999999646534;141;100 mA
1.93116299512428;0.400482177734375;0.00119903564453125;1.40999999644009;142;100 mA
1.94116299509903;0.400482177734375;0.00122039794921875;1.41999999641484;143;100 mA
1.95116299507379;0.400634765625;0.00115936279296875;1.4299999963896;144;100 mA
1.96116299504854;0.400543212890625;0.00120819091796875;1.43999999636435;145;100 mA
1.97116299502329;0.400543212890625;0.00122314453125;1.4499999963391;146;100 mA
1.98116299499804;0.40069580078125;0.001138916015625;1.45999999631385;147;100 mA
1.9911629949728;0.40045166015625;0.001187744140625;1.46999999628861;148;100 mA
2.00116299494755;0.40057373046875;0.00121612548828125;1.47999999626336;149;100 mA
2.0111629949223;0.400665283203125;0.0011297607421875;1.48999999623811;150;100 mA
2.02116299489705;0.400543212890625;0.00118804931640625;1.49999999621286;151;100 mA
2.03116299487181;0.400604248046875;0.00122161865234375;1.50999999618762;152;100 mA
2.04116299484656;0.400634765625;0.00115386962890625;1.51999999616237;153;100 mA
2.05116299482131;0.40057373046875;0.001207275390625;1.52999999613712;154;100 mA
2.06116299479606;0.400634765625;0.0012261962890625;1.53999999611187;155;100 mA
2.07116299477082;0.400665283203125;0.00116607666015625;1.54999999608663;156;100 mA
2.08116299474557;0.400604248046875;0.0012188720703125;1.55999999606138;157;100 mA
2.09116299472032;0.400634765625;0.0012286376953125;1.56999999603613;158;100 mA
2.10116299469507;0.400604248046875;0.00116180419921875;1.57999999601088;159;100 mA
2.11116299466983;0.40069580078125;0.0012042236328125;1.58999999598564;160;100 mA
2.12116299464458;0.40069580078125;0.00122528076171875;1.59999999596039;161;100 mA
2.13116299461933;0.400604248046875;0.001142578125;1.60999999593514;162;100 mA
2.14116299459408;0.400634765625;0.00117584228515625;1.61999999590989;163;100 mA
2.15116299456884;0.400604248046875;0.001231689453125;1.62999999588465;164;100 mA
2.16116299454359;0.40057373046875;0.00116424560546875;1.6399999958594;165;100 mA
2.17116299451834;0.40069580078125;0.001207275390625;1.64999999583415;166;100 mA
2.18116299449309;0.400604248046875;0.00122833251953125;1.6599999958089;167;100 mA
2.19116299446785;0.400634765625;0.00112823486328125;1.66999999578366;168;100 mA
2.2011629944426;0.400665283203125;0.0011712646484375;1.67999999575841;169;100 mA
2.21116299441735;0.400543212890625;0.0012017822265625;1.68999999573316;170;100 mA
2.2211629943921;0.400634765625;0.0011376953125;1.69999999570791;171;100 mA
2.23116299436685;0.400634765625;0.00118896484375;1.70999999568267;172;100 mA
2.24116299434161;0.4005126953125;0.0012457275390625;1.71999999565742;173;100 mA
2.25116299431636;0.40057373046875;0.00118011474609375;1.72999999563217;174;100 mA
2.26116299429111;0.400604248046875;0.00119537353515625;1.73999999560692;175;100 mA
2.27116299426586;0.4005126953125;0.00124114990234375;1.74999999558167;176;100 mA
2.28116299424062;0.40057373046875;0.00117156982421875;1.75999999555643;177;100 mA
2.29116299421537;0.40057373046875;0.00120758056640625;1.76999999553118;178;100 mA
2.30116299419012;0.400390625;0.001243896484375;1.77999999550593;179;100 mA
2.31116299416487;0.400604248046875;0.00114990234375;1.78999999548068;180;100 mA
2.32116299413963;0.400543212890625;0.00120758056640625;1.79999999545544;181;100 mA
2.33116299411438;0.400482177734375;0.001234130859375;1.80999999543019;182;100 mA
2.34116299408913;0.4005126953125;0.0011676025390625;1.81999999540494;183;100 mA
2.35116299406388;0.400482177734375;0.001234130859375;1.82999999537969;184;100 mA
2.36116299403864;0.400421142578125;0.00126251220703125;1.83999999535445;185;100 mA
2.37116299401339;0.400634765625;0.00120086669921875;1.8499999953292;186;100 mA
2.38116299398814;0.400482177734375;0.0012371826171875;1.85999999530395;187;100 mA
2.39116299396289;0.400421142578125;0.00125640869140625;1.8699999952787;188;100 mA
2.40116299393765;0.400634765625;0.00118865966796875;1.87999999525346;189;100 mA
2.4111629939124;0.4005126953125;0.00123291015625;1.88999999522821;190;100 mA
2.42116299388715;0.40045166015625;0.0012322998046875;1.89999999520296;191;100 mA
2.4311629938619;0.400665283203125;0.00115570068359375;1.90999999517771;192;100 mA
2.44116299383666;0.400482177734375;0.00118621826171875;1.91999999515247;193;100 mA
2.45116299381141;0.4005126953125;0.00122772216796875;1.92999999512722;194;100 mA
2.46116299378616;0.400665283203125;0.00115631103515625;1.93999999510197;195;100 mA
2.47116299376091;0.400482177734375;0.00117767333984375;1.94999999507672;196;100 mA
2.48116299373567;0.40057373046875;0.001221923828125;1.95999999505148;197;100 mA
2.49116299371042;0.400665283203125;0.00113372802734375;1.96999999502623;198;100 mA
2.50116299368517;0.4005126953125;0.0012091064453125;1.97999999500098;199;100 mA
2.51116299365992;0.4005126953125;0.00121002197265625;1.98999999497573;200;100 mA
2.52116299363468;0.400665283203125;0.0011279296875;1.99999999495049;201;100 mA
2.53116299360943;0.400634765625;0.0011846923828125;2.00999999492524;202;100 mA
2.54116299358418;0.40057373046875;0.00120330810546875;2.01999999489999;203;100 mA
2.55116299355893;0.400604248046875;0.00112884521484375;2.02999999487474;204;100 mA
2.56116299353369;0.400665283203125;0.00118408203125;2.0399999948495;205;100 mA
2.57116299350844;0.400634765625;0.001207275390625;2.04999999482425;206;100 mA
2.58116299348319;0.40057373046875;0.00114501953125;2.059999994799;207;100 mA
2.59116299345794;0.400604248046875;0.0011688232421875;2.06999999477375;208;100 mA
2.60116299343269;0.400604248046875;0.00122314453125;2.0799999947485;209;100 mA
2.61116299340745;0.400634765625;0.0011419677734375;2.08999999472326;210;100 mA
2.6211629933822;0.400634765625;0.00118896484375;2.09999999469801;211;100 mA
2.63116299335695;0.400634765625;0.00118408203125;2.10999999467276;212;100 mA
2.6411629933317;0.400543212890625;0.0011114501953125;2.11999999464751;213;100 mA
2.65116299330646;0.40069580078125;0.00116546630859375;2.12999999462227;214;100 mA
2.66116299328121;0.40057373046875;0.0011859130859375;2.13999999459702;215;100 mA
2.67116299325596;0.400604248046875;0.00111663818359375;2.14999999457177;216;100 mA
2.68116299323071;0.400665283203125;0.001156005859375;2.15999999454652;217;100 mA
2.69116299320547;0.400543212890625;0.0012005615234375;2.16999999452128;218;100 mA
2.70116299318022;0.400634765625;0.00113189697265625;2.17999999449603;219;100 mA
2.71116299315497;0.400604248046875;0.001165771484375;2.18999999447078;220;100 mA
2.72116299312972;0.400604248046875;0.00118377685546875;2.19999999444553;221;100 mA
2.73116299310448;0.400604248046875;0.00110595703125;2.20999999442029;222;100 mA
2.74116299307923;0.400543212890625;0.001156005859375;2.21999999439504;223;100 mA
2.75116299305398;0.40045166015625;0.00120086669921875;2.22999999436979;224;100 mA
2.76116299302873;0.40057373046875;0.00112640380859375;2.23999999434454;225;100 mA
2.77116299300349;0.40057373046875;0.00118133544921875;2.2499999943193;226;100 mA
2.78116299297824;0.400482177734375;0.001201171875;2.25999999429405;227;100 mA
2.79116299295299;0.40057373046875;0.0011376953125;2.2699999942688;228;100 mA
2.80116299292774;0.400543212890625;0.00118408203125;2.27999999424355;229;100 mA
2.8111629929025;0.400360107421875;0.0011993408203125;2.28999999421831;230;100 mA
2.82116299287725;0.400604248046875;0.00112701416015625;2.29999999419306;231;100 mA
2.831162992852;0.400543212890625;0.00116058349609375;2.30999999416781;232;100 mA
2.84116299282675;0.400390625;0.00119049072265625;2.31999999414256;233;100 mA
2.85116299280151;0.400543212890625;0.0011175537109375;2.32999999411732;234;100 mA
2.86116299277626;0.4005126953125;0.00116119384765625;2.33999999409207;235;100 mA
2.87116299275101;0.40045166015625;0.00118133544921875;2.34999999406682;236;100 mA
2.88116299272576;0.400726318359375;0.0011016845703125;2.35999999404157;237;100 mA
2.89116299270052;0.4005126953125;0.00114227294921875;2.36999999401633;238;100 mA
2.90116299267527;0.40045166015625;0.00118927001953125;2.37999999399108;239;100 mA
2.91116299265002;0.400604248046875;0.00111541748046875;2.38999999396583;240;100 mA
2.92116299262477;0.4005126953125;0.0011480712890625;2.39999999394058;241;100 mA
2.93116299259952;0.4005126953125;0.00117218017578125;2.40999999391533;242;100 mA
2.94116299257428;0.400634765625;0.0010992431640625;2.41999999389009;243;100 mA
2.95116299254903;0.400482177734375;0.0011517333984375;2.42999999386484;244;100 mA
2.96116299252378;0.400543212890625;0.00119171142578125;2.43999999383959;245;100 mA
2.97116299249853;0.40069580078125;0.00111602783203125;2.44999999381434;246;100 mA
2.98116299247329;0.400482177734375;0.0011614990234375;2.4599999937891;247;100 mA
2.99116299244804;0.400543212890625;0.00120269775390625;2.46999999376385;248;100 mA
3.00116299242279;0.40069580078125;0.00112396240234375;2.4799999937386;249;100 mA
3.01116299239754;0.4005126953125;0.00114593505859375;2.48999999371335;250;100 mA
3.0211629923723;0.400604248046875;0.001190185546875;2.49999999368811;251;100 mA
3.03116299234705;0.400726318359375;0.0011309814453125;2.50999999366286;252;100 mA
3.0411629923218;0.40057373046875;0.0011492919921875;2.51999999363761;253;100 mA
3.05116299229655;0.40057373046875;0.00119659423828125;2.52999999361236;254;100 mA
3.06116299227131;0.400634765625;0.00112152099609375;2.53999999358712;255;100 mA
3.07116299224606;0.400665283203125;0.00113128662109375;2.54999999356187;256;100 mA
3.08116299222081;0.40057373046875;0.0011578369140625;2.55999999353662;257;100 mA
3.09116299219556;0.400634765625;0.0010711669921875;2.56999999351137;258;100 mA
3.10116299217032;0.400604248046875;0.001121826171875;2.57999999348613;259;100 mA
3.11116299214507;0.40057373046875;0.001131591796875;2.58999999346088;260;100 mA
3.12116299211982;0.400634765625;0.00107177734375;2.59999999343563;261;100 mA
3.13116299209457;0.400665283203125;0.00110107421875;2.60999999341038;262;100 mA
3.14116299206933;0.400604248046875;0.00114715576171875;2.61999999338514;263;100 mA
3.15116299204408;0.400604248046875;0.00108367919921875;2.62999999335989;264;100 mA
3.16116299201883;0.400665283203125;0.00111480712890625;2.63999999333464;265;100 mA
3.17116299199358;0.400634765625;0.00114349365234375;2.64999999330939;266;100 mA
3.18116299196834;0.400634765625;0.00106048583984375;2.65999999328415;267;100 mA
3.19116299194309;0.400726318359375;0.00109619140625;2.6699999932589;268;100 mA
3.20116299191784;0.4005126953125;0.0011260986328125;2.67999999323365;269;100 mA
3.21116299189259;0.40057373046875;0.00104522705078125;2.6899999932084;270;100 mA
3.22116299186735;0.400634765625;0.0010968017578125;2.69999999318316;271;100 mA
3.2311629918421;0.400543212890625;0.0011358642578125;2.70999999315791;272;100 mA
3.24116299181685;0.400634765625;0.00106658935546875;2.71999999313266;273;100 mA
3.2511629917916;0.400634765625;0.001109619140625;2.72999999310741;274;100 mA
3.26116299176635;0.400421142578125;0.00115203857421875;2.73999999308217;275;100 mA
3.27116299174111;0.40057373046875;0.0010723876953125;2.74999999305692;276;100 mA
3.28116299171586;0.400604248046875;0.00109466552734375;2.75999999303167;277;100 mA
3.29116299169061;0.400421142578125;0.00111053466796875;2.76999999300642;278;100 mA
3.30116299166536;0.40057373046875;0.00102935791015625;2.77999999298117;279;100 mA
3.31116299164012;0.40057373046875;0.00106842041015625;2.78999999295593;280;100 mA
3.32116299161487;0.4005126953125;0.0011151123046875;2.79999999293068;281;100 mA
3.33116299158962;0.400634765625;0.00103973388671875;2.80999999290543;282;100 mA
3.34116299156437;0.4005126953125;0.0010662841796875;2.81999999288018;283;100 mA
3.35116299153913;0.400390625;0.00113128662109375;2.82999999285494;284;100 mA
3.36116299151388;0.40057373046875;0.0010546875;2.83999999282969;285;100 mA
3.37116299148863;0.40045166015625;0.00107879638671875;2.84999999280444;286;100 mA
3.38116299146338;0.40045166015625;0.0011083984375;2.85999999277919;287;100 mA
3.39116299143814;0.400726318359375;0.0010302734375;2.86999999275395;288;100 mA
3.40116299141289;0.400543212890625;0.00107666015625;2.8799999927287;289;100 mA
3.41116299138764;0.40045166015625;0.0010870361328125;2.88999999270345;290;100 mA
3.42116299136239;0.400634765625;0.00102203369140625;2.8999999926782;291;100 mA
3.43116299133715;0.40045166015625;0.0010675048828125;2.90999999265296;292;100 mA
3.4411629913119;0.400543212890625;0.00110015869140625;2.91999999262771;293;100 mA
3.45116299128665;0.400634765625;0.00102508544921875;2.92999999260246;294;100 mA
3.4611629912614;0.40045166015625;0.00105865478515625;2.93999999257721;295;100 mA
3.47116299123616;0.400543212890625;0.0011224365234375;2.94999999255197;296;100 mA
3.48116299121091;0.400726318359375;0.00104278564453125;2.95999999252672;297;100 mA
3.49116299118566;0.400543212890625;0.00105865478515625;2.96999999250147;298;100 mA
3.50116299116041;0.400665283203125;0.0011065673828125;2.97999999247622;299;100 mA
3.51116299113517;0.400665283203125;0.00101654052734375;2.98999999245098;300;100 mA
3.52116299110992;0.400604248046875;0.00106201171875;2.99999999242573;301;100 mA
3.53116299108467;0.400604248046875;0.00108245849609375;3.00999999240048;302;100 mA
3.54116299105942;0.400634765625;0.00101165771484375;3.01999999237523;303;100 mA
3.55116299103418;0.400604248046875;0.001058349609375;3.02999999234999;304;100 mA
3.56116299100893;0.400604248046875;0.00110076904296875;3.03999999232474;305;100 mA
3.57116299098368;0.40069580078125;0.0010302734375;3.04999999229949;306;100 mA
3.58116299095843;0.400665283203125;0.00107421875;3.05999999227424;307;100 mA
3.59116299093319;0.400604248046875;0.00109893798828125;3.069999992249;308;100 mA
3.60116299090794;0.400604248046875;0.00102386474609375;3.07999999222375;309;100 mA
3.61116299088269;0.400634765625;0.001060791015625;3.0899999921985;310;100 mA
3.62116299085744;0.400634765625;0.0010931396484375;3.09999999217325;311;100 mA
3.63116299083219;0.400604248046875;0.00101318359375;3.109999992148;312;100 mA
3.64116299080695;0.400665283203125;0.00106201171875;3.11999999212276;313;100 mA
3.6511629907817;0.400604248046875;0.001083984375;3.12999999209751;314;100 mA
3.66116299075645;0.40057373046875;0.00101104736328125;3.13999999207226;315;100 mA
3.6711629907312;0.400665283203125;0.00105224609375;3.14999999204701;316;100 mA
3.68116299070596;0.400634765625;0.00108795166015625;3.15999999202177;317;100 mA
3.69116299068071;0.400604248046875;0.00100128173828125;3.16999999199652;318;100 mA
3.70116299065546;0.400634765625;0.00105377197265625;3.17999999197127;319;100 mA
3.71116299063021;0.400482177734375;0.0010723876953125;3.18999999194602;320;100 mA
3.72116299060497;0.400604248046875;0.00100341796875;3.19999999192078;321;100 mA
3.73116299057972;0.400634765625;0.0010418701171875;3.20999999189553;322;100 mA
3.74116299055447;0.40045166015625;0.001075439453125;3.21999999187028;323;100 mA
3.75116299052922;0.400604248046875;0.00101776123046875;3.22999999184503;324;100 mA
3.76116299050398;0.40057373046875;0.0010711669921875;3.23999999181979;325;100 mA
3.77116299047873;0.400421142578125;0.00112457275390625;3.24999999179454;326;100 mA
3.78116299045348;0.400604248046875;0.00105255126953125;3.25999999176929;327;100 mA
3.79116299042823;0.400543212890625;0.00109405517578125;3.26999999174404;328;100 mA
3.80116299040299;0.40045166015625;0.00113677978515625;3.2799999917188;329;100 mA
3.81116299037774;0.400543212890625;0.00103302001953125;3.28999999169355;330;100 mA
3.82116299035249;0.400604248046875;0.0010888671875;3.2999999916683;331;100 mA
3.83116299032724;0.400360107421875;0.00111297607421875;3.30999999164305;332;100 mA
3.841162990302;0.400604248046875;0.00103271484375;3.31999999161781;333;100 mA
3.85116299027675;0.400543212890625;0.00108978271484375;3.32999999159256;334;100 mA
3.8611629902515;0.400421142578125;0.00113739013671875;3.33999999156731;335;100 mA
3.87116299022625;0.400665283203125;0.00103668212890625;3.34999999154206;336;100 mA
3.88116299020101;0.400482177734375;0.00109344482421875;3.35999999151682;337;100 mA
3.89116299017576;0.400360107421875;0.001129150390625;3.36999999149157;338;100 mA
3.90116299015051;0.400665283203125;0.0010308837890625;3.37999999146632;339;100 mA
3.91116299012526;0.400421142578125;0.00107208251953125;3.38999999144107;340;100 mA
3.92116299010002;0.40045166015625;0.00110198974609375;3.39999999141583;341;100 mA
3.93116299007477;0.400665283203125;0.00101654052734375;3.40999999139058;342;100 mA
3.94116299004952;0.400482177734375;0.00106414794921875;3.41999999136533;343;100 mA
3.95116299002427;0.400482177734375;0.00110015869140625;3.42999999134008;344;100 mA
3.96116298999902;0.400665283203125;0.00102630615234375;3.43999999131483;345;100 mA
3.97116298997378;0.400543212890625;0.0010693359375;3.44999999128959;346;100 mA
3.98116298994853;0.400543212890625;0.0011065673828125;3.45999999126434;347;100 mA
3.99116298992328;0.400665283203125;0.00102752685546875;3.46999999123909;348;100 mA
4.00116298989803;0.400482177734375;0.0010736083984375;3.47999999121384;349;100 mA
4.01116298987279;0.40057373046875;0.00111083984375;3.4899999911886;350;100 mA
4.02116298984754;0.40069580078125;0.00102935791015625;3.49999999116335;351;100 mA
4.03116298982229;0.4005126953125;0.0010870361328125;3.5099999911381;352;100 mA
4.04116298979704;0.400634765625;0.0010882568359375;3.51999999111285;353;100 mA
4.0511629897718;0.400634765625;0.001014404296875;3.52999999108761;354;100 mA
4.06116298974655;0.40057373046875;0.001055908203125;3.53999999106236;355;100 mA
4.0711629897213;0.400543212890625;0.00109893798828125;3.54999999103711;356;100 mA
4.08116298969605;0.400665283203125;0.00102630615234375;3.55999999101186;357;100 mA
4.09116298967081;0.400604248046875;0.00105072021484375;3.56999999098662;358;100 mA
4.10116298964556;0.400634765625;0.00110870361328125;3.57999999096137;359;100 mA
4.11116298962031;0.400665283203125;0.00102203369140625;3.58999999093612;360;100 mA
4.12116298959506;0.400634765625;0.0010662841796875;3.59999999091087;361;100 mA
4.13116298956982;0.400604248046875;0.00107025146484375;3.60999999088563;362;100 mA
4.14116298954457;0.400634765625;0.00098236083984375;3.61999999086038;363;100 mA
4.15116298951932;0.40069580078125;0.0010516357421875;3.62999999083513;364;100 mA
4.16116298949407;0.400604248046875;0.001075439453125;3.63999999080988;365;100 mA
4.17116298946883;0.400665283203125;0.00098846435546875;3.64999999078464;366;100 mA
4.18116298944358;0.400665283203125;0.00104156494140625;3.65999999075939;367;100 mA
4.19116298941833;0.40057373046875;0.0010626220703125;3.66999999073414;368;100 mA
4.20116298939308;0.400634765625;0.0010003662109375;3.67999999070889;369;100 mA
4.21116298936784;0.400634765625;0.00105133056640625;3.68999999068365;370;100 mA
4.22116298934259;0.400482177734375;0.00109527587890625;3.6999999906584;371;100 mA
4.23116298931734;0.400604248046875;0.00100555419921875;3.70999999063315;372;100 mA
4.24116298929209;0.400665283203125;0.00105560302734375;3.7199999906079;373;100 mA
4.25116298926685;0.40045166015625;0.001080322265625;3.72999999058266;374;100 mA
4.2611629892416;0.400604248046875;0.00099517822265625;3.73999999055741;375;100 mA
4.27116298921635;0.40057373046875;0.0010540771484375;3.74999999053216;376;100 mA
4.2811629891911;0.400482177734375;0.0010650634765625;3.75999999050691;377;100 mA
4.29116298916585;0.40057373046875;0.00099761962890625;3.76999999048167;378;100 mA
4.30116298914061;0.40057373046875;0.00104705810546875;3.77999999045642;379;100 mA
4.31116298911536;0.400421142578125;0.001092529296875;3.78999999043117;380;100 mA
4.32116298909011;0.4005126953125;0.00101898193359375;3.79999999040592;381;100 mA
4.33116298906486;0.400543212890625;0.0010638427734375;3.80999999038067;382;100 mA
4.34116298903962;0.400390625;0.0010821533203125;3.81999999035543;383;100 mA
4.35116298901437;0.400634765625;0.001014404296875;3.82999999033018;384;100 mA
4.36116298898912;0.40045166015625;0.00106170654296875;3.83999999030493;385;100 mA
4.37116298896387;0.400390625;0.00107147216796875;3.84999999027968;386;100 mA
4.38116298893863;0.400665283203125;0.00100433349609375;3.85999999025444;387;100 mA
4.39116298891338;0.40045166015625;0.00105621337890625;3.86999999022919;388;100 mA
4.40116298888813;0.400421142578125;0.00109222412109375;3.87999999020394;389;100 mA
4.41116298886288;0.400604248046875;0.00101348876953125;3.88999999017869;390;100 mA
4.42116298883764;0.4005126953125;0.00104766845703125;3.89999999015345;391;100 mA
4.43116298881239;0.400421142578125;0.001068115234375;3.9099999901282;392;100 mA
4.44116298878714;0.40069580078125;0.000992431640624999;3.91999999010295;393;100 mA
4.45116298876189;0.400543212890625;0.00103912353515625;3.9299999900777;394;100 mA
4.46116298873665;0.40045166015625;0.00106414794921875;3.93999999005246;395;100 mA
4.4711629887114;0.400634765625;0.0009857177734375;3.94999999002721;396;100 mA
4.48116298868615;0.400482177734375;0.00104400634765625;3.95999999000196;397;100 mA
4.4911629886609;0.40057373046875;0.00105804443359375;3.96999998997671;398;100 mA
4.50116298863566;0.400634765625;0.00098846435546875;3.97999998995147;399;100 mA
4.51116298861041;0.4005126953125;0.0010333251953125;3.98999998992622;400;100 mA
4.52116298858516;0.4005126953125;0.001087646484375;3.99999998990097;401;100 mA
4.53116298855991;0.400634765625;0.001025390625;4.00999998987572;402;100 mA
4.54116298853467;0.400543212890625;0.00104217529296875;4.01999998985048;403;100 mA
4.55116298850942;0.400604248046875;0.0010968017578125;4.02999998982523;404;100 mA
4.56116298848417;0.400665283203125;0.00101226806640625;4.03999998979998;405;100 mA
4.57116298845892;0.40057373046875;0.00103851318359375;4.04999998977473;406;100 mA
4.58116298843368;0.400634765625;0.00105926513671875;4.05999998974949;407;100 mA
4.59116298840843;0.40069580078125;0.000994262695312501;4.06999998972424;408;100 mA
4.60116298838318;0.400634765625;0.0010498046875;4.07999998969899;409;100 mA
4.61116298835793;0.400634765625;0.0010882568359375;4.08999998967374;410;100 mA
4.62116298833269;0.400634765625;0.001025390625;4.0999999896485;411;100 mA
4.63116298830744;0.400634765625;0.001064453125;4.10999998962325;412;100 mA
4.64116298828219;0.400634765625;0.0010968017578125;4.119999989598;413;100 mA
4.65116298825694;0.400604248046875;0.001043701171875;4.12999998957275;414;100 mA
4.66116298823169;0.400726318359375;0.001063232421875;4.1399999895475;415;100 mA
4.67116298820645;0.400604248046875;0.00109954833984375;4.14999998952226;416;100 mA
4.6811629881812;0.400634765625;0.00100830078125;4.15999998949701;417;100 mA
4.69116298815595;0.400634765625;0.00106048583984375;4.16999998947176;418;100 mA
4.7011629881307;0.400604248046875;0.00108154296875;4.17999998944651;419;100 mA
4.71116298810546;0.400604248046875;0.0009906005859375;4.18999998942127;420;100 mA
4.72116298808021;0.400665283203125;0.0010418701171875;4.19999998939602;421;100 mA
4.73116298805496;0.4005126953125;0.00109893798828125;4.20999998937077;422;100 mA
4.74116298802971;0.400634765625;0.00102203369140625;4.21999998934552;423;100 mA
4.75116298800447;0.400634765625;0.00107879638671875;4.22999998932028;424;100 mA
4.76116298797922;0.400482177734375;0.00111907958984375;4.23999998929503;425;100 mA
4.77116298795397;0.400543212890625;0.001029052734375;4.24999998926978;426;100 mA
4.78116298792872;0.400634765625;0.00107696533203125;4.25999998924453;427;100 mA
4.79116298790348;0.400421142578125;0.00109039306640625;4.26999998921929;428;100 mA
4.80116298787823;0.400604248046875;0.0010260009765625;4.27999998919404;429;100 mA
4.81116298785298;0.4005126953125;0.0010601806640625;4.28999998916879;430;100 mA
4.82116298782773;0.400421142578125;0.00110809326171875;4.29999998914354;431;100 mA
4.83116298780249;0.400543212890625;0.0010272216796875;4.3099999891183;432;100 mA
4.84116298777724;0.40045166015625;0.00105560302734375;4.31999998909305;433;100 mA
4.85116298775199;0.400421142578125;0.0011328125;4.3299999890678;434;100 mA
4.86116298772674;0.40057373046875;0.0010382080078125;4.33999998904255;435;100 mA
4.8711629877015;0.4005126953125;0.001083984375;4.34999998901731;436;100 mA
4.88116298767625;0.400482177734375;0.00110504150390625;4.35999998899206;437;100 mA
4.891162987651;0.40057373046875;0.0010003662109375;4.36999998896681;438;100 mA
4.90116298762575;0.400543212890625;0.00105621337890625;4.37999998894156;439;100 mA
4.91116298760051;0.40045166015625;0.0010791015625;4.38999998891632;440;100 mA
4.92116298757526;0.400665283203125;0.00100921630859375;4.39999998889107;441;100 mA
4.93116298755001;0.40045166015625;0.00105804443359375;4.40999998886582;442;100 mA
4.94116298752476;0.400482177734375;0.00110595703125;4.41999998884057;443;100 mA
4.95116298749952;0.40069580078125;0.00103729248046875;4.42999998881533;444;100 mA
4.96116298747427;0.400482177734375;0.00108917236328125;4.43999998879008;445;100 mA
4.97116298744902;0.4005126953125;0.0011224365234375;4.44999998876483;446;100 mA
4.98116298742377;0.40069580078125;0.00102081298828125;4.45999998873958;447;100 mA
4.99116298739852;0.4005126953125;0.00108001708984375;4.46999998871433;448;100 mA
5.00116298737328;0.400482177734375;0.0011016845703125;4.47999998868909;449;100 mA
5.01116298734803;0.400634765625;0.00101593017578125;4.48999998866384;450;100 mA
5.02116298732278;0.4005126953125;0.00107208251953125;4.49999998863859;451;100 mA
5.03116298729753;0.40057373046875;0.00111724853515625;4.50999998861334;452;100 mA
5.04116298727229;0.40069580078125;0.0010443115234375;4.5199999885881;453;100 mA
5.05116298724704;0.40057373046875;0.00110382080078125;4.52999998856285;454;100 mA
5.06116298722179;0.40057373046875;0.00115692138671875;4.5399999885376;455;100 mA
5.07116298719654;0.400665283203125;0.00106719970703125;4.54999998851235;456;100 mA
5.0811629871713;0.400634765625;0.0011199951171875;4.55999998848711;457;100 mA
5.09116298714605;0.4005126953125;0.00116119384765625;4.56999998846186;458;100 mA
5.1011629871208;0.400665283203125;0.001070556640625;4.57999998843661;459;100 mA
5.11116298709555;0.400604248046875;0.0010955810546875;4.58999998841136;460;100 mA
5.12116298707031;0.400604248046875;0.00113983154296875;4.59999998838612;461;100 mA
5.13116298704506;0.400634765625;0.00106658935546875;4.60999998836087;462;100 mA
5.14116298701981;0.400665283203125;0.001109619140625;4.61999998833562;463;100 mA
5.15116298699456;0.400604248046875;0.0011822509765625;4.62999998831037;464;100 mA
5.16116298696932;0.400634765625;0.00111358642578125;4.63999998828513;465;100 mA
5.17116298694407;0.400726318359375;0.0011273193359375;4.64999998825988;466;100 mA
5.18116298691882;0.400543212890625;0.00116363525390625;4.65999998823463;467;100 mA
5.19116298689357;0.400634765625;0.001063232421875;4.66999998820938;468;100 mA
5.20116298686833;0.40069580078125;0.00112152099609375;4.67999998818414;469;100 mA
5.21116298684308;0.400634765625;0.00112579345703125;4.68999998815889;470;100 mA
5.22116298681783;0.400665283203125;0.00105224609375;4.69999998813364;471;100 mA
5.23116298679258;0.400604248046875;0.0011004638671875;4.70999998810839;472;100 mA
5.24116298676734;0.400482177734375;0.00114013671875;4.71999998808315;473;100 mA
5.25116298674209;0.400634765625;0.00107177734375;4.7299999880579;474;100 mA
5.26116298671684;0.400634765625;0.00110748291015625;4.73999998803265;475;100 mA
5.27116298669159;0.40057373046875;0.001141357421875;4.7499999880074;476;100 mA
5.28116298666635;0.4005126953125;0.00106414794921875;4.75999998798216;477;100 mA
5.2911629866411;0.400634765625;0.00107452392578125;4.76999998795691;478;100 mA
5.30116298661585;0.400421142578125;0.00112823486328125;4.77999998793166;479;100 mA
5.3111629865906;0.40057373046875;0.00102386474609375;4.78999998790641;480;100 mA
5.32116298656535;0.400604248046875;0.00107391357421875;4.79999998788116;481;100 mA
5.33116298654011;0.400390625;0.001097412109375;4.80999998785592;482;100 mA
5.34116298651486;0.400543212890625;0.00101959228515625;4.81999998783067;483;100 mA
5.35116298648961;0.400543212890625;0.001075439453125;4.82999998780542;484;100 mA
5.36116298646436;0.400390625;0.00113372802734375;4.83999998778017;485;100 mA
5.37116298643912;0.40057373046875;0.00103485107421875;4.84999998775493;486;100 mA
5.38116298641387;0.400543212890625;0.00108673095703125;4.85999998772968;487;100 mA
5.39116298638862;0.400390625;0.0011138916015625;4.86999998770443;488;100 mA
5.40116298636337;0.400634765625;0.00103271484375;4.87999998767918;489;100 mA
5.41116298633813;0.40045166015625;0.00106536865234375;4.88999998765394;490;100 mA
5.42116298631288;0.400421142578125;0.0010888671875;4.89999998762869;491;100 mA
5.43116298628763;0.400604248046875;0.00101348876953125;4.90999998760344;492;100 mA
5.44116298626238;0.4005126953125;0.0010516357421875;4.91999998757819;493;100 mA
5.45116298623714;0.400390625;0.0010894775390625;4.92999998755295;494;100 mA
5.46116298621189;0.400665283203125;0.00101959228515625;4.9399999875277;495;100 mA
5.47116298618664;0.400482177734375;0.0010601806640625;4.94999998750245;496;100 mA
5.48116298616139;0.40045166015625;0.001099853515625;4.9599999874772;497;100 mA
5.49116298613615;0.400665283203125;0.00100921630859375;4.96999998745196;498;100 mA
5.5011629861109;0.400482177734375;0.00104827880859375;4.97999998742671;499;100 mA
5.51116298608565;0.4005126953125;0.00106170654296875;4.98999998740146;500;100 mA
5.5211629860604;0.40069580078125;0.000988159179687501;4.99999998737621;501;100 mA
5.53116298603516;0.40045166015625;0.00103668212890625;5.00999998735097;502;100 mA
5.54116298600991;0.400543212890625;0.00106903076171875;5.01999998732572;503;100 mA
5.55116298598466;0.400726318359375;0.00100982666015625;5.02999998730047;504;100 mA
5.56116298595941;0.4005126953125;0.00104034423828125;5.03999998727522;505;100 mA
5.57116298593417;0.40057373046875;0.00109283447265625;5.04999998724998;506;100 mA
5.58116298590892;0.400665283203125;0.00102630615234375;5.05999998722473;507;100 mA
5.59116298588367;0.40057373046875;0.0010577392578125;5.06999998719948;508;100 mA
5.60116298585842;0.400604248046875;0.00110076904296875;5.07999998717423;509;100 mA
5.61116298583318;0.400665283203125;0.000977783203125;5.08999998714899;510;100 mA
5.62116298580793;0.400604248046875;0.0010467529296875;5.09999998712374;511;100 mA
5.63116298578268;0.400604248046875;0.0010528564453125;5.10999998709849;512;100 mA
5.64116298575743;0.40069580078125;0.0009796142578125;5.11999998707324;513;100 mA
5.65116298573219;0.400634765625;0.00102294921875;5.129999987048;514;100 mA
5.66116298570694;0.400634765625;0.00106536865234375;5.13999998702275;515;100 mA
5.67116298568169;0.400634765625;0.00099334716796875;5.1499999869975;516;100 mA
5.68116298565644;0.400604248046875;0.00103607177734375;5.15999998697225;517;100 mA
5.69116298563119;0.400634765625;0.001075439453125;5.169999986947;518;100 mA
5.70116298560595;0.400604248046875;0.00099365234375;5.17999998692176;519;100 mA
5.7111629855807;0.400665283203125;0.00101318359375;5.18999998689651;520;100 mA
5.72116298555545;0.400604248046875;0.0010455322265625;5.19999998687126;521;100 mA
5.7311629855302;0.400634765625;0.0009716796875;5.20999998684601;522;100 mA
5.74116298550496;0.400604248046875;0.00101043701171875;5.21999998682077;523;100 mA
5.75116298547971;0.40057373046875;0.0010626220703125;5.22999998679552;524;100 mA
5.76116298545446;0.400604248046875;0.00098907470703125;5.23999998677027;525;100 mA
5.77116298542921;0.400665283203125;0.00102142333984375;5.24999998674502;526;100 mA
5.78116298540397;0.40057373046875;0.00107177734375;5.25999998671978;527;100 mA
5.79116298537872;0.400604248046875;0.000975341796875;5.26999998669453;528;100 mA
5.80116298535347;0.40057373046875;0.00103118896484375;5.27999998666928;529;100 mA
5.81116298532822;0.40045166015625;0.00105926513671875;5.28999998664403;530;100 mA
5.82116298530298;0.400634765625;0.00098114013671875;5.29999998661879;531;100 mA
5.83116298527773;0.40057373046875;0.00100494384765625;5.30999998659354;532;100 mA
5.84116298525248;0.400390625;0.001033935546875;5.31999998656829;533;100 mA
5.85116298522723;0.40057373046875;0.000959167480468751;5.32999998654304;534;100 mA
5.86116298520199;0.400604248046875;0.00100555419921875;5.3399999865178;535;100 mA
5.87116298517674;0.400421142578125;0.00105377197265625;5.34999998649255;536;100 mA
5.88116298515149;0.400543212890625;0.000982666015625;5.3599999864673;537;100 mA
5.89116298512624;0.400482177734375;0.0010150146484375;5.36999998644205;538;100 mA
5.901162985101;0.40045166015625;0.0010601806640625;5.37999998641681;539;100 mA
5.91116298507575;0.400604248046875;0.00096771240234375;5.38999998639156;540;100 mA
5.9211629850505;0.4005126953125;0.00100616455078125;5.39999998636631;541;100 mA
5.93116298502525;0.400421142578125;0.00102630615234375;5.40999998634106;542;100 mA
5.94116298500001;0.400543212890625;0.0009613037109375;5.41999998631582;543;100 mA
5.95116298497476;0.400482177734375;0.000994262695312501;5.42999998629057;544;100 mA
5.96116298494951;0.400390625;0.00105499267578125;5.43999998626532;545;100 mA
5.97116298492426;0.400665283203125;0.00096588134765625;5.44999998624007;546;100 mA
5.98116298489902;0.400482177734375;0.00099853515625;5.45999998621483;547;100 mA
5.99116298487377;0.400421142578125;0.00104888916015625;5.46999998618958;548;100 mA
6.00116298484852;0.400634765625;0.000979003906250001;5.47999998616433;549;100 mA
6.01116298482327;0.400482177734375;0.00101104736328125;5.48999998613908;550;100 mA
6.02116298479802;0.40057373046875;0.00105804443359375;5.49999998611383;551;100 mA
6.03116298477278;0.400665283203125;0.000982055664062501;5.50999998608859;552;100 mA
6.04116298474753;0.400421142578125;0.001016845703125;5.51999998606334;553;100 mA
6.05116298472228;0.400421142578125;0.0010546875;5.52999998603809;554;100 mA
6.06116298469703;0.40069580078125;0.000980529785156251;5.53999998601284;555;100 mA
6.07116298467179;0.40057373046875;0.0010125732421875;5.5499999859876;556;100 mA
6.08116298464654;0.40057373046875;0.001046142578125;5.55999998596235;557;100 mA
6.09116298462129;0.400665283203125;0.000971374511718751;5.5699999859371;558;100 mA
6.10116298459604;0.4005126953125;0.00103363037109375;5.57999998591185;559;100 mA
6.1111629845708;0.4005126953125;0.00106048583984375;5.58999998588661;560;100 mA
6.12116298454555;0.40069580078125;0.000997314453125001;5.59999998586136;561;100 mA
6.1311629845203;0.4005126953125;0.0010198974609375;5.60999998583611;562;100 mA
6.14116298449505;0.400543212890625;0.001043701171875;5.61999998581086;563;100 mA
6.15116298446981;0.400665283203125;0.0009808349609375;5.62999998578562;564;100 mA
6.16116298444456;0.400634765625;0.0010302734375;5.63999998576037;565;100 mA
6.17116298441931;0.400634765625;0.0010723876953125;5.64999998573512;566;100 mA
6.18116298439406;0.400634765625;0.00097503662109375;5.65999998570987;567;100 mA
6.19116298436882;0.400634765625;0.00100555419921875;5.66999998568463;568;100 mA
6.20116298434357;0.400604248046875;0.0010491943359375;5.67999998565938;569;100 mA
6.21116298431832;0.400634765625;0.00095123291015625;5.68999998563413;570;100 mA
6.22116298429307;0.400634765625;0.00099945068359375;5.69999998560888;571;100 mA
6.23116298426783;0.400604248046875;0.00104339599609375;5.70999998558364;572;100 mA
6.24116298424258;0.400634765625;0.000960693359375001;5.71999998555839;573;100 mA
6.25116298421733;0.40069580078125;0.001004638671875;5.72999998553314;574;100 mA
6.26116298419208;0.400604248046875;0.0010650634765625;5.73999998550789;575;100 mA
6.27116298416684;0.400665283203125;0.00096923828125;5.74999998548265;576;100 mA
6.28116298414159;0.400665283203125;0.0009918212890625;5.7599999854574;577;100 mA
6.29116298411634;0.400604248046875;0.00103424072265625;5.76999998543215;578;100 mA
6.30116298409109;0.40057373046875;0.00097503662109375;5.7799999854069;579;100 mA
6.31116298406585;0.400634765625;0.00102294921875;5.78999998538166;580;100 mA
6.3211629840406;0.400604248046875;0.00107086181640625;5.79999998535641;581;100 mA
6.33116298401535;0.400634765625;0.00098724365234375;5.80999998533116;582;100 mA
6.3411629839901;0.400665283203125;0.00101593017578125;5.81999998530591;583;100 mA
6.35116298396485;0.400482177734375;0.00106781005859375;5.82999998528066;584;100 mA
6.36116298393961;0.400604248046875;0.0010101318359375;5.83999998525542;585;100 mA
6.37116298391436;0.400634765625;0.001044921875;5.84999998523017;586;100 mA
6.38116298388911;0.40045166015625;0.0010931396484375;5.85999998520492;587;100 mA
6.39116298386386;0.400543212890625;0.000997314453125001;5.86999998517967;588;100 mA
6.40116298383862;0.40057373046875;0.00105987548828125;5.87999998515443;589;100 mA
6.41116298381337;0.400421142578125;0.00108367919921875;5.88999998512918;590;100 mA
6.42116298378812;0.400604248046875;0.001015625;5.89999998510393;591;100 mA
6.43116298376287;0.40057373046875;0.00107269287109375;5.90999998507868;592;100 mA
6.44116298373763;0.400390625;0.0010986328125;5.91999998505344;593;100 mA
6.45116298371238;0.40057373046875;0.00103302001953125;5.92999998502819;594;100 mA
6.46116298368713;0.4005126953125;0.001055908203125;5.93999998500294;595;100 mA
6.47116298366188;0.400390625;0.00108367919921875;5.94999998497769;596;100 mA
6.48116298363664;0.40057373046875;0.0010003662109375;5.95999998495245;597;100 mA
6.49116298361139;0.40045166015625;0.0010321044921875;5.9699999849272;598;100 mA
6.50116298358614;0.400421142578125;0.00106231689453125;5.97999998490195;599;100 mA
6.51116298356089;0.400604248046875;0.000987854003906249;5.9899999848767;600;100 mA
6.52116298353565;0.400482177734375;0.0010211181640625;5.99999998485146;601;100 mA
6.5311629835104;0.400421142578125;0.0010687255859375;6.00999998482621;602;100 mA
6.54116298348515;0.40069580078125;0.00097930908203125;6.01999998480096;603;100 mA
6.5511629834599;0.4005126953125;0.00102325439453125;6.02999998477571;604;100 mA
6.56116298343466;0.40045166015625;0.00105316162109375;6.03999998475047;605;100 mA
6.57116298340941;0.40069580078125;0.00096771240234375;6.04999998472522;606;100 mA
6.58116298338416;0.40057373046875;0.00099029541015625;6.05999998469997;607;100 mA
6.59116298335891;0.400482177734375;0.00103515625;6.06999998467472;608;100 mA
6.60116298333367;0.400665283203125;0.0009796142578125;6.07999998464948;609;100 mA
6.61116298330842;0.4005126953125;0.0009979248046875;6.08999998462423;610;100 mA
6.62116298328317;0.40057373046875;0.00103851318359375;6.09999998459898;611;100 mA
6.63116298325792;0.400726318359375;0.0009747314453125;6.10999998457373;612;100 mA
6.64116298323268;0.4005126953125;0.00101104736328125;6.11999998454849;613;100 mA
6.65116298320743;0.40057373046875;0.0010589599609375;6.12999998452324;614;100 mA
6.66116298318218;0.400634765625;0.000987548828125;6.13999998449799;615;100 mA
6.67116298315693;0.40057373046875;0.001021728515625;6.14999998447274;616;100 mA
6.68116298313168;0.40057373046875;0.00102752685546875;6.1599999844475;617;100 mA
6.69116298310644;0.400665283203125;0.00095947265625;6.16999998442225;618;100 mA
6.70116298308119;0.400482177734375;0.0010076904296875;6.179999984397;619;100 mA
6.71116298305594;0.40057373046875;0.00101715087890625;6.18999998437175;620;100 mA
6.72116298303069;0.400634765625;0.00097015380859375;6.1999999843465;621;100 mA
6.73116298300545;0.400604248046875;0.0009967041015625;6.20999998432126;622;100 mA
6.7411629829802;0.400634765625;0.001036376953125;6.21999998429601;623;100 mA
6.75116298295495;0.400665283203125;0.00098602294921875;6.22999998427076;624;100 mA
6.7611629829297;0.400604248046875;0.00102294921875;6.23999998424551;625;100 mA
6.77116298290446;0.400604248046875;0.00104766845703125;6.24999998422027;626;100 mA
6.78116298287921;0.400665283203125;0.00096771240234375;6.25999998419502;627;100 mA
6.79116298285396;0.400634765625;0.00100616455078125;6.26999998416977;628;100 mA
6.80116298282871;0.400604248046875;0.0010394287109375;6.27999998414452;629;100 mA
6.81116298280347;0.40057373046875;0.00095672607421875;6.28999998411928;630;100 mA
6.82116298277822;0.40069580078125;0.00100128173828125;6.29999998409403;631;100 mA
6.83116298275297;0.40057373046875;0.00102386474609375;6.30999998406878;632;100 mA
6.84116298272772;0.400604248046875;0.000964965820312499;6.31999998404353;633;100 mA
6.85116298270248;0.400665283203125;0.00101715087890625;6.32999998401829;634;100 mA
6.86116298267723;0.400543212890625;0.00105072021484375;6.33999998399304;635;100 mA
6.87116298265198;0.40057373046875;0.00098602294921875;6.34999998396779;636;100 mA
6.88116298262673;0.400634765625;0.00102142333984375;6.35999998394254;637;100 mA
6.89116298260149;0.4005126953125;0.00103302001953125;6.3699999839173;638;100 mA
6.90116298257624;0.40057373046875;0.000977172851562499;6.37999998389205;639;100 mA
6.91116298255099;0.400604248046875;0.001002197265625;6.3899999838668;640;100 mA
6.92116298252574;0.40045166015625;0.00103790283203125;6.39999998384155;641;100 mA
6.9311629825005;0.400604248046875;0.000975952148437501;6.40999998381631;642;100 mA
6.94116298247525;0.400543212890625;0.001009521484375;6.41999998379106;643;100 mA
6.95116298245;0.400482177734375;0.0010601806640625;6.42999998376581;644;100 mA
6.96116298242475;0.400543212890625;0.00098846435546875;6.43999998374056;645;100 mA
6.97116298239951;0.4005126953125;0.0010247802734375;6.44999998371532;646;100 mA
6.98116298237426;0.40045166015625;0.00106201171875;6.45999998369007;647;100 mA
6.99116298234901;0.400634765625;0.00097991943359375;6.46999998366482;648;100 mA
7.00116298232376;0.40057373046875;0.00102813720703125;6.47999998363957;649;100 mA
7.01116298229852;0.400421142578125;0.00103973388671875;6.48999998361433;650;100 mA
7.02116298227327;0.400634765625;0.000981750488281249;6.49999998358908;651;100 mA
7.03116298224802;0.4005126953125;0.00102447509765625;6.50999998356383;652;100 mA
7.04116298222277;0.400421142578125;0.00104583740234375;6.51999998353858;653;100 mA
7.05116298219752;0.400634765625;0.00099212646484375;6.52999998351333;654;100 mA
7.06116298217228;0.40045166015625;0.0010357666015625;6.53999998348809;655;100 mA
7.07116298214703;0.400421142578125;0.00105682373046875;6.54999998346284;656;100 mA
7.08116298212178;0.400665283203125;0.00099395751953125;6.55999998343759;657;100 mA
7.09116298209653;0.400482177734375;0.00103179931640625;6.56999998341234;658;100 mA
7.10116298207129;0.40045166015625;0.00105987548828125;6.5799999833871;659;100 mA
7.11116298204604;0.400665283203125;0.000981750488281249;6.58999998336185;660;100 mA
7.12116298202079;0.400482177734375;0.001026611328125;6.5999999833366;661;100 mA
7.13116298199554;0.400482177734375;0.00104095458984375;6.60999998331135;662;100 mA
7.1411629819703;0.400634765625;0.000964965820312499;6.61999998328611;663;100 mA
7.15116298194505;0.40045166015625;0.00101287841796875;6.62999998326086;664;100 mA
7.1611629819198;0.4005126953125;0.00106231689453125;6.63999998323561;665;100 mA
7.17116298189455;0.400665283203125;0.0009747314453125;6.64999998321036;666;100 mA
7.18116298186931;0.400482177734375;0.001009521484375;6.65999998318512;667;100 mA
7.19116298184406;0.40057373046875;0.00103302001953125;6.66999998315987;668;100 mA
7.20116298181881;0.40069580078125;0.00096588134765625;6.67999998313462;669;100 mA
7.21116298179356;0.40045166015625;0.000999755859375;6.68999998310937;670;100 mA
7.22116298176832;0.40057373046875;0.00102447509765625;6.69999998308413;671;100 mA
7.23116298174307;0.400726318359375;0.000957336425781249;6.70999998305888;672;100 mA
7.24116298171782;0.4005126953125;0.0010052490234375;6.71999998303363;673;100 mA
7.25116298169257;0.400604248046875;0.00102264404296875;6.72999998300838;674;100 mA
7.26116298166733;0.400665283203125;0.000965270996093751;6.73999998298314;675;100 mA
7.27116298164208;0.400604248046875;0.00100067138671875;6.74999998295789;676;100 mA
7.28116298161683;0.40069580078125;0.00102996826171875;6.75999998293264;677;100 mA
7.29116298159158;0.400634765625;0.000960693359375001;6.76999998290739;678;100 mA
7.30116298156634;0.400634765625;0.0010137939453125;6.77999998288215;679;100 mA
7.31116298154109;0.400665283203125;0.00102630615234375;6.7899999828569;680;100 mA
7.32116298151584;0.400665283203125;0.00095794677734375;6.79999998283165;681;100 mA
7.33116298149059;0.400634765625;0.001009521484375;6.8099999828064;682;100 mA
7.34116298146535;0.400634765625;0.00101043701171875;6.81999998278116;683;100 mA
7.3511629814401;0.40069580078125;0.00095947265625;6.82999998275591;684;100 mA
7.36116298141485;0.400634765625;0.001014404296875;6.83999998273066;685;100 mA
7.3711629813896;0.400604248046875;0.00102264404296875;6.84999998270541;686;100 mA
7.38116298136435;0.400604248046875;0.000954589843750001;6.85999998268016;687;100 mA
7.39116298133911;0.400665283203125;0.00100128173828125;6.86999998265492;688;100 mA
7.40116298131386;0.400634765625;0.0010089111328125;6.87999998262967;689;100 mA
7.41116298128861;0.40057373046875;0.00094940185546875;6.88999998260442;690;100 mA
7.42116298126336;0.400634765625;0.0010003662109375;6.89999998257917;691;100 mA
7.43116298123812;0.40045166015625;0.0010345458984375;6.90999998255393;692;100 mA
7.44116298121287;0.400604248046875;0.00097198486328125;6.91999998252868;693;100 mA
7.45116298118762;0.400604248046875;0.00101959228515625;6.92999998250343;694;100 mA
7.46116298116237;0.400482177734375;0.00102783203125;6.93999998247818;695;100 mA
7.47116298113713;0.40057373046875;0.000948486328125001;6.94999998245294;696;100 mA
7.48116298111188;0.40057373046875;0.0010028076171875;6.95999998242769;697;100 mA
7.49116298108663;0.40045166015625;0.00100677490234375;6.96999998240244;698;100 mA
7.50116298106138;0.40057373046875;0.00096435546875;6.97999998237719;699;100 mA
7.51116298103614;0.400543212890625;0.000999755859375;6.98999998235195;700;100 mA
