Time (s);WE(1).Potential (V);WE(1).Current (A);Corrected time (s);Index;Current range
7.97529697986431;0.2938232421875;-0.0003662109375;0;1;100 mA
7.98529697983906;0.3004150390625;0.0001190185546875;0.00999999997475243;2;100 mA
7.99529697981382;0.300567626953125;0.000180664062499999;0.0199999999495049;3;100 mA
8.00529697978857;0.300506591796875;0.000330810546875;0.0299999999242573;4;100 mA
8.01529697976332;0.300628662109375;0.0004241943359375;0.0399999998990097;5;100 mA
8.02529697973807;0.30047607421875;0.000484619140625001;0.0499999998737621;6;100 mA
8.03529697971283;0.300537109375;0.000518188476562501;0.0599999998485146;7;100 mA
8.04529697968758;0.30059814453125;0.00060089111328125;0.069999999823267;8;100 mA
8.05529697966233;0.300567626953125;0.00062225341796875;0.0799999997980194;9;100 mA
8.06529697963708;0.300567626953125;0.000621337890625;0.0899999997727718;10;100 mA
8.07529697961184;0.300567626953125;0.0006805419921875;0.0999999997475243;11;100 mA
8.08529697958659;0.300567626953125;0.00067291259765625;0.109999999722277;12;100 mA
8.09529697956134;0.300445556640625;0.000695190429687501;0.119999999697029;13;100 mA
8.10529697953609;0.300567626953125;0.0007281494140625;0.129999999671782;14;100 mA
8.11529697951084;0.300537109375;0.00075103759765625;0.139999999646534;15;100 mA
8.1252969794856;0.3004150390625;0.000750732421875;0.149999999621286;16;100 mA
8.13529697946035;0.300689697265625;0.000748596191406251;0.159999999596039;17;100 mA
8.1452969794351;0.300506591796875;0.000767822265625;0.169999999570791;18;100 mA
8.15529697940985;0.300384521484375;0.0007659912109375;0.179999999545544;19;100 mA
8.16529697938461;0.300628662109375;0.00077392578125;0.189999999520296;20;100 mA
8.17529697935936;0.300567626953125;0.00072906494140625;0.199999999495049;21;100 mA
8.18529697933411;0.30035400390625;0.00073394775390625;0.209999999469801;22;100 mA
8.19529697930886;0.3006591796875;0.000768432617187501;0.219999999444553;23;100 mA
8.20529697928362;0.300537109375;0.00078277587890625;0.229999999419306;24;100 mA
8.21529697925837;0.30035400390625;0.000771484375000001;0.239999999394058;25;100 mA
8.22529697923312;0.3006591796875;0.00078399658203125;0.249999999368811;26;100 mA
8.23529697920787;0.30047607421875;0.00078338623046875;0.259999999343563;27;100 mA
8.24529697918263;0.300323486328125;0.000792236328125;0.269999999318316;28;100 mA
8.25529697915738;0.3006591796875;0.000806579589843751;0.279999999293068;29;100 mA
8.26529697913213;0.300384521484375;0.0007855224609375;0.28999999926782;30;100 mA
8.27529697910688;0.30029296875;0.000799560546875;0.299999999242573;31;100 mA
8.28529697908164;0.3006591796875;0.000801696777343749;0.309999999217325;32;100 mA
8.29529697905639;0.30047607421875;0.000775146484375;0.319999999192078;33;100 mA
8.30529697903114;0.30029296875;0.000794372558593751;0.32999999916683;34;100 mA
8.31529697900589;0.300567626953125;0.00081634521484375;0.339999999141583;35;100 mA
8.32529697898065;0.300445556640625;0.00083770751953125;0.349999999116335;36;100 mA
8.3352969789554;0.300323486328125;0.000814208984375001;0.359999999091087;37;100 mA
8.34529697893015;0.3006591796875;0.000855102539062499;0.36999999906584;38;100 mA
8.3552969789049;0.3004150390625;0.00084228515625;0.379999999040592;39;100 mA
8.36529697887966;0.300323486328125;0.00082061767578125;0.389999999015345;40;100 mA
8.37529697885441;0.300628662109375;0.000839843749999999;0.399999998990097;41;100 mA
8.38529697882916;0.300384521484375;0.00080291748046875;0.40999999896485;42;100 mA
8.39529697880391;0.300384521484375;0.00082305908203125;0.419999998939602;43;100 mA
8.40529697877867;0.300628662109375;0.000859985351562501;0.429999998914354;44;100 mA
8.41529697875342;0.300445556640625;0.0008343505859375;0.439999998889107;45;100 mA
8.42529697872817;0.300445556640625;0.00085784912109375;0.449999998863859;46;100 mA
8.43529697870292;0.3006591796875;0.00086883544921875;0.459999998838612;47;100 mA
8.44529697867767;0.3004150390625;0.000877990722656249;0.469999998813364;48;100 mA
8.45529697865243;0.300506591796875;0.00086883544921875;0.479999998788116;49;100 mA
8.46529697862718;0.3006591796875;0.0008709716796875;0.489999998762869;50;100 mA
8.47529697860193;0.300384521484375;0.00085906982421875;0.499999998737621;51;100 mA
8.48529697857668;0.300537109375;0.000844726562500001;0.509999998712374;52;100 mA
8.49529697855144;0.300628662109375;0.00087860107421875;0.519999998687126;53;100 mA
8.50529697852619;0.300506591796875;0.00084075927734375;0.529999998661879;54;100 mA
8.51529697850094;0.300506591796875;0.000847778320312501;0.539999998636631;55;100 mA
8.52529697847569;0.300628662109375;0.00087554931640625;0.549999998611383;56;100 mA
8.53529697845045;0.30047607421875;0.000859375;0.559999998586136;57;100 mA
8.5452969784252;0.300567626953125;0.00087310791015625;0.569999998560888;58;100 mA
8.55529697839995;0.300628662109375;0.000893249511718749;0.579999998535641;59;100 mA
8.5652969783747;0.300537109375;0.00087310791015625;0.589999998510393;60;100 mA
8.57529697834946;0.300537109375;0.00087249755859375;0.599999998485146;61;100 mA
8.58529697832421;0.3006591796875;0.000875244140625001;0.609999998459898;62;100 mA
8.59529697829896;0.300506591796875;0.0008697509765625;0.61999999843465;63;100 mA
8.60529697827371;0.300506591796875;0.000865783691406249;0.629999998409403;64;100 mA
8.61529697824847;0.300628662109375;0.0008868408203125;0.639999998384155;65;100 mA
8.62529697822322;0.300506591796875;0.00086181640625;0.649999998358908;66;100 mA
8.63529697819797;0.300384521484375;0.000877685546875;0.65999999833366;67;100 mA
8.64529697817272;0.300628662109375;0.00089080810546875;0.669999998308413;68;100 mA
8.65529697814748;0.3006591796875;0.000894775390624999;0.679999998283165;69;100 mA
8.66529697812223;0.300537109375;0.000875244140625001;0.689999998257917;70;100 mA
8.67529697809698;0.30059814453125;0.00091278076171875;0.69999999823267;71;100 mA
8.68529697807173;0.30059814453125;0.00088409423828125;0.709999998207422;72;100 mA
8.69529697804649;0.300384521484375;0.00088043212890625;0.719999998182175;73;100 mA
8.70529697802124;0.300628662109375;0.000893249511718749;0.729999998156927;74;100 mA
8.71529697799599;0.30059814453125;0.00085784912109375;0.73999999813168;75;100 mA
8.72529697797074;0.30035400390625;0.000877990722656249;0.749999998106432;76;100 mA
8.7352969779455;0.30059814453125;0.00090057373046875;0.759999998081184;77;100 mA
8.74529697792025;0.30059814453125;0.0009014892578125;0.769999998055937;78;100 mA
8.755296977895;0.300384521484375;0.000902709960937501;0.779999998030689;79;100 mA
8.76529697786975;0.3006591796875;0.0009063720703125;0.789999998005442;80;100 mA
8.7752969778445;0.300506591796875;0.000902099609375;0.799999997980194;81;100 mA
8.78529697781926;0.300323486328125;0.00089752197265625;0.809999997954947;82;100 mA
8.79529697779401;0.30059814453125;0.000904235839843751;0.819999997929699;83;100 mA
8.80529697776876;0.300506591796875;0.0008807373046875;0.829999997904451;84;100 mA
8.81529697774351;0.30029296875;0.00086517333984375;0.839999997879204;85;100 mA
8.82529697771827;0.300628662109375;0.000916442871093751;0.849999997853956;86;100 mA
8.83529697769302;0.30047607421875;0.00086090087890625;0.859999997828709;87;100 mA
8.84529697766777;0.30029296875;0.0008880615234375;0.869999997803461;88;100 mA
8.85529697764252;0.3006591796875;0.0009234619140625;0.879999997778214;89;100 mA
8.86529697761728;0.30047607421875;0.000900878906249999;0.889999997752966;90;100 mA
8.87529697759203;0.30023193359375;0.000911560058593749;0.899999997727718;91;100 mA
8.88529697756678;0.300628662109375;0.000913391113281251;0.909999997702471;92;100 mA
8.89529697754153;0.3004150390625;0.000899658203125001;0.919999997677223;93;100 mA
8.90529697751629;0.300323486328125;0.00089996337890625;0.929999997651976;94;100 mA
8.91529697749104;0.300628662109375;0.000913391113281251;0.939999997626728;95;100 mA
8.92529697746579;0.3004150390625;0.00088226318359375;0.949999997601481;96;100 mA
8.93529697744054;0.300262451171875;0.000909423828125;0.959999997576233;97;100 mA
8.9452969774153;0.3006591796875;0.000919494628906251;0.969999997550985;98;100 mA
8.95529697739005;0.300384521484375;0.00092437744140625;0.979999997525738;99;100 mA
8.9652969773648;0.30029296875;0.00091522216796875;0.98999999750049;100;100 mA
8.97529697733955;0.300689697265625;0.000931396484374999;0.999999997475243;101;100 mA
8.98529697731431;0.300445556640625;0.000908203125;1.00999999745;102;100 mA
8.99529697728906;0.300445556640625;0.000914916992187501;1.01999999742475;103;100 mA
9.00529697726381;0.300689697265625;0.00091705322265625;1.0299999973995;104;100 mA
9.01529697723856;0.3004150390625;0.000913391113281251;1.03999999737425;105;100 mA
9.02529697721332;0.3004150390625;0.0009136962890625;1.049999997349;106;100 mA
9.03529697718807;0.3006591796875;0.000923767089843749;1.05999999732376;107;100 mA
9.04529697716282;0.3004150390625;0.000911560058593749;1.06999999729851;108;100 mA
9.05529697713757;0.3004150390625;0.00091217041015625;1.07999999727326;109;100 mA
9.06529697711233;0.30059814453125;0.000928955078125;1.08999999724801;110;100 mA
9.07529697708708;0.300445556640625;0.0009136962890625;1.09999999722277;111;100 mA
9.08529697706183;0.300506591796875;0.0009075927734375;1.10999999719752;112;100 mA
9.09529697703658;0.300628662109375;0.00092620849609375;1.11999999717227;113;100 mA
9.10529697701134;0.300567626953125;0.000910034179687499;1.12999999714702;114;100 mA
9.11529697698609;0.300506591796875;0.000898132324218751;1.13999999712178;115;100 mA
9.12529697696084;0.300567626953125;0.0009197998046875;1.14999999709653;116;100 mA
9.13529697693559;0.300445556640625;0.0008953857421875;1.15999999707128;117;100 mA
9.14529697691034;0.30047607421875;0.00089996337890625;1.16999999704603;118;100 mA
9.1552969768851;0.300628662109375;0.00092132568359375;1.17999999702079;119;100 mA
9.16529697685985;0.300628662109375;0.000892028808593751;1.18999999699554;120;100 mA
9.1752969768346;0.30047607421875;0.000899658203125001;1.19999999697029;121;100 mA
9.18529697680935;0.300628662109375;0.000908203125;1.20999999694504;122;100 mA
9.19529697678411;0.300537109375;0.00089080810546875;1.2199999969198;123;100 mA
9.20529697675886;0.30047607421875;0.000882873535156251;1.22999999689455;124;100 mA
9.21529697673361;0.300567626953125;0.0008990478515625;1.2399999968693;125;100 mA
9.22529697670836;0.300506591796875;0.000902099609375;1.24999999684405;126;100 mA
9.23529697668312;0.300445556640625;0.00087615966796875;1.25999999681881;127;100 mA
9.24529697665787;0.300567626953125;0.00090484619140625;1.26999999679356;128;100 mA
9.25529697663262;0.30059814453125;0.00088653564453125;1.27999999676831;129;100 mA
9.26529697660737;0.300506591796875;0.000863037109375001;1.28999999674306;130;100 mA
9.27529697658213;0.30059814453125;0.0009033203125;1.29999999671782;131;100 mA
9.28529697655688;0.300567626953125;0.0008612060546875;1.30999999669257;132;100 mA
9.29529697653163;0.300384521484375;0.0008587646484375;1.31999999666732;133;100 mA
9.30529697650638;0.300567626953125;0.00089874267578125;1.32999999664207;134;100 mA
9.31529697648114;0.300506591796875;0.000872802734375;1.33999999661683;135;100 mA
9.32529697645589;0.30029296875;0.000882873535156251;1.34999999659158;136;100 mA
9.33529697643064;0.300567626953125;0.000889892578125;1.35999999656633;137;100 mA
9.34529697640539;0.30059814453125;0.0008880615234375;1.36999999654108;138;100 mA
9.35529697638015;0.3004150390625;0.00088470458984375;1.37999999651583;139;100 mA
9.3652969763549;0.300628662109375;0.000899658203125001;1.38999999649059;140;100 mA
9.37529697632965;0.300537109375;0.000882568359375;1.39999999646534;141;100 mA
9.3852969763044;0.300323486328125;0.00086639404296875;1.40999999644009;142;100 mA
9.39529697627916;0.3006591796875;0.0009033203125;1.41999999641484;143;100 mA
9.40529697625391;0.300537109375;0.000875244140625001;1.4299999963896;144;100 mA
9.41529697622866;0.300262451171875;0.00087249755859375;1.43999999636435;145;100 mA
9.42529697620341;0.3006591796875;0.000892028808593751;1.4499999963391;146;100 mA
9.43529697617817;0.30047607421875;0.000864562988281251;1.45999999631385;147;100 mA
9.44529697615292;0.300384521484375;0.00086395263671875;1.46999999628861;148;100 mA
9.45529697612767;0.3006591796875;0.000887145996093749;1.47999999626336;149;100 mA
9.46529697610242;0.30047607421875;0.00086639404296875;1.48999999623811;150;100 mA
9.47529697607717;0.30035400390625;0.0008673095703125;1.49999999621286;151;100 mA
9.48529697605193;0.3006591796875;0.000888671874999999;1.50999999618762;152;100 mA
9.49529697602668;0.3004150390625;0.0008685302734375;1.51999999616237;153;100 mA
9.50529697600143;0.300323486328125;0.000863037109375001;1.52999999613712;154;100 mA
9.51529697597618;0.300628662109375;0.000888671874999999;1.53999999611187;155;100 mA
9.52529697595094;0.300384521484375;0.00087615966796875;1.54999999608663;156;100 mA
9.53529697592569;0.30029296875;0.00086029052734375;1.55999999606138;157;100 mA
9.54529697590044;0.30059814453125;0.00089691162109375;1.56999999603613;158;100 mA
9.55529697587519;0.30035400390625;0.000872192382812501;1.57999999601088;159;100 mA
9.56529697584995;0.3004150390625;0.00086822509765625;1.58999999598564;160;100 mA
9.5752969758247;0.3006591796875;0.00090301513671875;1.59999999596039;161;100 mA
9.58529697579945;0.30035400390625;0.000877685546875;1.60999999593514;162;100 mA
9.5952969757742;0.30035400390625;0.0008917236328125;1.61999999590989;163;100 mA
9.60529697574896;0.3006591796875;0.000927734375;1.62999999588465;164;100 mA
9.61529697572371;0.3004150390625;0.00089935302734375;1.6399999958594;165;100 mA
9.62529697569846;0.300445556640625;0.00090972900390625;1.64999999583415;166;100 mA
9.63529697567321;0.30059814453125;0.000923767089843749;1.6599999958089;167;100 mA
9.64529697564797;0.3004150390625;0.000893554687500001;1.66999999578366;168;100 mA
9.65529697562272;0.30047607421875;0.00090911865234375;1.67999999575841;169;100 mA
9.66529697559747;0.3006591796875;0.00091217041015625;1.68999999573316;170;100 mA
9.67529697557222;0.3004150390625;0.0008837890625;1.69999999570791;171;100 mA
9.68529697554698;0.300506591796875;0.00087860107421875;1.70999999568267;172;100 mA
9.69529697552173;0.3006591796875;0.00090362548828125;1.71999999565742;173;100 mA
9.70529697549648;0.300445556640625;0.000881347656250001;1.72999999563217;174;100 mA
9.71529697547123;0.300506591796875;0.00089996337890625;1.73999999560692;175;100 mA
9.72529697544599;0.300628662109375;0.000925598144531251;1.74999999558167;176;100 mA
9.73529697542074;0.300537109375;0.00088531494140625;1.75999999555643;177;100 mA
9.74529697539549;0.300537109375;0.0008917236328125;1.76999999553118;178;100 mA
9.75529697537024;0.300628662109375;0.00093048095703125;1.77999999550593;179;100 mA
9.765296975345;0.300506591796875;0.00088623046875;1.78999999548068;180;100 mA
9.77529697531975;0.30047607421875;0.000903930664062499;1.79999999545544;181;100 mA
9.7852969752945;0.300689697265625;0.0009197998046875;1.80999999543019;182;100 mA
9.79529697526925;0.300506591796875;0.000902099609375;1.81999999540494;183;100 mA
9.805296975244;0.300506591796875;0.000908508300781249;1.82999999537969;184;100 mA
9.81529697521876;0.30059814453125;0.000933837890625;1.83999999535445;185;100 mA
9.82529697519351;0.300567626953125;0.000902099609375;1.8499999953292;186;100 mA
9.83529697516826;0.300506591796875;0.000904235839843751;1.85999999530395;187;100 mA
9.84529697514301;0.300567626953125;0.000942077636718749;1.8699999952787;188;100 mA
9.85529697511777;0.300567626953125;0.00090789794921875;1.87999999525346;189;100 mA
9.86529697509252;0.30047607421875;0.0009033203125;1.88999999522821;190;100 mA
9.87529697506727;0.30059814453125;0.000943908691406251;1.89999999520296;191;100 mA
9.88529697504202;0.300506591796875;0.00088775634765625;1.90999999517771;192;100 mA
9.89529697501678;0.3004150390625;0.00089141845703125;1.91999999515247;193;100 mA
9.90529697499153;0.300567626953125;0.00093505859375;1.92999999512722;194;100 mA
9.91529697496628;0.30059814453125;0.0008892822265625;1.93999999510197;195;100 mA
9.92529697494103;0.3004150390625;0.00090484619140625;1.94999999507672;196;100 mA
9.93529697491579;0.30059814453125;0.000913391113281251;1.95999999505148;197;100 mA
9.94529697489054;0.300567626953125;0.00089569091796875;1.96999999502623;198;100 mA
9.95529697486529;0.30035400390625;0.000904541015625;1.97999999500098;199;100 mA
9.96529697484004;0.300628662109375;0.000925292968749999;1.98999999497573;200;100 mA
9.9752969748148;0.300567626953125;0.0008929443359375;1.99999999495049;201;100 mA
9.98529697478955;0.30035400390625;0.000892333984375;2.00999999492524;202;100 mA
9.9952969747643;0.30059814453125;0.000925598144531251;2.01999999489999;203;100 mA
10.0052969747391;0.300506591796875;0.00090789794921875;2.02999999487474;204;100 mA
10.0152969747138;0.30035400390625;0.000904541015625;2.0399999948495;205;100 mA
10.0252969746886;0.30059814453125;0.00094573974609375;2.04999999482425;206;100 mA
10.0352969746633;0.300537109375;0.000910339355468751;2.059999994799;207;100 mA
10.0452969746381;0.300323486328125;0.000919494628906251;2.06999999477375;208;100 mA
10.0552969746128;0.300689697265625;0.000960693359375001;2.0799999947485;209;100 mA
10.0652969745876;0.300537109375;0.00092742919921875;2.08999999472326;210;100 mA
10.0752969745623;0.30029296875;0.000939331054687501;2.09999999469801;211;100 mA
10.0852969745371;0.30059814453125;0.00095672607421875;2.10999999467276;212;100 mA
10.0952969745118;0.300445556640625;0.0009368896484375;2.11999999464751;213;100 mA
10.1052969744866;0.300262451171875;0.00094512939453125;2.12999999462227;214;100 mA
10.1152969744613;0.3006591796875;0.0009625244140625;2.13999999459702;215;100 mA
10.1252969744361;0.300384521484375;0.00093414306640625;2.14999999457177;216;100 mA
10.1352969744108;0.30029296875;0.00092010498046875;2.15999999454652;217;100 mA
10.1452969743856;0.300628662109375;0.00094940185546875;2.16999999452128;218;100 mA
10.1552969743603;0.3004150390625;0.000934753417968751;2.17999999449603;219;100 mA
10.1652969743351;0.300323486328125;0.00092010498046875;2.18999999447078;220;100 mA
10.1752969743098;0.300628662109375;0.0009564208984375;2.19999999444553;221;100 mA
10.1852969742846;0.3004150390625;0.00091522216796875;2.20999999442029;222;100 mA
10.1952969742593;0.3004150390625;0.000919494628906251;2.21999999439504;223;100 mA
10.2052969742341;0.300628662109375;0.000968017578125;2.22999999436979;224;100 mA
10.2152969742089;0.300384521484375;0.00093658447265625;2.23999999434454;225;100 mA
10.2252969741836;0.300445556640625;0.000921020507812501;2.2499999943193;226;100 mA
10.2352969741584;0.30059814453125;0.0009368896484375;2.25999999429405;227;100 mA
10.2452969741331;0.300445556640625;0.000919494628906251;2.2699999942688;228;100 mA
10.2552969741079;0.30047607421875;0.0009234619140625;2.27999999424355;229;100 mA
10.2652969740826;0.300689697265625;0.0009307861328125;2.28999999421831;230;100 mA
10.2752969740574;0.30047607421875;0.0009307861328125;2.29999999419306;231;100 mA
10.2852969740321;0.30047607421875;0.00091094970703125;2.30999999416781;232;100 mA
10.2952969740069;0.300628662109375;0.0009417724609375;2.31999999414256;233;100 mA
10.3052969739816;0.30047607421875;0.0009173583984375;2.32999999411732;234;100 mA
10.3152969739564;0.300506591796875;0.00090911865234375;2.33999999409207;235;100 mA
10.3252969739311;0.30059814453125;0.000940551757812499;2.34999999406682;236;100 mA
10.3352969739059;0.30047607421875;0.000904541015625;2.35999999404157;237;100 mA
10.3452969738806;0.30059814453125;0.00090362548828125;2.36999999401633;238;100 mA
10.3552969738554;0.300537109375;0.000946044921875;2.37999999399108;239;100 mA
10.3652969738301;0.300567626953125;0.000902709960937501;2.38999999396583;240;100 mA
10.3752969738049;0.300567626953125;0.0008868408203125;2.39999999394058;241;100 mA
10.3852969737796;0.30059814453125;0.00091461181640625;2.40999999391533;242;100 mA
10.3952969737544;0.300506591796875;0.00092132568359375;2.41999999389009;243;100 mA
10.4052969737292;0.300506591796875;0.000904235839843751;2.42999999386484;244;100 mA
10.4152969737039;0.30059814453125;0.000938720703125;2.43999999383959;245;100 mA
10.4252969736787;0.30059814453125;0.0009222412109375;2.44999999381434;246;100 mA
10.4352969736534;0.300567626953125;0.0008990478515625;2.4599999937891;247;100 mA
10.4452969736282;0.30059814453125;0.0009307861328125;2.46999999376385;248;100 mA
10.4552969736029;0.300567626953125;0.00091217041015625;2.4799999937386;249;100 mA
10.4652969735777;0.300506591796875;0.0008917236328125;2.48999999371335;250;100 mA
10.4752969735524;0.300567626953125;0.00092803955078125;2.49999999368811;251;100 mA
10.4852969735272;0.300567626953125;0.00089691162109375;2.50999999366286;252;100 mA
10.4952969735019;0.300445556640625;0.00090606689453125;2.51999999363761;253;100 mA
10.5052969734767;0.300567626953125;0.00092803955078125;2.52999999361236;254;100 mA
10.5152969734514;0.300567626953125;0.000893249511718749;2.53999999358712;255;100 mA
10.5252969734262;0.300384521484375;0.00088775634765625;2.54999999356187;256;100 mA
10.5352969734009;0.300567626953125;0.000914916992187501;2.55999999353662;257;100 mA
10.5452969733757;0.30059814453125;0.0009014892578125;2.56999999351137;258;100 mA
10.5552969733504;0.30035400390625;0.00088348388671875;2.57999999348613;259;100 mA
10.5652969733252;0.30059814453125;0.000919189453124999;2.58999999346088;260;100 mA
10.5752969732999;0.300506591796875;0.00090179443359375;2.59999999343563;261;100 mA
10.5852969732747;0.300323486328125;0.000885925292968751;2.60999999341038;262;100 mA
10.5952969732494;0.30059814453125;0.0009185791015625;2.61999999338514;263;100 mA
10.6052969732242;0.300537109375;0.000895080566406251;2.62999999335989;264;100 mA
10.615296973199;0.30035400390625;0.000870666503906251;2.63999999333464;265;100 mA
10.6252969731737;0.30059814453125;0.000916137695312499;2.64999999330939;266;100 mA
10.6352969731485;0.300506591796875;0.00089447021484375;2.65999999328415;267;100 mA
10.6452969731232;0.300384521484375;0.000885620117187499;2.6699999932589;268;100 mA
10.655296973098;0.300567626953125;0.000927124023437501;2.67999999323365;269;100 mA
10.6652969730727;0.30047607421875;0.0008953857421875;2.6899999932084;270;100 mA
10.6752969730475;0.30035400390625;0.000885009765625;2.69999999318316;271;100 mA
10.6852969730222;0.300567626953125;0.00090789794921875;2.70999999315791;272;100 mA
10.695296972997;0.300445556640625;0.0009002685546875;2.71999999313266;273;100 mA
10.7052969729717;0.300323486328125;0.000882873535156251;2.72999999310741;274;100 mA
10.7152969729465;0.30059814453125;0.000923767089843749;2.73999999308217;275;100 mA
10.7252969729212;0.300384521484375;0.0009033203125;2.74999999305692;276;100 mA
10.735296972896;0.30029296875;0.00088958740234375;2.75999999303167;277;100 mA
10.7452969728707;0.300567626953125;0.0009307861328125;2.76999999300642;278;100 mA
10.7552969728455;0.300445556640625;0.00091064453125;2.77999999298117;279;100 mA
10.7652969728202;0.300384521484375;0.000890502929687501;2.78999999295593;280;100 mA
10.775296972795;0.30059814453125;0.000928955078125;2.79999999293068;281;100 mA
10.7852969727697;0.3004150390625;0.000905761718750001;2.80999999290543;282;100 mA
10.7952969727445;0.300384521484375;0.000908813476562501;2.81999999288018;283;100 mA
10.8052969727192;0.30059814453125;0.0009326171875;2.82999999285494;284;100 mA
10.815296972694;0.300384521484375;0.000911560058593749;2.83999999282969;285;100 mA
10.8252969726688;0.300384521484375;0.00090789794921875;2.84999999280444;286;100 mA
10.8352969726435;0.30059814453125;0.000931701660156251;2.85999999277919;287;100 mA
10.8452969726183;0.300445556640625;0.000916748046875;2.86999999275395;288;100 mA
10.855296972593;0.300445556640625;0.0008984375;2.8799999927287;289;100 mA
10.8652969725678;0.30059814453125;0.0009197998046875;2.88999999270345;290;100 mA
10.8752969725425;0.3004150390625;0.00091522216796875;2.8999999926782;291;100 mA
10.8852969725173;0.30047607421875;0.0008831787109375;2.90999999265296;292;100 mA
10.895296972492;0.300689697265625;0.0009381103515625;2.91999999262771;293;100 mA
10.9052969724668;0.300506591796875;0.00090789794921875;2.92999999260246;294;100 mA
10.9152969724415;0.300506591796875;0.00087921142578125;2.93999999257721;295;100 mA
10.9252969724163;0.300537109375;0.00093994140625;2.94999999255197;296;100 mA
10.935296972391;0.300506591796875;0.00089080810546875;2.95999999252672;297;100 mA
10.9452969723658;0.30059814453125;0.00087646484375;2.96999999250147;298;100 mA
10.9552969723405;0.30059814453125;0.000924072265625001;2.97999999247622;299;100 mA
10.9652969723153;0.30047607421875;0.000896606445312501;2.98999999245098;300;100 mA
10.97529697229;0.300537109375;0.00090057373046875;2.99999999242573;301;100 mA
10.9852969722648;0.300537109375;0.000919494628906251;3.00999999240048;302;100 mA
10.9952969722395;0.300506591796875;0.000907287597656251;3.01999999237523;303;100 mA
11.0052969722143;0.300537109375;0.000892028808593751;3.02999999234999;304;100 mA
11.015296972189;0.300628662109375;0.0009234619140625;3.03999999232474;305;100 mA
11.0252969721638;0.300506591796875;0.0009130859375;3.04999999229949;306;100 mA
11.0352969721386;0.30059814453125;0.000882873535156251;3.05999999227424;307;100 mA
11.0452969721133;0.300628662109375;0.00092498779296875;3.069999992249;308;100 mA
11.0552969720881;0.300567626953125;0.000904541015625;3.07999999222375;309;100 mA
11.0652969720628;0.300537109375;0.00090301513671875;3.0899999921985;310;100 mA
11.0752969720376;0.300537109375;0.00094757080078125;3.09999999217325;311;100 mA
11.0852969720123;0.300506591796875;0.000921630859375;3.109999992148;312;100 mA
11.0952969719871;0.300537109375;0.00091552734375;3.11999999212276;313;100 mA
11.1052969719618;0.300567626953125;0.00093597412109375;3.12999999209751;314;100 mA
11.1152969719366;0.3006591796875;0.000910339355468751;3.13999999207226;315;100 mA
11.1252969719113;0.30047607421875;0.000919189453124999;3.14999999204701;316;100 mA
11.1352969718861;0.300537109375;0.0009259033203125;3.15999999202177;317;100 mA
11.1452969718608;0.300628662109375;0.00090301513671875;3.16999999199652;318;100 mA
11.1552969718356;0.30047607421875;0.00089385986328125;3.17999999197127;319;100 mA
11.1652969718103;0.300567626953125;0.0009326171875;3.18999999194602;320;100 mA
11.1752969717851;0.30059814453125;0.000914916992187501;3.19999999192078;321;100 mA
11.1852969717598;0.300445556640625;0.000890502929687501;3.20999999189553;322;100 mA
11.1952969717346;0.300537109375;0.00095245361328125;3.21999999187028;323;100 mA
11.2052969717093;0.300567626953125;0.000914916992187501;3.22999999184503;324;100 mA
11.2152969716841;0.30035400390625;0.00089996337890625;3.23999999181979;325;100 mA
11.2252969716588;0.300537109375;0.0009381103515625;3.24999999179454;326;100 mA
11.2352969716336;0.300537109375;0.00089263916015625;3.25999999176929;327;100 mA
11.2452969716084;0.30035400390625;0.00089996337890625;3.26999999174404;328;100 mA
11.2552969715831;0.30059814453125;0.00093536376953125;3.2799999917188;329;100 mA
11.2652969715579;0.300567626953125;0.000896606445312501;3.28999999169355;330;100 mA
11.2752969715326;0.30029296875;0.000911865234375001;3.2999999916683;331;100 mA
11.2852969715074;0.300567626953125;0.0009356689453125;3.30999999164305;332;100 mA
11.2952969714821;0.3004150390625;0.00091400146484375;3.31999999161781;333;100 mA
11.3052969714569;0.30035400390625;0.0009033203125;3.32999999159256;334;100 mA
11.3152969714316;0.300567626953125;0.000927734375;3.33999999156731;335;100 mA
11.3252969714064;0.300445556640625;0.00089935302734375;3.34999999154206;336;100 mA
11.3352969713811;0.300323486328125;0.0008831787109375;3.35999999151682;337;100 mA
11.3452969713559;0.300567626953125;0.000934448242187499;3.36999999149157;338;100 mA
11.3552969713306;0.300506591796875;0.000888671874999999;3.37999999146632;339;100 mA
11.3652969713054;0.30035400390625;0.0008746337890625;3.38999999144107;340;100 mA
11.3752969712801;0.300537109375;0.00093048095703125;3.39999999141583;341;100 mA
11.3852969712549;0.300384521484375;0.00087310791015625;3.40999999139058;342;100 mA
11.3952969712296;0.30035400390625;0.00088775634765625;3.41999999136533;343;100 mA
11.4052969712044;0.300567626953125;0.000927124023437501;3.42999999134008;344;100 mA
11.4152969711791;0.300445556640625;0.000896301269531249;3.43999999131483;345;100 mA
11.4252969711539;0.300384521484375;0.000902709960937501;3.44999999128959;346;100 mA
11.4352969711287;0.300567626953125;0.00091827392578125;3.45999999126434;347;100 mA
11.4452969711034;0.3004150390625;0.0008990478515625;3.46999999123909;348;100 mA
11.4552969710782;0.300537109375;0.00087554931640625;3.47999999121384;349;100 mA
11.4652969710529;0.300567626953125;0.000922546386718751;3.4899999911886;350;100 mA
11.4752969710277;0.300445556640625;0.00087615966796875;3.49999999116335;351;100 mA
11.4852969710024;0.300445556640625;0.00087493896484375;3.5099999911381;352;100 mA
11.4952969709772;0.30059814453125;0.0009228515625;3.51999999111285;353;100 mA
11.5052969709519;0.30035400390625;0.00089752197265625;3.52999999108761;354;100 mA
11.5152969709267;0.3004150390625;0.000899658203125001;3.53999999106236;355;100 mA
11.5252969709014;0.300567626953125;0.0009527587890625;3.54999999103711;356;100 mA
11.5352969708762;0.3004150390625;0.00088653564453125;3.55999999101186;357;100 mA
11.5452969708509;0.300537109375;0.00088836669921875;3.56999999098662;358;100 mA
11.5552969708257;0.300537109375;0.00095184326171875;3.57999999096137;359;100 mA
11.5652969708004;0.300506591796875;0.0008868408203125;3.58999999093612;360;100 mA
11.5752969707752;0.300537109375;0.000900878906249999;3.59999999091087;361;100 mA
11.5852969707499;0.300537109375;0.0009197998046875;3.60999999088563;362;100 mA
11.5952969707247;0.30047607421875;0.000909423828125;3.61999999086038;363;100 mA
11.6052969706994;0.300628662109375;0.0009063720703125;3.62999999083513;364;100 mA
11.6152969706742;0.300567626953125;0.0009417724609375;3.63999999080988;365;100 mA
11.6252969706489;0.300537109375;0.000919189453124999;3.64999999078464;366;100 mA
11.6352969706237;0.300567626953125;0.000905761718750001;3.65999999075939;367;100 mA
11.6452969705985;0.300506591796875;0.0009527587890625;3.66999999073414;368;100 mA
11.6552969705732;0.300537109375;0.00091094970703125;3.67999999070889;369;100 mA
11.665296970548;0.300537109375;0.000902709960937501;3.68999999068365;370;100 mA
11.6752969705227;0.30047607421875;0.000963745117187501;3.6999999906584;371;100 mA
11.6852969704975;0.300628662109375;0.000899658203125001;3.70999999063315;372;100 mA
11.6952969704722;0.300506591796875;0.000917663574218749;3.7199999906079;373;100 mA
11.705296970447;0.300567626953125;0.00096466064453125;3.72999999058266;374;100 mA
11.7152969704217;0.300567626953125;0.000926818847656249;3.73999999055741;375;100 mA
11.7252969703965;0.300567626953125;0.000933227539062501;3.74999999053216;376;100 mA
11.7352969703712;0.300537109375;0.000961914062499999;3.75999999050691;377;100 mA
11.745296970346;0.300628662109375;0.000942382812500001;3.76999999048167;378;100 mA
11.7552969703207;0.300537109375;0.000928649902343751;3.77999999045642;379;100 mA
11.7652969702955;0.300567626953125;0.000971069335937499;3.78999999043117;380;100 mA
11.7752969702702;0.300567626953125;0.00092987060546875;3.79999999040592;381;100 mA
11.785296970245;0.30047607421875;0.00090972900390625;3.80999999038067;382;100 mA
11.7952969702197;0.30047607421875;0.000965270996093751;3.81999999035543;383;100 mA
11.8052969701945;0.300628662109375;0.00093536376953125;3.82999999033018;384;100 mA
11.8152969701692;0.300445556640625;0.00093231201171875;3.83999999030493;385;100 mA
11.825296970144;0.300567626953125;0.00097381591796875;3.84999999027968;386;100 mA
11.8352969701187;0.3006591796875;0.000930175781250001;3.85999999025444;387;100 mA
11.8452969700935;0.300445556640625;0.000931396484374999;3.86999999022919;388;100 mA
11.8552969700683;0.300537109375;0.00097564697265625;3.87999999020394;389;100 mA
11.865296970043;0.300537109375;0.0009326171875;3.88999999017869;390;100 mA
11.8752969700178;0.3004150390625;0.000923767089843749;3.89999999015345;391;100 mA
11.8852969699925;0.300537109375;0.000961914062499999;3.9099999901282;392;100 mA
11.8952969699673;0.300506591796875;0.000943603515625;3.91999999010295;393;100 mA
11.905296969942;0.300384521484375;0.0009381103515625;3.9299999900777;394;100 mA
11.9152969699168;0.300506591796875;0.00098297119140625;3.93999999005246;395;100 mA
11.9252969698915;0.300506591796875;0.0009588623046875;3.94999999002721;396;100 mA
11.9352969698663;0.30035400390625;0.00093231201171875;3.95999999000196;397;100 mA
11.945296969841;0.300506591796875;0.00098724365234375;3.96999998997671;398;100 mA
11.9552969698158;0.300506591796875;0.000943603515625;3.97999998995147;399;100 mA
11.9652969697905;0.30029296875;0.000921630859375;3.98999998992622;400;100 mA
11.9752969697653;0.300537109375;0.000985107421875001;3.99999998990097;401;100 mA
11.98529696974;0.30047607421875;0.0009173583984375;4.00999998987572;402;100 mA
11.9952969697148;0.300323486328125;0.000911560058593749;4.01999998985048;403;100 mA
12.0052969696895;0.300445556640625;0.000975952148437501;4.02999998982523;404;100 mA
12.0152969696643;0.300445556640625;0.000930175781250001;4.03999998979998;405;100 mA
12.025296969639;0.30035400390625;0.00092620849609375;4.04999998977473;406;100 mA
12.0352969696138;0.300506591796875;0.00095672607421875;4.05999998974949;407;100 mA
12.0452969695885;0.300445556640625;0.00093719482421875;4.06999998972424;408;100 mA
12.0552969695633;0.30035400390625;0.000925598144531251;4.07999998969899;409;100 mA
12.0652969695381;0.30059814453125;0.00095184326171875;4.08999998967374;410;100 mA
12.0752969695128;0.30035400390625;0.00091888427734375;4.0999999896485;411;100 mA
12.0852969694876;0.300384521484375;0.000888977050781251;4.10999998962325;412;100 mA
12.0952969694623;0.30059814453125;0.00095367431640625;4.119999989598;413;100 mA
12.1052969694371;0.3004150390625;0.000904235839843751;4.12999998957275;414;100 mA
12.1152969694118;0.30035400390625;0.00090301513671875;4.1399999895475;415;100 mA
12.1252969693866;0.300567626953125;0.00096771240234375;4.14999998952226;416;100 mA
12.1352969693613;0.300445556640625;0.000914306640625;4.15999998949701;417;100 mA
12.1452969693361;0.30047607421875;0.000905761718750001;4.16999998947176;418;100 mA
12.1552969693108;0.300567626953125;0.000953369140625;4.17999998944651;419;100 mA
12.1652969692856;0.300445556640625;0.000902404785156249;4.18999998942127;420;100 mA
12.1752969692603;0.300537109375;0.00089111328125;4.19999998939602;421;100 mA
12.1852969692351;0.300567626953125;0.00092620849609375;4.20999998937077;422;100 mA
12.1952969692098;0.300445556640625;0.000890502929687501;4.21999998934552;423;100 mA
12.2052969691846;0.300567626953125;0.00088836669921875;4.22999998932028;424;100 mA
12.2152969691593;0.300537109375;0.00092498779296875;4.23999998929503;425;100 mA
12.2252969691341;0.30047607421875;0.000896301269531249;4.24999998926978;426;100 mA
12.2352969691088;0.30059814453125;0.000870361328124999;4.25999998924453;427;100 mA
12.2452969690836;0.30059814453125;0.000936279296875001;4.26999998921929;428;100 mA
12.2552969690583;0.30047607421875;0.00090362548828125;4.27999998919404;429;100 mA
12.2652969690331;0.300567626953125;0.0008746337890625;4.28999998916879;430;100 mA
12.2752969690079;0.300506591796875;0.00093841552734375;4.29999998914354;431;100 mA
12.2852969689826;0.300628662109375;0.000885925292968751;4.3099999891183;432;100 mA
12.2952969689574;0.30059814453125;0.0008917236328125;4.31999998909305;433;100 mA
12.3052969689321;0.300506591796875;0.000948181152343749;4.3299999890678;434;100 mA
12.3152969689069;0.300506591796875;0.00089752197265625;4.33999998904255;435;100 mA
12.3252969688816;0.30059814453125;0.0008941650390625;4.34999998901731;436;100 mA
12.3352969688564;0.30047607421875;0.000943908691406251;4.35999998899206;437;100 mA
12.3452969688311;0.300537109375;0.00092193603515625;4.36999998896681;438;100 mA
12.3552969688059;0.300537109375;0.00090972900390625;4.37999998894156;439;100 mA
12.3652969687806;0.300506591796875;0.00095245361328125;4.38999998891632;440;100 mA
12.3752969687554;0.30059814453125;0.0009307861328125;4.39999998889107;441;100 mA
12.3852969687301;0.300506591796875;0.000900878906249999;4.40999998886582;442;100 mA
12.3952969687049;0.300567626953125;0.0009503173828125;4.41999998884057;443;100 mA
12.4052969686796;0.300567626953125;0.000911865234375001;4.42999998881533;444;100 mA
12.4152969686544;0.300506591796875;0.000890502929687501;4.43999998879008;445;100 mA
12.4252969686291;0.30047607421875;0.000948181152343749;4.44999998876483;446;100 mA
12.4352969686039;0.300567626953125;0.0008984375;4.45999998873958;447;100 mA
12.4452969685786;0.300537109375;0.00089874267578125;4.46999998871433;448;100 mA
12.4552969685534;0.300506591796875;0.000940856933593751;4.47999998868909;449;100 mA
12.4652969685282;0.300506591796875;0.0008953857421875;4.48999998866384;450;100 mA
12.4752969685029;0.300506591796875;0.00087890625;4.49999998863859;451;100 mA
12.4852969684777;0.300445556640625;0.000928649902343751;4.50999998861334;452;100 mA
12.4952969684524;0.300567626953125;0.00089599609375;4.5199999885881;453;100 mA
12.5052969684272;0.3004150390625;0.00087890625;4.52999998856285;454;100 mA
12.5152969684019;0.30047607421875;0.000933227539062501;4.5399999885376;455;100 mA
12.5252969683767;0.300537109375;0.000904235839843751;4.54999998851235;456;100 mA
12.5352969683514;0.30047607421875;0.000881042480468749;4.55999998848711;457;100 mA
12.5452969683262;0.300537109375;0.000957641601562501;4.56999998846186;458;100 mA
12.5552969683009;0.300537109375;0.000906982421875;4.57999998843661;459;100 mA
12.5652969682757;0.300384521484375;0.0008990478515625;4.58999998841136;460;100 mA
12.5752969682504;0.300537109375;0.000949707031249999;4.59999998838612;461;100 mA
12.5852969682252;0.300567626953125;0.000908813476562501;4.60999998836087;462;100 mA
12.5952969681999;0.300445556640625;0.000911560058593749;4.61999998833562;463;100 mA
12.6052969681747;0.3004150390625;0.00096038818359375;4.62999998831037;464;100 mA
12.6152969681494;0.300537109375;0.000913391113281251;4.63999998828513;465;100 mA
12.6252969681242;0.300384521484375;0.0009063720703125;4.64999998825988;466;100 mA
12.6352969680989;0.300537109375;0.000939331054687501;4.65999998823463;467;100 mA
12.6452969680737;0.30047607421875;0.0009173583984375;4.66999998820938;468;100 mA
12.6552969680484;0.30035400390625;0.0009051513671875;4.67999998818414;469;100 mA
12.6652969680232;0.300506591796875;0.00094329833984375;4.68999998815889;470;100 mA
12.675296967998;0.30047607421875;0.000910339355468751;4.69999998813364;471;100 mA
12.6852969679727;0.3004150390625;0.000879516601562499;4.70999998810839;472;100 mA
12.6952969679475;0.300506591796875;0.00094451904296875;4.71999998808315;473;100 mA
12.7052969679222;0.300445556640625;0.000901184082031251;4.7299999880579;474;100 mA
12.715296967897;0.30035400390625;0.000869140625000001;4.73999998803265;475;100 mA
12.7252969678717;0.300506591796875;0.000958251953125;4.7499999880074;476;100 mA
12.7352969678465;0.3004150390625;0.000908813476562501;4.75999998798216;477;100 mA
12.7452969678212;0.300445556640625;0.00091094970703125;4.76999998795691;478;100 mA
12.755296967796;0.300567626953125;0.000958251953125;4.77999998793166;479;100 mA
12.7652969677707;0.30047607421875;0.000916748046875;4.78999998790641;480;100 mA
12.7752969677455;0.3004150390625;0.0009051513671875;4.79999998788116;481;100 mA
12.7852969677202;0.300506591796875;0.00093963623046875;4.80999998785592;482;100 mA
12.795296967695;0.300445556640625;0.0009014892578125;4.81999998783067;483;100 mA
12.8052969676697;0.300445556640625;0.000884399414062501;4.82999998780542;484;100 mA
12.8152969676445;0.30059814453125;0.000931701660156251;4.83999998778017;485;100 mA
12.8252969676192;0.300445556640625;0.0009033203125;4.84999998775493;486;100 mA
12.835296967594;0.30047607421875;0.00087860107421875;4.85999998772968;487;100 mA
12.8452969675687;0.300537109375;0.00093963623046875;4.86999998770443;488;100 mA
12.8552969675435;0.30047607421875;0.000910034179687499;4.87999998767918;489;100 mA
12.8652969675182;0.300567626953125;0.000873718261718751;4.88999998765394;490;100 mA
12.875296967493;0.300567626953125;0.0009429931640625;4.89999998762869;491;100 mA
12.8852969674678;0.300506591796875;0.00087860107421875;4.90999998760344;492;100 mA
12.8952969674425;0.300537109375;0.000865478515625;4.91999998757819;493;100 mA
12.9052969674173;0.300537109375;0.000925598144531251;4.92999998755295;494;100 mA
12.915296967392;0.30047607421875;0.000863037109375001;4.9399999875277;495;100 mA
12.9252969673668;0.30059814453125;0.000853881835937501;4.94999998750245;496;100 mA
12.9352969673415;0.300506591796875;0.00091827392578125;4.9599999874772;497;100 mA
12.9452969673163;0.300537109375;0.000892333984375;4.96999998745196;498;100 mA
12.955296967291;0.300628662109375;0.0008624267578125;4.97999998742671;499;100 mA
12.9652969672658;0.300537109375;0.000919189453124999;4.98999998740146;500;100 mA
12.9752969672405;0.300567626953125;0.0008953857421875;4.99999998737621;501;100 mA
12.9852969672153;0.300567626953125;0.0008685302734375;5.00999998735097;502;100 mA
12.99529696719;0.30047607421875;0.00093658447265625;5.01999998732572;503;100 mA
13.0052969671648;0.30059814453125;0.00089263916015625;5.02999998730047;504;100 mA
13.0152969671395;0.30059814453125;0.00087005615234375;5.03999998727522;505;100 mA
13.0252969671143;0.300506591796875;0.000932922363281249;5.04999998724998;506;100 mA
13.035296967089;0.300537109375;0.00087615966796875;5.05999998722473;507;100 mA
13.0452969670638;0.300567626953125;0.000878295898437501;5.06999998719948;508;100 mA
13.0552969670385;0.300537109375;0.000931396484374999;5.07999998717423;509;100 mA
13.0652969670133;0.300537109375;0.000908203125;5.08999998714899;510;100 mA
13.075296966988;0.300537109375;0.0008807373046875;5.09999998712374;511;100 mA
13.0852969669628;0.30047607421875;0.00093353271484375;5.10999998709849;512;100 mA
13.0952969669376;0.3006591796875;0.000908813476562501;5.11999998707324;513;100 mA
13.1052969669123;0.300567626953125;0.000870361328124999;5.129999987048;514;100 mA
13.1152969668871;0.300445556640625;0.0009326171875;5.13999998702275;515;100 mA
13.1252969668618;0.30059814453125;0.00088409423828125;5.1499999869975;516;100 mA
13.1352969668366;0.300506591796875;0.00085784912109375;5.15999998697225;517;100 mA
13.1452969668113;0.30047607421875;0.00093841552734375;5.169999986947;518;100 mA
13.1552969667861;0.300567626953125;0.000902404785156249;5.17999998692176;519;100 mA
13.1652969667608;0.30047607421875;0.00087432861328125;5.18999998689651;520;100 mA
13.1752969667356;0.30047607421875;0.000941162109375;5.19999998687126;521;100 mA
13.1852969667103;0.300567626953125;0.00089599609375;5.20999998684601;522;100 mA
13.1952969666851;0.300445556640625;0.000867614746093751;5.21999998682077;523;100 mA
13.2052969666598;0.30047607421875;0.0009368896484375;5.22999998679552;524;100 mA
13.2152969666346;0.300628662109375;0.00089935302734375;5.23999998677027;525;100 mA
13.2252969666093;0.300445556640625;0.00088348388671875;5.24999998674502;526;100 mA
13.2352969665841;0.300506591796875;0.00093536376953125;5.25999998671978;527;100 mA
13.2452969665588;0.300567626953125;0.000902099609375;5.26999998669453;528;100 mA
13.2552969665336;0.300384521484375;0.0008758544921875;5.27999998666928;529;100 mA
13.2652969665083;0.300445556640625;0.00094024658203125;5.28999998664403;530;100 mA
13.2752969664831;0.300506591796875;0.00091583251953125;5.29999998661879;531;100 mA
13.2852969664578;0.300445556640625;0.00088348388671875;5.30999998659354;532;100 mA
13.2952969664326;0.300445556640625;0.00095550537109375;5.31999998656829;533;100 mA
13.3052969664074;0.300506591796875;0.0009234619140625;5.32999998654304;534;100 mA
13.3152969663821;0.30035400390625;0.0008831787109375;5.3399999865178;535;100 mA
13.3252969663569;0.30047607421875;0.000972900390625001;5.34999998649255;536;100 mA
13.3352969663316;0.30047607421875;0.0009014892578125;5.3599999864673;537;100 mA
13.3452969663064;0.30035400390625;0.000887145996093749;5.36999998644205;538;100 mA
13.3552969662811;0.300537109375;0.000965270996093751;5.37999998641681;539;100 mA
13.3652969662559;0.3004150390625;0.000941162109375;5.38999998639156;540;100 mA
13.3752969662306;0.30047607421875;0.00092010498046875;5.39999998636631;541;100 mA
13.3852969662054;0.300506591796875;0.00096038818359375;5.40999998634106;542;100 mA
13.3952969661801;0.300445556640625;0.000947265625;5.41999998631582;543;100 mA
13.4052969661549;0.300384521484375;0.000896301269531249;5.42999998629057;544;100 mA
13.4152969661296;0.30047607421875;0.000964965820312499;5.43999998626532;545;100 mA
13.4252969661044;0.300445556640625;0.00091552734375;5.44999998624007;546;100 mA
13.4352969660791;0.300445556640625;0.00087615966796875;5.45999998621483;547;100 mA
13.4452969660539;0.300537109375;0.00096923828125;5.46999998618958;548;100 mA
13.4552969660286;0.30047607421875;0.00090911865234375;5.47999998616433;549;100 mA
13.4652969660034;0.30047607421875;0.00088836669921875;5.48999998613908;550;100 mA
13.4752969659781;0.300567626953125;0.00096099853515625;5.49999998611383;551;100 mA
13.4852969659529;0.30047607421875;0.00091461181640625;5.50999998608859;552;100 mA
13.4952969659277;0.300567626953125;0.00089019775390625;5.51999998606334;553;100 mA
13.5052969659024;0.300506591796875;0.00096160888671875;5.52999998603809;554;100 mA
13.5152969658772;0.30047607421875;0.00092193603515625;5.53999998601284;555;100 mA
13.5252969658519;0.300567626953125;0.000892333984375;5.5499999859876;556;100 mA
13.5352969658267;0.300537109375;0.000950012207031251;5.55999998596235;557;100 mA
13.5452969658014;0.30047607421875;0.00092498779296875;5.5699999859371;558;100 mA
13.5552969657762;0.300567626953125;0.000890502929687501;5.57999998591185;559;100 mA
13.5652969657509;0.300506591796875;0.00096588134765625;5.58999998588661;560;100 mA
13.5752969657257;0.30047607421875;0.0009417724609375;5.59999998586136;561;100 mA
13.5852969657004;0.300628662109375;0.00089447021484375;5.60999998583611;562;100 mA
13.5952969656752;0.300445556640625;0.00097869873046875;5.61999998581086;563;100 mA
13.6052969656499;0.300537109375;0.00093658447265625;5.62999998578562;564;100 mA
13.6152969656247;0.30059814453125;0.000899658203125001;5.63999998576037;565;100 mA
13.6252969655994;0.30047607421875;0.00096923828125;5.64999998573512;566;100 mA
13.6352969655742;0.30059814453125;0.000917968750000001;5.65999998570987;567;100 mA
13.6452969655489;0.300537109375;0.00089080810546875;5.66999998568463;568;100 mA
13.6552969655237;0.30047607421875;0.000954284667968749;5.67999998565938;569;100 mA
13.6652969654984;0.300567626953125;0.000910034179687499;5.68999998563413;570;100 mA
13.6752969654732;0.30047607421875;0.000882568359375;5.69999998560888;571;100 mA
13.6852969654479;0.300445556640625;0.00095703125;5.70999998558364;572;100 mA
13.6952969654227;0.300537109375;0.000930175781250001;5.71999998555839;573;100 mA
13.7052969653975;0.30047607421875;0.00089019775390625;5.72999998553314;574;100 mA
13.7152969653722;0.3004150390625;0.000969848632812501;5.73999998550789;575;100 mA
13.725296965347;0.300567626953125;0.000925292968749999;5.74999998548265;576;100 mA
13.7352969653217;0.3004150390625;0.000855102539062499;5.7599999854574;577;100 mA
13.7452969652965;0.300506591796875;0.000950012207031251;5.76999998543215;578;100 mA
13.7552969652712;0.300537109375;0.000911560058593749;5.7799999854069;579;100 mA
13.765296965246;0.300384521484375;0.00087005615234375;5.78999998538166;580;100 mA
13.7752969652207;0.300445556640625;0.00094940185546875;5.79999998535641;581;100 mA
13.7852969651955;0.300384521484375;0.00089141845703125;5.80999998533116;582;100 mA
13.7952969651702;0.300323486328125;0.00087127685546875;5.81999998530591;583;100 mA
13.805296965145;0.300506591796875;0.000945434570312501;5.82999998528066;584;100 mA
13.8152969651197;0.30035400390625;0.00088958740234375;5.83999998525542;585;100 mA
13.8252969650945;0.300506591796875;0.000858154296874999;5.84999998523017;586;100 mA
13.8352969650692;0.300567626953125;0.00093353271484375;5.85999998520492;587;100 mA
13.845296965044;0.300445556640625;0.000902099609375;5.86999998517967;588;100 mA
13.8552969650187;0.300537109375;0.00087249755859375;5.87999998515443;589;100 mA
13.8652969649935;0.30047607421875;0.000946044921875;5.88999998512918;590;100 mA
13.8752969649682;0.30047607421875;0.000904235839843751;5.89999998510393;591;100 mA
13.885296964943;0.30059814453125;0.0008526611328125;5.90999998507868;592;100 mA
13.8952969649177;0.30047607421875;0.0009527587890625;5.91999998505344;593;100 mA
13.9052969648925;0.300445556640625;0.00090789794921875;5.92999998502819;594;100 mA
13.9152969648673;0.300689697265625;0.00086517333984375;5.93999998500294;595;100 mA
13.925296964842;0.30047607421875;0.0009417724609375;5.94999998497769;596;100 mA
13.9352969648168;0.300567626953125;0.00089019775390625;5.95999998495245;597;100 mA
13.9452969647915;0.300567626953125;0.000870666503906251;5.9699999849272;598;100 mA
13.9552969647663;0.300384521484375;0.000943603515625;5.97999998490195;599;100 mA
13.965296964741;0.30059814453125;0.00089569091796875;5.9899999848767;600;100 mA
13.9752969647158;0.300567626953125;0.00085906982421875;5.99999998485146;601;100 mA
13.9852969646905;0.300506591796875;0.00090972900390625;6.00999998482621;602;100 mA
13.9952969646653;0.300567626953125;0.0008740234375;6.01999998480096;603;100 mA
14.00529696464;0.300445556640625;0.000850524902343749;6.02999998477571;604;100 mA
14.0152969646148;0.30047607421875;0.000916137695312499;6.03999998475047;605;100 mA
14.0252969645895;0.300567626953125;0.0008880615234375;6.04999998472522;606;100 mA
14.0352969645643;0.300445556640625;0.000831298828125;6.05999998469997;607;100 mA
14.045296964539;0.300537109375;0.00091827392578125;6.06999998467472;608;100 mA
14.0552969645138;0.300506591796875;0.00087493896484375;6.07999998464948;609;100 mA
14.0652969644885;0.3004150390625;0.000833740234374999;6.08999998462423;610;100 mA
14.0752969644633;0.300537109375;0.00092315673828125;6.09999998459898;611;100 mA
14.085296964438;0.300506591796875;0.00086212158203125;6.10999998457373;612;100 mA
14.0952969644128;0.30035400390625;0.000853271484375;6.11999998454849;613;100 mA
14.1052969643875;0.30047607421875;0.0009234619140625;6.12999998452324;614;100 mA
14.1152969643623;0.3004150390625;0.000885009765625;6.13999998449799;615;100 mA
14.1252969643371;0.300445556640625;0.0008636474609375;6.14999998447274;616;100 mA
14.1352969643118;0.300537109375;0.000925598144531251;6.1599999844475;617;100 mA
14.1452969642866;0.300445556640625;0.000889892578125;6.16999998442225;618;100 mA
14.1552969642613;0.30047607421875;0.000855712890625;6.179999984397;619;100 mA
14.1652969642361;0.3004150390625;0.000931396484374999;6.18999998437175;620;100 mA
14.1752969642108;0.30047607421875;0.00089996337890625;6.1999999843465;621;100 mA
14.1852969641856;0.30059814453125;0.000845947265625;6.20999998432126;622;100 mA
14.1952969641603;0.30047607421875;0.00094329833984375;6.21999998429601;623;100 mA
14.2052969641351;0.300537109375;0.00089141845703125;6.22999998427076;624;100 mA
14.2152969641098;0.3006591796875;0.000848388671875;6.23999998424551;625;100 mA
14.2252969640846;0.300445556640625;0.00094329833984375;6.24999998422027;626;100 mA
14.2352969640593;0.300567626953125;0.00088623046875;6.25999998419502;627;100 mA
14.2452969640341;0.3006591796875;0.000862731933593749;6.26999998416977;628;100 mA
14.2552969640088;0.30047607421875;0.0009295654296875;6.27999998414452;629;100 mA
14.2652969639836;0.300628662109375;0.00088043212890625;6.28999998411928;630;100 mA
14.2752969639583;0.300567626953125;0.000849609375;6.29999998409403;631;100 mA
14.2852969639331;0.300445556640625;0.000928955078125;6.30999998406878;632;100 mA
14.2952969639078;0.30059814453125;0.00089263916015625;6.31999998404353;633;100 mA
14.3052969638826;0.30047607421875;0.000856628417968749;6.32999998401829;634;100 mA
14.3152969638573;0.30047607421875;0.000940856933593751;6.33999998399304;635;100 mA
14.3252969638321;0.30059814453125;0.0009185791015625;6.34999998396779;636;100 mA
14.3352969638069;0.300506591796875;0.00086029052734375;6.35999998394254;637;100 mA
14.3452969637816;0.300506591796875;0.00095489501953125;6.3699999839173;638;100 mA
14.3552969637564;0.300628662109375;0.0009124755859375;6.37999998389205;639;100 mA
14.3652969637311;0.300384521484375;0.00087554931640625;6.3899999838668;640;100 mA
14.3752969637059;0.30047607421875;0.00097015380859375;6.39999998384155;641;100 mA
14.3852969636806;0.30047607421875;0.00090179443359375;6.40999998381631;642;100 mA
14.3952969636554;0.300384521484375;0.000880126953125;6.41999998379106;643;100 mA
14.4052969636301;0.300506591796875;0.000955810546874999;6.42999998376581;644;100 mA
14.4152969636049;0.30047607421875;0.00090911865234375;6.43999998374056;645;100 mA
14.4252969635796;0.30047607421875;0.000871887207031249;6.44999998371532;646;100 mA
14.4352969635544;0.3004150390625;0.000950927734375;6.45999998369007;647;100 mA
14.4452969635291;0.300445556640625;0.000917968750000001;6.46999998366482;648;100 mA
14.4552969635039;0.300506591796875;0.000850830078125001;6.47999998363957;649;100 mA
14.4652969634786;0.30047607421875;0.0009307861328125;6.48999998361433;650;100 mA
14.4752969634534;0.300506591796875;0.000905761718750001;6.49999998358908;651;100 mA
14.4852969634281;0.300567626953125;0.000853881835937501;6.50999998356383;652;100 mA
14.4952969634029;0.30047607421875;0.000958251953125;6.51999998353858;653;100 mA
14.5052969633776;0.300506591796875;0.000908508300781249;6.52999998351333;654;100 mA
14.5152969633524;0.300506591796875;0.000870361328124999;6.53999998348809;655;100 mA
14.5252969633272;0.300445556640625;0.000965270996093751;6.54999998346284;656;100 mA
14.5352969633019;0.30047607421875;0.00091064453125;6.55999998343759;657;100 mA
14.5452969632767;0.300689697265625;0.0008837890625;6.56999998341234;658;100 mA
14.5552969632514;0.3004150390625;0.0009613037109375;6.5799999833871;659;100 mA
14.5652969632262;0.300567626953125;0.000928649902343751;6.58999998336185;660;100 mA
14.5752969632009;0.300628662109375;0.000889892578125;6.5999999833366;661;100 mA
14.5852969631757;0.30047607421875;0.00097015380859375;6.60999998331135;662;100 mA
14.5952969631504;0.300567626953125;0.0009417724609375;6.61999998328611;663;100 mA
14.6052969631252;0.300628662109375;0.000892333984375;6.62999998326086;664;100 mA
14.6152969630999;0.30047607421875;0.00096771240234375;6.63999998323561;665;100 mA
14.6252969630747;0.300567626953125;0.000953369140625;6.64999998321036;666;100 mA
14.6352969630494;0.30047607421875;0.000897216796875;6.65999998318512;667;100 mA
14.6452969630242;0.300384521484375;0.0009869384765625;6.66999998315987;668;100 mA
14.6552969629989;0.30059814453125;0.000936279296875001;6.67999998313462;669;100 mA
14.6652969629737;0.300506591796875;0.0008831787109375;6.68999998310937;670;100 mA
14.6752969629484;0.300506591796875;0.00095947265625;6.69999998308413;671;100 mA
14.6852969629232;0.30059814453125;0.000908508300781249;6.70999998305888;672;100 mA
14.6952969628979;0.30047607421875;0.000885925292968751;6.71999998303363;673;100 mA
14.7052969628727;0.3004150390625;0.00095977783203125;6.72999998300838;674;100 mA
14.7152969628474;0.30047607421875;0.000928649902343751;6.73999998298314;675;100 mA
14.7252969628222;0.30035400390625;0.000892333984375;6.74999998295789;676;100 mA
14.735296962797;0.3004150390625;0.0009552001953125;6.75999998293264;677;100 mA
14.7452969627717;0.300384521484375;0.000930175781250001;6.76999998290739;678;100 mA
14.7552969627465;0.30035400390625;0.000882873535156251;6.77999998288215;679;100 mA
14.7652969627212;0.30047607421875;0.000972595214843749;6.7899999828569;680;100 mA
14.775296962696;0.30047607421875;0.00092803955078125;6.79999998283165;681;100 mA
14.7852969626707;0.300445556640625;0.000872802734375;6.8099999828064;682;100 mA
14.7952969626455;0.30047607421875;0.000963439941406249;6.81999998278116;683;100 mA
14.8052969626202;0.300506591796875;0.00091583251953125;6.82999998275591;684;100 mA
14.815296962595;0.300567626953125;0.000869140625000001;6.83999998273066;685;100 mA
14.8252969625697;0.300506591796875;0.00095947265625;6.84999998270541;686;100 mA
14.8352969625445;0.30047607421875;0.00091064453125;6.85999998268016;687;100 mA
14.8452969625192;0.3006591796875;0.000877685546875;6.86999998265492;688;100 mA
14.855296962494;0.30047607421875;0.00093994140625;6.87999998262967;689;100 mA
14.8652969624687;0.300537109375;0.00090301513671875;6.88999998260442;690;100 mA
14.8752969624435;0.3006591796875;0.00086181640625;6.89999998257917;691;100 mA
14.8852969624182;0.3004150390625;0.0009326171875;6.90999998255393;692;100 mA
14.895296962393;0.300506591796875;0.00090484619140625;6.91999998252868;693;100 mA
14.9052969623677;0.300628662109375;0.000852355957031251;6.92999998250343;694;100 mA
14.9152969623425;0.3004150390625;0.000946960449218751;6.93999998247818;695;100 mA
14.9252969623172;0.300567626953125;0.00091461181640625;6.94999998245294;696;100 mA
14.935296962292;0.300506591796875;0.00085418701171875;6.95999998242769;697;100 mA
14.9452969622668;0.300445556640625;0.000953063964843751;6.96999998240244;698;100 mA
14.9552969622415;0.30059814453125;0.000913391113281251;6.97999998237719;699;100 mA
14.9652969622163;0.300567626953125;0.00084869384765625;6.98999998235195;700;100 mA
