Time (s);WE(1).Potential (V);WE(1).Current (A);Corrected time (s);Index;Current range
15.4415109610139;0.194305419921875;0.0009765625;0;1;100 mA
15.4515109609887;0.200958251953125;-0.000293884277343751;0.00999999997475243;2;100 mA
15.4615109609634;0.200531005859375;-6.22558593750003E-05;0.0199999999495049;3;100 mA
15.4715109609382;0.200592041015625;0.00013885498046875;0.0299999999242573;4;100 mA
15.4815109609129;0.200531005859375;0.000272216796874999;0.0399999998990097;5;100 mA
15.4915109608877;0.20050048828125;0.000238647460937499;0.0499999998737621;6;100 mA
15.5015109608624;0.20050048828125;0.0003765869140625;0.0599999998485146;7;100 mA
15.5115109608372;0.20050048828125;0.000433349609375;0.069999999823267;8;100 mA
15.521510960812;0.200531005859375;0.0003814697265625;0.0799999997980194;9;100 mA
15.5315109607867;0.20050048828125;0.00047576904296875;0.0899999997727718;10;100 mA
15.5415109607615;0.200469970703125;0.0005316162109375;0.0999999997475243;11;100 mA
15.5515109607362;0.200469970703125;0.00047760009765625;0.109999999722277;12;100 mA
15.561510960711;0.2005615234375;0.000554809570312501;0.119999999697029;13;100 mA
15.5715109606857;0.20037841796875;0.0006085205078125;0.129999999671782;14;100 mA
15.5815109606605;0.20050048828125;0.00053131103515625;0.139999999646534;15;100 mA
15.5915109606352;0.200469970703125;0.00060882568359375;0.149999999621286;16;100 mA
15.60151096061;0.20050048828125;0.00064422607421875;0.159999999596039;17;100 mA
15.6115109605847;0.200592041015625;0.00054931640625;0.169999999570791;18;100 mA
15.6215109605595;0.20037841796875;0.000623779296875;0.179999999545544;19;100 mA
15.6315109605342;0.200469970703125;0.0006573486328125;0.189999999520296;20;100 mA
15.641510960509;0.2005615234375;0.000572509765625;0.199999999495049;21;100 mA
15.6515109604837;0.200408935546875;0.000650939941406251;0.209999999469801;22;100 mA
15.6615109604585;0.20050048828125;0.000684814453125;0.219999999444553;23;100 mA
15.6715109604332;0.200653076171875;0.00059783935546875;0.229999999419306;24;100 mA
15.681510960408;0.20037841796875;0.000670776367187501;0.239999999394058;25;100 mA
15.6915109603827;0.20050048828125;0.00071441650390625;0.249999999368811;26;100 mA
15.7015109603575;0.200653076171875;0.000621337890625;0.259999999343563;27;100 mA
15.7115109603322;0.200469970703125;0.0006756591796875;0.269999999318316;28;100 mA
15.721510960307;0.20068359375;0.000710144042968749;0.279999999293068;29;100 mA
15.7315109602818;0.2005615234375;0.000626525878906251;0.28999999926782;30;100 mA
15.7415109602565;0.20050048828125;0.00068634033203125;0.299999999242573;31;100 mA
15.7515109602313;0.20062255859375;0.00074310302734375;0.309999999217325;32;100 mA
15.761510960206;0.2005615234375;0.00064422607421875;0.319999999192078;33;100 mA
15.7715109601808;0.2005615234375;0.00069915771484375;0.32999999916683;34;100 mA
15.7815109601555;0.200592041015625;0.00075439453125;0.339999999141583;35;100 mA
15.7915109601303;0.200531005859375;0.0006512451171875;0.349999999116335;36;100 mA
15.801510960105;0.200592041015625;0.00072174072265625;0.359999999091087;37;100 mA
15.8115109600798;0.2005615234375;0.00074737548828125;0.36999999906584;38;100 mA
15.8215109600545;0.200531005859375;0.000655517578125001;0.379999999040592;39;100 mA
15.8315109600293;0.200531005859375;0.00071075439453125;0.389999999015345;40;100 mA
15.841510960004;0.20050048828125;0.000763549804687499;0.399999998990097;41;100 mA
15.8515109599788;0.200531005859375;0.000677490234375;0.40999999896485;42;100 mA
15.8615109599535;0.20050048828125;0.000721435546875;0.419999998939602;43;100 mA
15.8715109599283;0.200439453125;0.000760803222656251;0.429999998914354;44;100 mA
15.881510959903;0.20050048828125;0.00068206787109375;0.439999998889107;45;100 mA
15.8915109598778;0.20050048828125;0.000733032226562499;0.449999998863859;46;100 mA
15.9015109598525;0.20037841796875;0.00079376220703125;0.459999998838612;47;100 mA
15.9115109598273;0.2005615234375;0.00070068359375;0.469999998813364;48;100 mA
15.921510959802;0.20050048828125;0.00075347900390625;0.479999998788116;49;100 mA
15.9315109597768;0.20037841796875;0.0008074951171875;0.489999998762869;50;100 mA
15.9415109597516;0.200592041015625;0.000710449218750001;0.499999998737621;51;100 mA
15.9515109597263;0.200439453125;0.00077239990234375;0.509999998712374;52;100 mA
15.9615109597011;0.200439453125;0.000803527832031251;0.519999998687126;53;100 mA
15.9715109596758;0.200592041015625;0.000705871582031251;0.529999998661879;54;100 mA
15.9815109596506;0.20037841796875;0.000771484375000001;0.539999998636631;55;100 mA
15.9915109596253;0.200439453125;0.000817260742187501;0.549999998611383;56;100 mA
16.0015109596001;0.20062255859375;0.00072906494140625;0.559999998586136;57;100 mA
16.0115109595748;0.200408935546875;0.000763549804687499;0.569999998560888;58;100 mA
16.0215109595496;0.2005615234375;0.0008062744140625;0.579999998535641;59;100 mA
16.0315109595243;0.200592041015625;0.000720825195312499;0.589999998510393;60;100 mA
16.0415109594991;0.200469970703125;0.0007696533203125;0.599999998485146;61;100 mA
16.0515109594738;0.2005615234375;0.00082122802734375;0.609999998459898;62;100 mA
16.0615109594486;0.20062255859375;0.00073272705078125;0.61999999843465;63;100 mA
16.0715109594233;0.200531005859375;0.000788269042968751;0.629999998409403;64;100 mA
16.0815109593981;0.20062255859375;0.000832214355468749;0.639999998384155;65;100 mA
16.0915109593728;0.200531005859375;0.000716552734375001;0.649999998358908;66;100 mA
16.1015109593476;0.200531005859375;0.0007843017578125;0.65999999833366;67;100 mA
16.1115109593223;0.20062255859375;0.000811767578125;0.669999998308413;68;100 mA
16.1215109592971;0.20068359375;0.000717773437499999;0.679999998283165;69;100 mA
16.1315109592718;0.200592041015625;0.0007855224609375;0.689999998257917;70;100 mA
16.1415109592466;0.200531005859375;0.0008282470703125;0.69999999823267;71;100 mA
16.1515109592214;0.20062255859375;0.00074188232421875;0.709999998207422;72;100 mA
16.1615109591961;0.200592041015625;0.000784912109375;0.719999998182175;73;100 mA
16.1715109591709;0.20050048828125;0.00082244873046875;0.729999998156927;74;100 mA
16.1815109591456;0.20050048828125;0.00073211669921875;0.73999999813168;75;100 mA
16.1915109591204;0.200531005859375;0.00078704833984375;0.749999998106432;76;100 mA
16.2015109590951;0.200439453125;0.000837097167968751;0.759999998081184;77;100 mA
16.2115109590699;0.200531005859375;0.000726928710937499;0.769999998055937;78;100 mA
16.2215109590446;0.20050048828125;0.00080078125;0.779999998030689;79;100 mA
16.2315109590194;0.200439453125;0.0008343505859375;0.789999998005442;80;100 mA
16.2415109589941;0.200469970703125;0.000733642578125;0.799999997980194;81;100 mA
16.2515109589689;0.20050048828125;0.000795898437500001;0.809999997954947;82;100 mA
16.2615109589436;0.200439453125;0.00082855224609375;0.819999997929699;83;100 mA
16.2715109589184;0.2005615234375;0.000745544433593751;0.829999997904451;84;100 mA
16.2815109588931;0.200439453125;0.00079681396484375;0.839999997879204;85;100 mA
16.2915109588679;0.200408935546875;0.00083831787109375;0.849999997853956;86;100 mA
16.3015109588426;0.20062255859375;0.00075225830078125;0.859999997828709;87;100 mA
16.3115109588174;0.20037841796875;0.00079345703125;0.869999997803461;88;100 mA
16.3215109587921;0.200408935546875;0.0008392333984375;0.879999997778214;89;100 mA
16.3315109587669;0.2005615234375;0.0007427978515625;0.889999997752966;90;100 mA
16.3415109587417;0.200347900390625;0.00079986572265625;0.899999997727718;91;100 mA
16.3515109587164;0.200469970703125;0.00085296630859375;0.909999997702471;92;100 mA
16.3615109586912;0.20062255859375;0.000747070312500001;0.919999997677223;93;100 mA
16.3715109586659;0.200439453125;0.00081024169921875;0.929999997651976;94;100 mA
16.3815109586407;0.20062255859375;0.00086181640625;0.939999997626728;95;100 mA
16.3915109586154;0.20062255859375;0.0007586669921875;0.949999997601481;96;100 mA
16.4015109585902;0.200531005859375;0.00082672119140625;0.959999997576233;97;100 mA
16.4115109585649;0.20062255859375;0.00085205078125;0.969999997550985;98;100 mA
16.4215109585397;0.20062255859375;0.0007672119140625;0.979999997525738;99;100 mA
16.4315109585144;0.2005615234375;0.0008209228515625;0.98999999750049;100;100 mA
16.4415109584892;0.200592041015625;0.0008575439453125;0.999999997475243;101;100 mA
16.4515109584639;0.20062255859375;0.00077972412109375;1.00999999745;102;100 mA
16.4615109584387;0.2005615234375;0.000821838378906251;1.01999999742475;103;100 mA
16.4715109584134;0.2005615234375;0.00085784912109375;1.0299999973995;104;100 mA
16.4815109583882;0.200469970703125;0.000772705078124999;1.03999999737425;105;100 mA
16.4915109583629;0.200592041015625;0.000820007324218749;1.049999997349;106;100 mA
16.5015109583377;0.2005615234375;0.00087310791015625;1.05999999732376;107;100 mA
16.5115109583124;0.2005615234375;0.000769958496093751;1.06999999729851;108;100 mA
16.5215109582872;0.20050048828125;0.00082061767578125;1.07999999727326;109;100 mA
16.5315109582619;0.200469970703125;0.00086669921875;1.08999999724801;110;100 mA
16.5415109582367;0.200531005859375;0.000768432617187501;1.09999999722277;111;100 mA
16.5515109582115;0.20050048828125;0.000828857421875;1.10999999719752;112;100 mA
16.5615109581862;0.200408935546875;0.00084808349609375;1.11999999717227;113;100 mA
16.571510958161;0.200469970703125;0.0007611083984375;1.12999999714702;114;100 mA
16.5815109581357;0.200439453125;0.00081939697265625;1.13999999712178;115;100 mA
16.5915109581105;0.20037841796875;0.000859985351562501;1.14999999709653;116;100 mA
16.6015109580852;0.2005615234375;0.000771179199218749;1.15999999707128;117;100 mA
16.61151095806;0.200408935546875;0.00081939697265625;1.16999999704603;118;100 mA
16.6215109580347;0.20037841796875;0.000865783691406249;1.17999999702079;119;100 mA
16.6315109580095;0.2005615234375;0.000778808593749999;1.18999999699554;120;100 mA
16.6415109579842;0.200439453125;0.00082366943359375;1.19999999697029;121;100 mA
16.651510957959;0.200439453125;0.00087493896484375;1.20999999694504;122;100 mA
16.6615109579337;0.200592041015625;0.00076324462890625;1.2199999969198;123;100 mA
16.6715109579085;0.200408935546875;0.00082855224609375;1.22999999689455;124;100 mA
16.6815109578832;0.200469970703125;0.0008648681640625;1.2399999968693;125;100 mA
16.691510957858;0.200653076171875;0.000765380859375001;1.24999999684405;126;100 mA
16.7015109578327;0.200439453125;0.00082855224609375;1.25999999681881;127;100 mA
16.7115109578075;0.200531005859375;0.000847778320312501;1.26999999679356;128;100 mA
16.7215109577822;0.200714111328125;0.00076873779296875;1.27999999676831;129;100 mA
16.731510957757;0.200469970703125;0.00081451416015625;1.28999999674306;130;100 mA
16.7415109577317;0.20062255859375;0.00085357666015625;1.29999999671782;131;100 mA
16.7515109577065;0.200653076171875;0.00076568603515625;1.30999999669257;132;100 mA
16.7615109576813;0.2005615234375;0.000803527832031251;1.31999999666732;133;100 mA
16.771510957656;0.2005615234375;0.0008563232421875;1.32999999664207;134;100 mA
16.7815109576308;0.20062255859375;0.0007659912109375;1.33999999661683;135;100 mA
16.7915109576055;0.200531005859375;0.000818786621093751;1.34999999659158;136;100 mA
16.8015109575803;0.2005615234375;0.00088043212890625;1.35999999656633;137;100 mA
16.811510957555;0.20062255859375;0.0007830810546875;1.36999999654108;138;100 mA
16.8215109575298;0.200592041015625;0.00085296630859375;1.37999999651583;139;100 mA
16.8315109575045;0.200531005859375;0.0009002685546875;1.38999999649059;140;100 mA
16.8415109574793;0.200469970703125;0.0007952880859375;1.39999999646534;141;100 mA
16.851510957454;0.2005615234375;0.0008685302734375;1.40999999644009;142;100 mA
16.8615109574288;0.200469970703125;0.0008868408203125;1.41999999641484;143;100 mA
16.8715109574035;0.2005615234375;0.00079498291015625;1.4299999963896;144;100 mA
16.8815109573783;0.200439453125;0.00085357666015625;1.43999999636435;145;100 mA
16.891510957353;0.200439453125;0.00089385986328125;1.4499999963391;146;100 mA
16.9015109573278;0.2005615234375;0.000817260742187501;1.45999999631385;147;100 mA
16.9115109573025;0.200439453125;0.0008441162109375;1.46999999628861;148;100 mA
16.9215109572773;0.20037841796875;0.00088958740234375;1.47999999626336;149;100 mA
16.931510957252;0.200531005859375;0.000789489746093749;1.48999999623811;150;100 mA
16.9415109572268;0.20037841796875;0.000838623046875001;1.49999999621286;151;100 mA
16.9515109572015;0.200408935546875;0.000881347656250001;1.50999999618762;152;100 mA
16.9615109571763;0.20062255859375;0.00076873779296875;1.51999999616237;153;100 mA
16.9715109571511;0.20037841796875;0.00082855224609375;1.52999999613712;154;100 mA
16.9815109571258;0.200439453125;0.0008673095703125;1.53999999611187;155;100 mA
16.9915109571006;0.20062255859375;0.000767822265625;1.54999999608663;156;100 mA
17.0015109570753;0.200469970703125;0.00083160400390625;1.55999999606138;157;100 mA
17.0115109570501;0.20050048828125;0.0008868408203125;1.56999999603613;158;100 mA
17.0215109570248;0.200592041015625;0.00078704833984375;1.57999999601088;159;100 mA
17.0315109569996;0.200408935546875;0.000839843749999999;1.58999999598564;160;100 mA
17.0415109569743;0.20050048828125;0.0008746337890625;1.59999999596039;161;100 mA
17.0515109569491;0.200714111328125;0.00077484130859375;1.60999999593514;162;100 mA
17.0615109569238;0.200469970703125;0.0008306884765625;1.61999999590989;163;100 mA
17.0715109568986;0.200592041015625;0.00086822509765625;1.62999999588465;164;100 mA
17.0815109568733;0.20068359375;0.00076629638671875;1.6399999958594;165;100 mA
17.0915109568481;0.20050048828125;0.000819091796875;1.64999999583415;166;100 mA
17.1015109568228;0.20062255859375;0.00087493896484375;1.6599999958089;167;100 mA
17.1115109567976;0.2005615234375;0.00078125;1.66999999578366;168;100 mA
17.1215109567723;0.200531005859375;0.00083038330078125;1.67999999575841;169;100 mA
17.1315109567471;0.20062255859375;0.00088623046875;1.68999999573316;170;100 mA
17.1415109567218;0.200592041015625;0.00077056884765625;1.69999999570791;171;100 mA
17.1515109566966;0.200592041015625;0.0008343505859375;1.70999999568267;172;100 mA
17.1615109566713;0.200592041015625;0.00085113525390625;1.71999999565742;173;100 mA
17.1715109566461;0.2005615234375;0.0007537841796875;1.72999999563217;174;100 mA
17.1815109566209;0.200531005859375;0.000818481445312499;1.73999999560692;175;100 mA
17.1915109565956;0.20050048828125;0.00085174560546875;1.74999999558167;176;100 mA
17.2015109565704;0.200592041015625;0.00077484130859375;1.75999999555643;177;100 mA
17.2115109565451;0.200469970703125;0.00081512451171875;1.76999999553118;178;100 mA
17.2215109565199;0.200469970703125;0.000867919921875;1.77999999550593;179;100 mA
17.2315109564946;0.2005615234375;0.00076171875;1.78999999548068;180;100 mA
17.2415109564694;0.20050048828125;0.00081512451171875;1.79999999545544;181;100 mA
17.2515109564441;0.20037841796875;0.00086639404296875;1.80999999543019;182;100 mA
17.2615109564189;0.2005615234375;0.0007550048828125;1.81999999540494;183;100 mA
17.2715109563936;0.200469970703125;0.00080780029296875;1.82999999537969;184;100 mA
17.2815109563684;0.200347900390625;0.00085784912109375;1.83999999535445;185;100 mA
17.2915109563431;0.2005615234375;0.0007586669921875;1.8499999953292;186;100 mA
17.3015109563179;0.200439453125;0.000826416015625001;1.85999999530395;187;100 mA
17.3115109562926;0.200439453125;0.0008636474609375;1.8699999952787;188;100 mA
17.3215109562674;0.200592041015625;0.000766906738281251;1.87999999525346;189;100 mA
17.3315109562421;0.20037841796875;0.00082550048828125;1.88999999522821;190;100 mA
17.3415109562169;0.200469970703125;0.0008673095703125;1.89999999520296;191;100 mA
17.3515109561916;0.20062255859375;0.000795898437500001;1.90999999517771;192;100 mA
17.3615109561664;0.200439453125;0.00082672119140625;1.91999999515247;193;100 mA
17.3715109561412;0.200592041015625;0.000875244140625001;1.92999999512722;194;100 mA
17.3815109561159;0.200592041015625;0.00078460693359375;1.93999999510197;195;100 mA
17.3915109560907;0.200439453125;0.000827636718749999;1.94999999507672;196;100 mA
17.4015109560654;0.2005615234375;0.00088226318359375;1.95999999505148;197;100 mA
17.4115109560402;0.20062255859375;0.00078155517578125;1.96999999502623;198;100 mA
17.4215109560149;0.20050048828125;0.000827636718749999;1.97999999500098;199;100 mA
17.4315109559897;0.200531005859375;0.00088226318359375;1.98999999497573;200;100 mA
17.4415109559644;0.200653076171875;0.00079071044921875;1.99999999495049;201;100 mA
17.4515109559392;0.200531005859375;0.000845947265625;2.00999999492524;202;100 mA
17.4615109559139;0.200592041015625;0.00088531494140625;2.01999999489999;203;100 mA
17.4715109558887;0.200592041015625;0.00079254150390625;2.02999999487474;204;100 mA
17.4815109558634;0.200592041015625;0.0008526611328125;2.0399999948495;205;100 mA
17.4915109558382;0.2005615234375;0.000893249511718749;2.04999999482425;206;100 mA
17.5015109558129;0.200592041015625;0.0008197021484375;2.059999994799;207;100 mA
17.5115109557877;0.2005615234375;0.00085784912109375;2.06999999477375;208;100 mA
17.5215109557624;0.2005615234375;0.000896606445312501;2.0799999947485;209;100 mA
17.5315109557372;0.2005615234375;0.00080108642578125;2.08999999472326;210;100 mA
17.5415109557119;0.200531005859375;0.000843505859375;2.09999999469801;211;100 mA
17.5515109556867;0.200469970703125;0.00091094970703125;2.10999999467276;212;100 mA
17.5615109556614;0.200531005859375;0.00080108642578125;2.11999999464751;213;100 mA
17.5715109556362;0.2005615234375;0.000849304199218751;2.12999999462227;214;100 mA
17.581510955611;0.20037841796875;0.000896301269531249;2.13999999459702;215;100 mA
17.5915109555857;0.200531005859375;0.0007965087890625;2.14999999457177;216;100 mA
17.6015109555605;0.200469970703125;0.000865783691406249;2.15999999454652;217;100 mA
17.6115109555352;0.200408935546875;0.000902709960937501;2.16999999452128;218;100 mA
17.62151095551;0.200592041015625;0.000804748535156249;2.17999999449603;219;100 mA
17.6315109554847;0.200469970703125;0.000863037109375001;2.18999999447078;220;100 mA
17.6415109554595;0.200347900390625;0.000896606445312501;2.19999999444553;221;100 mA
17.6515109554342;0.200531005859375;0.000809631347656251;2.20999999442029;222;100 mA
17.661510955409;0.20037841796875;0.0008575439453125;2.21999999439504;223;100 mA
17.6715109553837;0.200408935546875;0.00090667724609375;2.22999999436979;224;100 mA
17.6815109553585;0.20062255859375;0.00081024169921875;2.23999999434454;225;100 mA
17.6915109553332;0.200408935546875;0.000856628417968749;2.2499999943193;226;100 mA
17.701510955308;0.20050048828125;0.00090972900390625;2.25999999429405;227;100 mA
17.7115109552827;0.20068359375;0.00080596923828125;2.2699999942688;228;100 mA
17.7215109552575;0.200439453125;0.00085174560546875;2.27999999424355;229;100 mA
17.7315109552322;0.20050048828125;0.0009002685546875;2.28999999421831;230;100 mA
17.741510955207;0.20068359375;0.0007977294921875;2.29999999419306;231;100 mA
17.7515109551817;0.200469970703125;0.00085296630859375;2.30999999416781;232;100 mA
17.7615109551565;0.2005615234375;0.000889892578125;2.31999999414256;233;100 mA
17.7715109551312;0.20062255859375;0.000791320800781251;2.32999999411732;234;100 mA
17.781510955106;0.200469970703125;0.000839843749999999;2.33999999409207;235;100 mA
17.7915109550808;0.200531005859375;0.000880126953125;2.34999999406682;236;100 mA
17.8015109550555;0.200653076171875;0.0007977294921875;2.35999999404157;237;100 mA
17.8115109550303;0.200531005859375;0.00083648681640625;2.36999999401633;238;100 mA
17.821510955005;0.2005615234375;0.00087493896484375;2.37999999399108;239;100 mA
17.8315109549798;0.2005615234375;0.0007891845703125;2.38999999396583;240;100 mA
17.8415109549545;0.200592041015625;0.00083282470703125;2.39999999394058;241;100 mA
17.8515109549293;0.200531005859375;0.0008868408203125;2.40999999391533;242;100 mA
17.861510954904;0.2005615234375;0.0007720947265625;2.41999999389009;243;100 mA
17.8715109548788;0.20050048828125;0.000826110839843749;2.42999999386484;244;100 mA
17.8815109548535;0.20050048828125;0.000872802734375;2.43999999383959;245;100 mA
17.8915109548283;0.2005615234375;0.00078857421875;2.44999999381434;246;100 mA
17.901510954803;0.200531005859375;0.000845947265625;2.4599999937891;247;100 mA
17.9115109547778;0.200439453125;0.00088836669921875;2.46999999376385;248;100 mA
17.9215109547525;0.2005615234375;0.0007861328125;2.4799999937386;249;100 mA
17.9315109547273;0.200439453125;0.00084381103515625;2.48999999371335;250;100 mA
17.941510954702;0.200408935546875;0.000876770019531251;2.49999999368811;251;100 mA
17.9515109546768;0.20050048828125;0.0007861328125;2.50999999366286;252;100 mA
17.9615109546515;0.200469970703125;0.00082305908203125;2.51999999363761;253;100 mA
17.9715109546263;0.200347900390625;0.0008673095703125;2.52999999361236;254;100 mA
17.981510954601;0.200531005859375;0.000773010253906251;2.53999999358712;255;100 mA
17.9915109545758;0.20037841796875;0.00082977294921875;2.54999999356187;256;100 mA
18.0015109545506;0.20037841796875;0.00088653564453125;2.55999999353662;257;100 mA
18.0115109545253;0.2005615234375;0.000780639648437501;2.56999999351137;258;100 mA
18.0215109545001;0.20050048828125;0.00083343505859375;2.57999999348613;259;100 mA
18.0315109544748;0.200439453125;0.00088775634765625;2.58999999346088;260;100 mA
18.0415109544496;0.200714111328125;0.000780639648437501;2.59999999343563;261;100 mA
18.0515109544243;0.200347900390625;0.000846252441406251;2.60999999341038;262;100 mA
18.0615109543991;0.200531005859375;0.0008697509765625;2.61999999338514;263;100 mA
18.0715109543738;0.20068359375;0.0007769775390625;2.62999999335989;264;100 mA
18.0815109543486;0.200347900390625;0.00083953857421875;2.63999999333464;265;100 mA
18.0915109543233;0.2005615234375;0.00087249755859375;2.64999999330939;266;100 mA
18.1015109542981;0.20068359375;0.000794677734375;2.65999999328415;267;100 mA
18.1115109542728;0.200439453125;0.00082550048828125;2.6699999932589;268;100 mA
18.1215109542476;0.20050048828125;0.0008868408203125;2.67999999323365;269;100 mA
18.1315109542223;0.20062255859375;0.000795898437500001;2.6899999932084;270;100 mA
18.1415109541971;0.2005615234375;0.00082977294921875;2.69999999318316;271;100 mA
18.1515109541718;0.2005615234375;0.000897216796875;2.70999999315791;272;100 mA
18.1615109541466;0.200592041015625;0.000781860351562499;2.71999999313266;273;100 mA
18.1715109541213;0.2005615234375;0.000830078125;2.72999999310741;274;100 mA
18.1815109540961;0.2005615234375;0.000896301269531249;2.73999999308217;275;100 mA
18.1915109540708;0.200592041015625;0.00078094482421875;2.74999999305692;276;100 mA
18.2015109540456;0.200592041015625;0.000841369628906249;2.75999999303167;277;100 mA
18.2115109540204;0.200469970703125;0.000859985351562501;2.76999999300642;278;100 mA
18.2215109539951;0.2005615234375;0.000772705078124999;2.77999999298117;279;100 mA
18.2315109539699;0.20050048828125;0.00082550048828125;2.78999999295593;280;100 mA
18.2415109539446;0.200439453125;0.000882873535156251;2.79999999293068;281;100 mA
18.2515109539194;0.200592041015625;0.00079071044921875;2.80999999290543;282;100 mA
18.2615109538941;0.200469970703125;0.00083740234375;2.81999999288018;283;100 mA
18.2715109538689;0.200439453125;0.00088470458984375;2.82999999285494;284;100 mA
18.2815109538436;0.2005615234375;0.000792236328125;2.83999999282969;285;100 mA
18.2915109538184;0.200439453125;0.00083770751953125;2.84999999280444;286;100 mA
18.3015109537931;0.200347900390625;0.00089874267578125;2.85999999277919;287;100 mA
18.3115109537679;0.20050048828125;0.00079864501953125;2.86999999275395;288;100 mA
18.3215109537426;0.200439453125;0.000843505859375;2.8799999927287;289;100 mA
18.3315109537174;0.20037841796875;0.00089447021484375;2.88999999270345;290;100 mA
18.3415109536921;0.20062255859375;0.0007861328125;2.8999999926782;291;100 mA
18.3515109536669;0.200408935546875;0.0008331298828125;2.90999999265296;292;100 mA
18.3615109536416;0.200408935546875;0.000870666503906251;2.91999999262771;293;100 mA
18.3715109536164;0.200653076171875;0.000779113769531251;2.92999999260246;294;100 mA
18.3815109535911;0.200408935546875;0.000826416015625001;2.93999999257721;295;100 mA
18.3915109535659;0.200439453125;0.00087310791015625;2.94999999255197;296;100 mA
18.4015109535407;0.200653076171875;0.00078857421875;2.95999999252672;297;100 mA
18.4115109535154;0.20037841796875;0.000817260742187501;2.96999999250147;298;100 mA
18.4215109534902;0.20050048828125;0.0008746337890625;2.97999999247622;299;100 mA
18.4315109534649;0.20062255859375;0.000775146484375;2.98999999245098;300;100 mA
18.4415109534397;0.200439453125;0.000835571289062501;2.99999999242573;301;100 mA
18.4515109534144;0.2005615234375;0.000907287597656251;3.00999999240048;302;100 mA
18.4615109533892;0.20062255859375;0.00078125;3.01999999237523;303;100 mA
18.4715109533639;0.200592041015625;0.00083282470703125;3.02999999234999;304;100 mA
18.4815109533387;0.200531005859375;0.000888671874999999;3.03999999232474;305;100 mA
18.4915109533134;0.200592041015625;0.0007757568359375;3.04999999229949;306;100 mA
18.5015109532882;0.20050048828125;0.000839843749999999;3.05999999227424;307;100 mA
18.5115109532629;0.2005615234375;0.00088470458984375;3.069999992249;308;100 mA
18.5215109532377;0.2005615234375;0.00080535888671875;3.07999999222375;309;100 mA
18.5315109532124;0.200592041015625;0.000849609375;3.0899999921985;310;100 mA
18.5415109531872;0.200592041015625;0.00090362548828125;3.09999999217325;311;100 mA
18.5515109531619;0.2005615234375;0.0008148193359375;3.109999992148;312;100 mA
18.5615109531367;0.200531005859375;0.0008465576171875;3.11999999212276;313;100 mA
18.5715109531114;0.200531005859375;0.00090301513671875;3.12999999209751;314;100 mA
18.5815109530862;0.20062255859375;0.0007965087890625;3.13999999207226;315;100 mA
18.5915109530609;0.20050048828125;0.000849609375;3.14999999204701;316;100 mA
18.6015109530357;0.20050048828125;0.00089141845703125;3.15999999202177;317;100 mA
18.6115109530105;0.2005615234375;0.000786437988281249;3.16999999199652;318;100 mA
18.6215109529852;0.200469970703125;0.00083160400390625;3.17999999197127;319;100 mA
18.63151095296;0.20037841796875;0.000893249511718749;3.18999999194602;320;100 mA
18.6415109529347;0.200592041015625;0.000799560546875;3.19999999192078;321;100 mA
18.6515109529095;0.200469970703125;0.000855712890625;3.20999999189553;322;100 mA
18.6615109528842;0.20037841796875;0.000899658203125001;3.21999999187028;323;100 mA
18.671510952859;0.200592041015625;0.00079986572265625;3.22999999184503;324;100 mA
18.6815109528337;0.200469970703125;0.0008502197265625;3.23999999181979;325;100 mA
18.6915109528085;0.200408935546875;0.00089599609375;3.24999999179454;326;100 mA
18.7015109527832;0.200592041015625;0.00080780029296875;3.25999999176929;327;100 mA
18.711510952758;0.200347900390625;0.000847473144531249;3.26999999174404;328;100 mA
18.7215109527327;0.200408935546875;0.0009002685546875;3.2799999917188;329;100 mA
18.7315109527075;0.200653076171875;0.000815734863281251;3.28999999169355;330;100 mA
18.7415109526822;0.200439453125;0.00086517333984375;3.2999999916683;331;100 mA
18.751510952657;0.200408935546875;0.000926513671875;3.30999999164305;332;100 mA
18.7615109526317;0.200592041015625;0.000824584960937499;3.31999999161781;333;100 mA
18.7715109526065;0.200439453125;0.00087310791015625;3.32999999159256;334;100 mA
18.7815109525812;0.200439453125;0.00092193603515625;3.33999999156731;335;100 mA
18.791510952556;0.20062255859375;0.000811767578125;3.34999999154206;336;100 mA
18.8015109525307;0.200408935546875;0.0008636474609375;3.35999999151682;337;100 mA
18.8115109525055;0.200592041015625;0.0009014892578125;3.36999999149157;338;100 mA
18.8215109524803;0.20062255859375;0.000806884765625;3.37999999146632;339;100 mA
18.831510952455;0.20050048828125;0.00085479736328125;3.38999999144107;340;100 mA
18.8415109524298;0.200592041015625;0.0009002685546875;3.39999999141583;341;100 mA
18.8515109524045;0.20062255859375;0.0008087158203125;3.40999999139058;342;100 mA
18.8615109523793;0.200592041015625;0.0008465576171875;3.41999999136533;343;100 mA
18.871510952354;0.200531005859375;0.000909423828125;3.42999999134008;344;100 mA
18.8815109523288;0.2005615234375;0.000811157226562501;3.43999999131483;345;100 mA
18.8915109523035;0.200592041015625;0.00084228515625;3.44999999128959;346;100 mA
18.9015109522783;0.200531005859375;0.00089996337890625;3.45999999126434;347;100 mA
18.911510952253;0.2005615234375;0.0007916259765625;3.46999999123909;348;100 mA
18.9215109522278;0.2005615234375;0.000848388671875;3.47999999121384;349;100 mA
18.9315109522025;0.20050048828125;0.0008929443359375;3.4899999911886;350;100 mA
18.9415109521773;0.200653076171875;0.00080230712890625;3.49999999116335;351;100 mA
18.951510952152;0.2005615234375;0.0008612060546875;3.5099999911381;352;100 mA
18.9615109521268;0.200439453125;0.000908508300781249;3.51999999111285;353;100 mA
18.9715109521015;0.20062255859375;0.000806579589843751;3.52999999108761;354;100 mA
18.9815109520763;0.2005615234375;0.000870361328124999;3.53999999106236;355;100 mA
18.991510952051;0.20037841796875;0.0008929443359375;3.54999999103711;356;100 mA
19.0015109520258;0.2005615234375;0.00081146240234375;3.55999999101186;357;100 mA
19.0115109520005;0.200469970703125;0.00082977294921875;3.56999999098662;358;100 mA
19.0215109519753;0.200347900390625;0.000892028808593751;3.57999999096137;359;100 mA
19.0315109519501;0.2005615234375;0.000799560546875;3.58999999093612;360;100 mA
19.0415109519248;0.20050048828125;0.00083831787109375;3.59999999091087;361;100 mA
19.0515109518996;0.200408935546875;0.000898132324218751;3.60999999088563;362;100 mA
19.0615109518743;0.200592041015625;0.000795593261718749;3.61999999086038;363;100 mA
19.0715109518491;0.200408935546875;0.000847473144531249;3.62999999083513;364;100 mA
19.0815109518238;0.200347900390625;0.000895080566406251;3.63999999080988;365;100 mA
19.0915109517986;0.200592041015625;0.0007855224609375;3.64999999078464;366;100 mA
19.1015109517733;0.200347900390625;0.00084075927734375;3.65999999075939;367;100 mA
19.1115109517481;0.200408935546875;0.0008770751953125;3.66999999073414;368;100 mA
19.1215109517228;0.200653076171875;0.000781860351562499;3.67999999070889;369;100 mA
19.1315109516976;0.200408935546875;0.00083465576171875;3.68999999068365;370;100 mA
19.1415109516723;0.2005615234375;0.000878295898437501;3.6999999906584;371;100 mA
19.1515109516471;0.20068359375;0.000806579589843751;3.70999999063315;372;100 mA
19.1615109516218;0.200439453125;0.000843200683593751;3.7199999906079;373;100 mA
19.1715109515966;0.200592041015625;0.00089691162109375;3.72999999058266;374;100 mA
19.1815109515713;0.200653076171875;0.000806579589843751;3.73999999055741;375;100 mA
19.1915109515461;0.20050048828125;0.00084716796875;3.74999999053216;376;100 mA
19.2015109515208;0.200592041015625;0.000902709960937501;3.75999999050691;377;100 mA
19.2115109514956;0.20062255859375;0.0007952880859375;3.76999999048167;378;100 mA
19.2215109514703;0.200531005859375;0.00085113525390625;3.77999999045642;379;100 mA
19.2315109514451;0.200592041015625;0.00089385986328125;3.78999999043117;380;100 mA
19.2415109514199;0.200592041015625;0.000803222656249999;3.79999999040592;381;100 mA
19.2515109513946;0.2005615234375;0.00086181640625;3.80999999038067;382;100 mA
19.2615109513694;0.200531005859375;0.00090362548828125;3.81999999035543;383;100 mA
19.2715109513441;0.200531005859375;0.000815734863281251;3.82999999033018;384;100 mA
19.2815109513189;0.200592041015625;0.00085723876953125;3.83999999030493;385;100 mA
19.2915109512936;0.2005615234375;0.0008929443359375;3.84999999027968;386;100 mA
19.3015109512684;0.200592041015625;0.00081298828125;3.85999999025444;387;100 mA
19.3115109512431;0.200469970703125;0.00084442138671875;3.86999999022919;388;100 mA
19.3215109512179;0.20037841796875;0.00088836669921875;3.87999999020394;389;100 mA
19.3315109511926;0.2005615234375;0.00079010009765625;3.88999999017869;390;100 mA
19.3415109511674;0.200469970703125;0.00084075927734375;3.89999999015345;391;100 mA
19.3515109511421;0.20037841796875;0.000899658203125001;3.9099999901282;392;100 mA
19.3615109511169;0.20050048828125;0.0008013916015625;3.91999999010295;393;100 mA
19.3715109510916;0.200469970703125;0.00085205078125;3.9299999900777;394;100 mA
19.3815109510664;0.200408935546875;0.000908813476562501;3.93999999005246;395;100 mA
19.3915109510411;0.2005615234375;0.00080291748046875;3.94999999002721;396;100 mA
19.4015109510159;0.200439453125;0.000856933593750001;3.95999999000196;397;100 mA
19.4115109509906;0.2003173828125;0.0008941650390625;3.96999998997671;398;100 mA
19.4215109509654;0.20062255859375;0.00079986572265625;3.97999998995147;399;100 mA
19.4315109509402;0.20037841796875;0.000841064453125;3.98999998992622;400;100 mA
19.4415109509149;0.20037841796875;0.0008941650390625;3.99999998990097;401;100 mA
19.4515109508897;0.20062255859375;0.000815734863281251;4.00999998987572;402;100 mA
19.4615109508644;0.200408935546875;0.000850830078125001;4.01999998985048;403;100 mA
19.4715109508392;0.200469970703125;0.000902099609375;4.02999998982523;404;100 mA
19.4815109508139;0.20062255859375;0.00080780029296875;4.03999998979998;405;100 mA
19.4915109507887;0.200408935546875;0.00086181640625;4.04999998977473;406;100 mA
19.5015109507634;0.200531005859375;0.000909423828125;4.05999998974949;407;100 mA
19.5115109507382;0.2005615234375;0.000824584960937499;4.06999998972424;408;100 mA
19.5215109507129;0.20050048828125;0.00086700439453125;4.07999998969899;409;100 mA
19.5315109506877;0.20050048828125;0.000914916992187501;4.08999998967374;410;100 mA
19.5415109506624;0.20062255859375;0.00082275390625;4.0999999896485;411;100 mA
19.5515109506372;0.200531005859375;0.000872802734375;4.10999998962325;412;100 mA
19.5615109506119;0.200531005859375;0.00091705322265625;4.119999989598;413;100 mA
19.5715109505867;0.200592041015625;0.000823974609375;4.12999998957275;414;100 mA
19.5815109505614;0.20050048828125;0.000879821777343751;4.1399999895475;415;100 mA
19.5915109505362;0.2005615234375;0.00092041015625;4.14999998952226;416;100 mA
19.6015109505109;0.2005615234375;0.000833740234374999;4.15999998949701;417;100 mA
19.6115109504857;0.2005615234375;0.00086639404296875;4.16999998947176;418;100 mA
19.6215109504604;0.200531005859375;0.0009228515625;4.17999998944651;419;100 mA
19.6315109504352;0.200592041015625;0.00082916259765625;4.18999998942127;420;100 mA
19.64151095041;0.20062255859375;0.000861511230468751;4.19999998939602;421;100 mA
19.6515109503847;0.200469970703125;0.0009295654296875;4.20999998937077;422;100 mA
19.6615109503595;0.200592041015625;0.000828857421875;4.21999998934552;423;100 mA
19.6715109503342;0.2005615234375;0.00088226318359375;4.22999998932028;424;100 mA
19.681510950309;0.200439453125;0.00092987060546875;4.23999998929503;425;100 mA
19.6915109502837;0.2005615234375;0.0008349609375;4.24999998926978;426;100 mA
19.7015109502585;0.200408935546875;0.00089080810546875;4.25999998924453;427;100 mA
19.7115109502332;0.200347900390625;0.000928649902343751;4.26999998921929;428;100 mA
19.721510950208;0.2005615234375;0.000832519531250001;4.27999998919404;429;100 mA
19.7315109501827;0.20050048828125;0.00088348388671875;4.28999998916879;430;100 mA
19.7415109501575;0.200408935546875;0.00092498779296875;4.29999998914354;431;100 mA
19.7515109501322;0.200592041015625;0.000838623046875001;4.3099999891183;432;100 mA
19.761510950107;0.200408935546875;0.0008740234375;4.31999998909305;433;100 mA
19.7715109500817;0.200347900390625;0.000910339355468751;4.3299999890678;434;100 mA
19.7815109500565;0.200592041015625;0.00083038330078125;4.33999998904255;435;100 mA
19.7915109500312;0.200439453125;0.000867614746093751;4.34999998901731;436;100 mA
19.801510950006;0.200408935546875;0.00092987060546875;4.35999998899206;437;100 mA
19.8115109499807;0.200653076171875;0.00082122802734375;4.36999998896681;438;100 mA
19.8215109499555;0.200439453125;0.00086700439453125;4.37999998894156;439;100 mA
19.8315109499302;0.200469970703125;0.000910034179687499;4.38999998891632;440;100 mA
19.841510949905;0.200653076171875;0.000818786621093751;4.39999998889107;441;100 mA
19.8515109498798;0.20037841796875;0.00086822509765625;4.40999998886582;442;100 mA
19.8615109498545;0.20050048828125;0.00089935302734375;4.41999998884057;443;100 mA
19.8715109498293;0.20062255859375;0.0008154296875;4.42999998881533;444;100 mA
19.881510949804;0.20050048828125;0.0008544921875;4.43999998879008;445;100 mA
19.8915109497788;0.200531005859375;0.000894775390624999;4.44999998876483;446;100 mA
19.9015109497535;0.2005615234375;0.00082122802734375;4.45999998873958;447;100 mA
19.9115109497283;0.20050048828125;0.000849304199218751;4.46999998871433;448;100 mA
19.921510949703;0.2005615234375;0.00089385986328125;4.47999998868909;449;100 mA
19.9315109496778;0.20062255859375;0.000812377929687499;4.48999998866384;450;100 mA
19.9415109496525;0.200531005859375;0.000853881835937501;4.49999998863859;451;100 mA
19.9515109496273;0.2005615234375;0.000904541015625;4.50999998861334;452;100 mA
19.961510949602;0.20062255859375;0.00080291748046875;4.5199999885881;453;100 mA
19.9715109495768;0.200592041015625;0.00085968017578125;4.52999998856285;454;100 mA
19.9815109495515;0.200531005859375;0.0009033203125;4.5399999885376;455;100 mA
19.9915109495263;0.20062255859375;0.000808105468750001;4.54999998851235;456;100 mA
20.001510949501;0.2005615234375;0.000871887207031249;4.55999998848711;457;100 mA
20.0115109494758;0.200439453125;0.00089935302734375;4.56999998846186;458;100 mA
20.0215109494505;0.200531005859375;0.0008056640625;4.57999998843661;459;100 mA
20.0315109494253;0.200531005859375;0.000861511230468751;4.58999998841136;460;100 mA
20.0415109494;0.200408935546875;0.00089263916015625;4.59999998838612;461;100 mA
20.0515109493748;0.2005615234375;0.000816650390625;4.60999998836087;462;100 mA
20.0615109493496;0.20050048828125;0.00085357666015625;4.61999998833562;463;100 mA
20.0715109493243;0.20037841796875;0.0009075927734375;4.62999998831037;464;100 mA
20.0815109492991;0.2005615234375;0.0008209228515625;4.63999998828513;465;100 mA
20.0915109492738;0.200469970703125;0.00086212158203125;4.64999998825988;466;100 mA
20.1015109492486;0.200347900390625;0.000923767089843749;4.65999998823463;467;100 mA
20.1115109492233;0.200592041015625;0.00081451416015625;4.66999998820938;468;100 mA
20.1215109491981;0.200408935546875;0.00086395263671875;4.67999998818414;469;100 mA
20.1315109491728;0.200408935546875;0.000910034179687499;4.68999998815889;470;100 mA
20.1415109491476;0.20062255859375;0.00080780029296875;4.69999998813364;471;100 mA
20.1515109491223;0.200408935546875;0.00086517333984375;4.70999998810839;472;100 mA
20.1615109490971;0.200439453125;0.000887451171875001;4.71999998808315;473;100 mA
20.1715109490718;0.2005615234375;0.000812683105468751;4.7299999880579;474;100 mA
20.1815109490466;0.200439453125;0.00084869384765625;4.73999998803265;475;100 mA
20.1915109490213;0.200439453125;0.000903930664062499;4.7499999880074;476;100 mA
20.2015109489961;0.200653076171875;0.00082061767578125;4.75999998798216;477;100 mA
20.2115109489708;0.200439453125;0.00085113525390625;4.76999998795691;478;100 mA
20.2215109489456;0.200408935546875;0.0008978271484375;4.77999998793166;479;100 mA
20.2315109489203;0.20062255859375;0.00081146240234375;4.78999998790641;480;100 mA
20.2415109488951;0.20050048828125;0.000853271484375;4.79999998788116;481;100 mA
20.2515109488698;0.200531005859375;0.0008978271484375;4.80999998785592;482;100 mA
20.2615109488446;0.20062255859375;0.0008038330078125;4.81999998783067;483;100 mA
20.2715109488194;0.200469970703125;0.000856933593750001;4.82999998780542;484;100 mA
20.2815109487941;0.200592041015625;0.00091064453125;4.83999998778017;485;100 mA
20.2915109487689;0.20062255859375;0.000810546875;4.84999998775493;486;100 mA
20.3015109487436;0.200531005859375;0.00086334228515625;4.85999998772968;487;100 mA
20.3115109487184;0.20050048828125;0.0008819580078125;4.86999998770443;488;100 mA
20.3215109486931;0.200592041015625;0.0008013916015625;4.87999998767918;489;100 mA
20.3315109486679;0.200531005859375;0.000856933593750001;4.88999998765394;490;100 mA
20.3415109486426;0.200469970703125;0.00089599609375;4.89999998762869;491;100 mA
20.3515109486174;0.2005615234375;0.000815734863281251;4.90999998760344;492;100 mA
20.3615109485921;0.200653076171875;0.0008453369140625;4.91999998757819;493;100 mA
20.3715109485669;0.20050048828125;0.00088958740234375;4.92999998755295;494;100 mA
20.3815109485416;0.20062255859375;0.0008001708984375;4.9399999875277;495;100 mA
20.3915109485164;0.200531005859375;0.000847778320312501;4.94999998750245;496;100 mA
20.4015109484911;0.200439453125;0.000897216796875;4.9599999874772;497;100 mA
20.4115109484659;0.2005615234375;0.000789489746093749;4.96999998745196;498;100 mA
20.4215109484406;0.2005615234375;0.00084686279296875;4.97999998742671;499;100 mA
20.4315109484154;0.200408935546875;0.0008892822265625;4.98999998740146;500;100 mA
20.4415109483901;0.200531005859375;0.000792236328125;4.99999998737621;501;100 mA
20.4515109483649;0.20050048828125;0.000847473144531249;5.00999998735097;502;100 mA
20.4615109483397;0.20037841796875;0.00088348388671875;5.01999998732572;503;100 mA
20.4715109483144;0.200653076171875;0.0008038330078125;5.02999998730047;504;100 mA
20.4815109482892;0.200408935546875;0.000856933593750001;5.03999998727522;505;100 mA
20.4915109482639;0.200286865234375;0.0008941650390625;5.04999998724998;506;100 mA
20.5015109482387;0.2005615234375;0.00080902099609375;5.05999998722473;507;100 mA
20.5115109482134;0.200439453125;0.000844726562500001;5.06999998719948;508;100 mA
20.5215109481882;0.20037841796875;0.00087890625;5.07999998717423;509;100 mA
20.5315109481629;0.200592041015625;0.000797424316406251;5.08999998714899;510;100 mA
20.5415109481377;0.20037841796875;0.000841064453125;5.09999998712374;511;100 mA
20.5515109481124;0.200439453125;0.000873718261718751;5.10999998709849;512;100 mA
20.5615109480872;0.20062255859375;0.000785217285156251;5.11999998707324;513;100 mA
20.5715109480619;0.20037841796875;0.000835266113281249;5.129999987048;514;100 mA
20.5815109480367;0.200408935546875;0.000880126953125;5.13999998702275;515;100 mA
20.5915109480114;0.20062255859375;0.0007861328125;5.1499999869975;516;100 mA
20.6015109479862;0.20037841796875;0.00084991455078125;5.15999998697225;517;100 mA
20.6115109479609;0.200531005859375;0.000866088867187501;5.169999986947;518;100 mA
20.6215109479357;0.200653076171875;0.00078338623046875;5.17999998692176;519;100 mA
20.6315109479104;0.20050048828125;0.000830993652343751;5.18999998689651;520;100 mA
20.6415109478852;0.200531005859375;0.00086669921875;5.19999998687126;521;100 mA
20.6515109478599;0.200592041015625;0.000786437988281249;5.20999998684601;522;100 mA
20.6615109478347;0.200592041015625;0.000824890136718751;5.21999998682077;523;100 mA
20.6715109478095;0.200592041015625;0.000884399414062501;5.22999998679552;524;100 mA
20.6815109477842;0.200592041015625;0.0008074951171875;5.23999998677027;525;100 mA
20.691510947759;0.200592041015625;0.00085113525390625;5.24999998674502;526;100 mA
20.7015109477337;0.20050048828125;0.00090362548828125;5.25999998671978;527;100 mA
20.7115109477085;0.200592041015625;0.00079681396484375;5.26999998669453;528;100 mA
20.7215109476832;0.20062255859375;0.000862731933593749;5.27999998666928;529;100 mA
20.731510947658;0.200469970703125;0.000894775390624999;5.28999998664403;530;100 mA
20.7415109476327;0.2005615234375;0.00080230712890625;5.29999998661879;531;100 mA
20.7515109476075;0.2005615234375;0.00085784912109375;5.30999998659354;532;100 mA
20.7615109475822;0.200439453125;0.000896606445312501;5.31999998656829;533;100 mA
20.771510947557;0.200531005859375;0.00081207275390625;5.32999998654304;534;100 mA
20.7815109475317;0.200531005859375;0.00086090087890625;5.3399999865178;535;100 mA
20.7915109475065;0.20037841796875;0.00090301513671875;5.34999998649255;536;100 mA
20.8015109474812;0.200592041015625;0.00082733154296875;5.3599999864673;537;100 mA
20.811510947456;0.20050048828125;0.0008624267578125;5.36999998644205;538;100 mA
20.8215109474307;0.200408935546875;0.0009051513671875;5.37999998641681;539;100 mA
20.8315109474055;0.200531005859375;0.00082244873046875;5.38999998639156;540;100 mA
20.8415109473802;0.200439453125;0.000862731933593749;5.39999998636631;541;100 mA
20.851510947355;0.200347900390625;0.00091278076171875;5.40999998634106;542;100 mA
20.8615109473297;0.200531005859375;0.000820007324218749;5.41999998631582;543;100 mA
20.8715109473045;0.200408935546875;0.00086700439453125;5.42999998629057;544;100 mA
20.8815109472793;0.20037841796875;0.0009228515625;5.43999998626532;545;100 mA
20.891510947254;0.200592041015625;0.000831298828125;5.44999998624007;546;100 mA
20.9015109472288;0.20037841796875;0.000901184082031251;5.45999998621483;547;100 mA
20.9115109472035;0.200408935546875;0.00094512939453125;5.46999998618958;548;100 mA
20.9215109471783;0.20062255859375;0.00085601806640625;5.47999998616433;549;100 mA
20.931510947153;0.200439453125;0.000907287597656251;5.48999998613908;550;100 mA
20.9415109471278;0.200531005859375;0.00093719482421875;5.49999998611383;551;100 mA
20.9515109471025;0.20062255859375;0.000866088867187501;5.50999998608859;552;100 mA
20.9615109470773;0.200469970703125;0.000910034179687499;5.51999998606334;553;100 mA
20.971510947052;0.200531005859375;0.00095245361328125;5.52999998603809;554;100 mA
20.9815109470268;0.200653076171875;0.00086090087890625;5.53999998601284;555;100 mA
20.9915109470015;0.200531005859375;0.000909423828125;5.5499999859876;556;100 mA
21.0015109469763;0.2005615234375;0.000963439941406249;5.55999998596235;557;100 mA
21.011510946951;0.20068359375;0.000869140625000001;5.5699999859371;558;100 mA
21.0215109469258;0.2005615234375;0.000906982421875;5.57999998591185;559;100 mA
21.0315109469005;0.200531005859375;0.00094635009765625;5.58999998588661;560;100 mA
21.0415109468753;0.20062255859375;0.00085479736328125;5.59999998586136;561;100 mA
21.05151094685;0.2005615234375;0.0009002685546875;5.60999998583611;562;100 mA
21.0615109468248;0.20062255859375;0.00093048095703125;5.61999998581086;563;100 mA
21.0715109467995;0.200592041015625;0.0008367919921875;5.62999998578562;564;100 mA
21.0815109467743;0.2005615234375;0.0008819580078125;5.63999998576037;565;100 mA
21.0915109467491;0.20050048828125;0.00091827392578125;5.64999998573512;566;100 mA
21.1015109467238;0.20062255859375;0.00083892822265625;5.65999998570987;567;100 mA
21.1115109466986;0.200592041015625;0.00087493896484375;5.66999998568463;568;100 mA
21.1215109466733;0.200439453125;0.000916137695312499;5.67999998565938;569;100 mA
21.1315109466481;0.2005615234375;0.00083648681640625;5.68999998563413;570;100 mA
21.1415109466228;0.2005615234375;0.000875244140625001;5.69999998560888;571;100 mA
21.1515109465976;0.200439453125;0.0009136962890625;5.70999998558364;572;100 mA
21.1615109465723;0.2005615234375;0.000815734863281251;5.71999998555839;573;100 mA
21.1715109465471;0.200469970703125;0.000872802734375;5.72999998553314;574;100 mA
21.1815109465218;0.200347900390625;0.00091552734375;5.73999998550789;575;100 mA
21.1915109464966;0.200531005859375;0.00082244873046875;5.74999998548265;576;100 mA
21.2015109464713;0.200469970703125;0.00087890625;5.7599999854574;577;100 mA
21.2115109464461;0.20037841796875;0.00089874267578125;5.76999998543215;578;100 mA
21.2215109464208;0.2005615234375;0.000820312500000001;5.7799999854069;579;100 mA
21.2315109463956;0.20037841796875;0.00086944580078125;5.78999998538166;580;100 mA
21.2415109463703;0.200439453125;0.000902709960937501;5.79999998535641;581;100 mA
21.2515109463451;0.2005615234375;0.00081512451171875;5.80999998533116;582;100 mA
21.2615109463198;0.200439453125;0.00084991455078125;5.81999998530591;583;100 mA
21.2715109462946;0.20037841796875;0.0008990478515625;5.82999998528066;584;100 mA
21.2815109462693;0.200592041015625;0.000805053710937501;5.83999998525542;585;100 mA
21.2915109462441;0.200408935546875;0.000845947265625;5.84999998523017;586;100 mA
21.3015109462189;0.200439453125;0.0008929443359375;5.85999998520492;587;100 mA
21.3115109461936;0.20068359375;0.000794677734375;5.86999998517967;588;100 mA
21.3215109461684;0.200408935546875;0.000846252441406251;5.87999998515443;589;100 mA
21.3315109461431;0.20037841796875;0.0008953857421875;5.88999998512918;590;100 mA
21.3415109461179;0.20068359375;0.000791015625;5.89999998510393;591;100 mA
21.3515109460926;0.20050048828125;0.00085418701171875;5.90999998507868;592;100 mA
21.3615109460674;0.20050048828125;0.000885009765625;5.91999998505344;593;100 mA
21.3715109460421;0.200653076171875;0.0008013916015625;5.92999998502819;594;100 mA
21.3815109460169;0.200469970703125;0.00084686279296875;5.93999998500294;595;100 mA
21.3915109459916;0.200531005859375;0.00088165283203125;5.94999998497769;596;100 mA
21.4015109459664;0.200653076171875;0.00080413818359375;5.95999998495245;597;100 mA
21.4115109459411;0.2005615234375;0.00083892822265625;5.9699999849272;598;100 mA
21.4215109459159;0.200592041015625;0.00088165283203125;5.97999998490195;599;100 mA
21.4315109458906;0.200531005859375;0.000794677734375;5.9899999848767;600;100 mA
21.4415109458654;0.200592041015625;0.00084228515625;5.99999998485146;601;100 mA
21.4515109458401;0.20050048828125;0.0008929443359375;6.00999998482621;602;100 mA
21.4615109458149;0.200592041015625;0.000795898437500001;6.01999998480096;603;100 mA
21.4715109457896;0.20062255859375;0.000830078125;6.02999998477571;604;100 mA
21.4815109457644;0.20050048828125;0.00089569091796875;6.03999998475047;605;100 mA
21.4915109457392;0.200531005859375;0.000792846679687501;6.04999998472522;606;100 mA
21.5015109457139;0.200531005859375;0.000842895507812499;6.05999998469997;607;100 mA
21.5115109456887;0.200439453125;0.000880126953125;6.06999998467472;608;100 mA
21.5215109456634;0.200592041015625;0.00079010009765625;6.07999998464948;609;100 mA
21.5315109456382;0.200531005859375;0.0008367919921875;6.08999998462423;610;100 mA
21.5415109456129;0.200439453125;0.00087646484375;6.09999998459898;611;100 mA
21.5515109455877;0.20062255859375;0.000798950195312501;6.10999998457373;612;100 mA
21.5615109455624;0.200469970703125;0.0008306884765625;6.11999998454849;613;100 mA
21.5715109455372;0.2003173828125;0.000877685546875;6.12999998452324;614;100 mA
21.5815109455119;0.200531005859375;0.00079864501953125;6.13999998449799;615;100 mA
21.5915109454867;0.200469970703125;0.000826110839843749;6.14999998447274;616;100 mA
21.6015109454614;0.2003173828125;0.00089111328125;6.1599999844475;617;100 mA
21.6115109454362;0.2005615234375;0.000794067382812499;6.16999998442225;618;100 mA
21.6215109454109;0.200469970703125;0.00083160400390625;6.179999984397;619;100 mA
21.6315109453857;0.20037841796875;0.00087738037109375;6.18999998437175;620;100 mA
21.6415109453604;0.200653076171875;0.00079193115234375;6.1999999843465;621;100 mA
21.6515109453352;0.200439453125;0.000848999023437499;6.20999998432126;622;100 mA
21.6615109453099;0.20037841796875;0.000873718261718751;6.21999998429601;623;100 mA
21.6715109452847;0.200653076171875;0.00079193115234375;6.22999998427076;624;100 mA
21.6815109452594;0.200347900390625;0.00083160400390625;6.23999998424551;625;100 mA
21.6915109452342;0.200439453125;0.0008770751953125;6.24999998422027;626;100 mA
21.701510945209;0.200653076171875;0.00080718994140625;6.25999998419502;627;100 mA
21.7115109451837;0.20037841796875;0.00082977294921875;6.26999998416977;628;100 mA
21.7215109451585;0.200531005859375;0.00087554931640625;6.27999998414452;629;100 mA
21.7315109451332;0.200714111328125;0.0007952880859375;6.28999998411928;630;100 mA
21.741510945108;0.200439453125;0.000821838378906251;6.29999998409403;631;100 mA
21.7515109450827;0.20050048828125;0.000875244140625001;6.30999998406878;632;100 mA
21.7615109450575;0.200592041015625;0.000792846679687501;6.31999998404353;633;100 mA
21.7715109450322;0.200469970703125;0.0008343505859375;6.32999998401829;634;100 mA
21.781510945007;0.200469970703125;0.00088043212890625;6.33999998399304;635;100 mA
21.7915109449817;0.20062255859375;0.000797424316406251;6.34999998396779;636;100 mA
21.8015109449565;0.2005615234375;0.0008465576171875;6.35999998394254;637;100 mA
21.8115109449312;0.2005615234375;0.00087493896484375;6.3699999839173;638;100 mA
21.821510944906;0.200592041015625;0.000787963867187499;6.37999998389205;639;100 mA
21.8315109448807;0.20062255859375;0.000832519531250001;6.3899999838668;640;100 mA
21.8415109448555;0.20050048828125;0.00086944580078125;6.39999998384155;641;100 mA
21.8515109448302;0.200592041015625;0.000799560546875;6.40999998381631;642;100 mA
21.861510944805;0.200592041015625;0.000827636718749999;6.41999998379106;643;100 mA
21.8715109447797;0.20050048828125;0.000871887207031249;6.42999998376581;644;100 mA
21.8815109447545;0.2005615234375;0.00079681396484375;6.43999998374056;645;100 mA
21.8915109447292;0.200592041015625;0.000831298828125;6.44999998371532;646;100 mA
21.901510944704;0.200439453125;0.00088653564453125;6.45999998369007;647;100 mA
21.9115109446788;0.2005615234375;0.000792236328125;6.46999998366482;648;100 mA
21.9215109446535;0.200531005859375;0.0008453369140625;6.47999998363957;649;100 mA
21.9315109446283;0.200408935546875;0.00087249755859375;6.48999998361433;650;100 mA
21.941510944603;0.20050048828125;0.000785217285156251;6.49999998358908;651;100 mA
21.9515109445778;0.200469970703125;0.0008392333984375;6.50999998356383;652;100 mA
21.9615109445525;0.20037841796875;0.0008770751953125;6.51999998353858;653;100 mA
21.9715109445273;0.2005615234375;0.0008001708984375;6.52999998351333;654;100 mA
21.981510944502;0.200469970703125;0.0008575439453125;6.53999998348809;655;100 mA
21.9915109444768;0.2003173828125;0.00088836669921875;6.54999998346284;656;100 mA
22.0015109444515;0.200531005859375;0.000826416015625001;6.55999998343759;657;100 mA
22.0115109444263;0.20037841796875;0.000840148925781251;6.56999998341234;658;100 mA
22.021510944401;0.200439453125;0.00088623046875;6.5799999833871;659;100 mA
22.0315109443758;0.20062255859375;0.0008074951171875;6.58999998336185;660;100 mA
22.0415109443505;0.20037841796875;0.000850830078125001;6.5999999833366;661;100 mA
22.0515109443253;0.200439453125;0.00089599609375;6.60999998331135;662;100 mA
22.0615109443;0.200592041015625;0.000789489746093749;6.61999998328611;663;100 mA
22.0715109442748;0.20037841796875;0.00084075927734375;6.62999998326086;664;100 mA
22.0815109442495;0.200439453125;0.000893249511718749;6.63999998323561;665;100 mA
22.0915109442243;0.2005615234375;0.000811767578125;6.64999998321036;666;100 mA
22.101510944199;0.200408935546875;0.000855712890625;6.65999998318512;667;100 mA
22.1115109441738;0.20050048828125;0.0008990478515625;6.66999998315987;668;100 mA
22.1215109441486;0.200714111328125;0.00080596923828125;6.67999998313462;669;100 mA
22.1315109441233;0.2005615234375;0.00085601806640625;6.68999998310937;670;100 mA
22.1415109440981;0.20062255859375;0.00089019775390625;6.69999998308413;671;100 mA
22.1515109440728;0.200592041015625;0.00081298828125;6.70999998305888;672;100 mA
22.1615109440476;0.2005615234375;0.0008453369140625;6.71999998303363;673;100 mA
22.1715109440223;0.2005615234375;0.000888977050781251;6.72999998300838;674;100 mA
22.1815109439971;0.20062255859375;0.00081756591796875;6.73999998298314;675;100 mA
22.1915109439718;0.200653076171875;0.0008636474609375;6.74999998295789;676;100 mA
22.2015109439466;0.200592041015625;0.0009130859375;6.75999998293264;677;100 mA
22.2115109439213;0.200592041015625;0.0008270263671875;6.76999998290739;678;100 mA
22.2215109438961;0.200592041015625;0.000870361328124999;6.77999998288215;679;100 mA
22.2315109438708;0.200531005859375;0.000910339355468751;6.7899999828569;680;100 mA
22.2415109438456;0.2005615234375;0.000824584960937499;6.79999998283165;681;100 mA
22.2515109438203;0.200531005859375;0.000866088867187501;6.8099999828064;682;100 mA
22.2615109437951;0.200469970703125;0.0008892822265625;6.81999998278116;683;100 mA
22.2715109437698;0.200531005859375;0.00081390380859375;6.82999998275591;684;100 mA
22.2815109437446;0.20050048828125;0.000859375;6.83999998273066;685;100 mA
22.2915109437193;0.2003173828125;0.000897216796875;6.84999998270541;686;100 mA
22.3015109436941;0.200531005859375;0.00081939697265625;6.85999998268016;687;100 mA
22.3115109436688;0.200469970703125;0.000840148925781251;6.86999998265492;688;100 mA
22.3215109436436;0.200408935546875;0.0008868408203125;6.87999998262967;689;100 mA
22.3315109436184;0.200531005859375;0.00081939697265625;6.88999998260442;690;100 mA
22.3415109435931;0.200469970703125;0.00084503173828125;6.89999998257917;691;100 mA
22.3515109435679;0.200347900390625;0.00089263916015625;6.90999998255393;692;100 mA
22.3615109435426;0.20050048828125;0.000808105468750001;6.91999998252868;693;100 mA
22.3715109435174;0.200439453125;0.00084503173828125;6.92999998250343;694;100 mA
22.3815109434921;0.20037841796875;0.00088409423828125;6.93999998247818;695;100 mA
22.3915109434669;0.200592041015625;0.00079620361328125;6.94999998245294;696;100 mA
22.4015109434416;0.200408935546875;0.0008612060546875;6.95999998242769;697;100 mA
22.4115109434164;0.20037841796875;0.000880126953125;6.96999998240244;698;100 mA
22.4215109433911;0.200592041015625;0.000812377929687499;6.97999998237719;699;100 mA
22.4315109433659;0.200408935546875;0.0008612060546875;6.98999998235195;700;100 mA
