Time (s);WE(1).Potential (V);WE(1).Current (A);Corrected time (s);Index;Current range
22.9727239419994;-0.80047607421875;-0.348907470703125;0;1;100 mA
22.9827239419742;-0.799560546875;-0.252532958984375;0.00999999997475243;2;100 mA
22.992723941949;-0.79925537109375;-0.205810546875;0.0199999999495049;3;100 mA
23.0027239419237;-0.79925537109375;-0.17816162109375;0.0299999999242573;4;100 mA
23.0127239418985;-0.79925537109375;-0.159942626953125;0.0399999998990097;5;100 mA
23.0227239418732;-0.79925537109375;-0.145416259765625;0.0499999998737621;6;100 mA
23.032723941848;-0.79925537109375;-0.134765625;0.0599999998485146;7;100 mA
23.0427239418227;-0.799560546875;-0.126617431640625;0.069999999823267;8;100 mA
23.0527239417975;-0.799560546875;-0.118988037109375;0.0799999997980194;9;100 mA
23.0627239417722;-0.7989501953125;-0.113250732421875;0.0899999997727718;10;100 mA
23.072723941747;-0.7989501953125;-0.1085205078125;0.0999999997475243;11;100 mA
23.0827239417217;-0.79925537109375;-0.10400390625;0.109999999722277;12;100 mA
23.0927239416965;-0.79864501953125;-0.100250244140625;0.119999999697029;13;100 mA
23.1027239416712;-0.79864501953125;-0.097320556640625;0.129999999671782;14;100 mA
23.112723941646;-0.799560546875;-0.093963623046875;0.139999999646534;15;100 mA
23.1227239416207;-0.79925537109375;-0.0916748046875;0.149999999621286;16;100 mA
23.1327239415955;-0.79925537109375;-0.089813232421875;0.159999999596039;17;100 mA
23.1427239415702;-0.7989501953125;-0.08746337890625;0.169999999570791;18;100 mA
23.152723941545;-0.7989501953125;-0.0858154296875;0.179999999545544;19;100 mA
23.1627239415197;-0.7989501953125;-0.08453369140625;0.189999999520296;20;100 mA
23.1727239414945;-0.799560546875;-0.082855224609375;0.199999999495049;21;100 mA
23.1827239414692;-0.7989501953125;-0.081756591796875;0.209999999469801;22;100 mA
23.192723941444;-0.79925537109375;-0.080841064453125;0.219999999444553;23;100 mA
23.2027239414188;-0.79833984375;-0.079254150390625;0.229999999419306;24;100 mA
23.2127239413935;-0.7989501953125;-0.07855224609375;0.239999999394058;25;100 mA
23.2227239413683;-0.799560546875;-0.077880859375;0.249999999368811;26;100 mA
23.232723941343;-0.79925537109375;-0.076690673828125;0.259999999343563;27;100 mA
23.2427239413178;-0.799560546875;-0.07598876953125;0.269999999318316;28;100 mA
23.2527239412925;-0.799560546875;-0.07568359375;0.279999999293068;29;100 mA
23.2627239412673;-0.7989501953125;-0.07452392578125;0.28999999926782;30;100 mA
23.272723941242;-0.79925537109375;-0.07403564453125;0.299999999242573;31;100 mA
23.2827239412168;-0.79925537109375;-0.07366943359375;0.309999999217325;32;100 mA
23.2927239411915;-0.799560546875;-0.072601318359375;0.319999999192078;33;100 mA
23.3027239411663;-0.799560546875;-0.07220458984375;0.32999999916683;34;100 mA
23.312723941141;-0.7989501953125;-0.071929931640625;0.339999999141583;35;100 mA
23.3227239411158;-0.79925537109375;-0.07122802734375;0.349999999116335;36;100 mA
23.3327239410905;-0.799560546875;-0.071044921875;0.359999999091087;37;100 mA
23.3427239410653;-0.79925537109375;-0.07098388671875;0.36999999906584;38;100 mA
23.35272394104;-0.799560546875;-0.070068359375;0.379999999040592;39;100 mA
23.3627239410148;-0.79986572265625;-0.070068359375;0.389999999015345;40;100 mA
23.3727239409895;-0.7989501953125;-0.070037841796875;0.399999998990097;41;100 mA
23.3827239409643;-0.79925537109375;-0.06939697265625;0.40999999896485;42;100 mA
23.392723940939;-0.79925537109375;-0.069244384765625;0.419999998939602;43;100 mA
23.4027239409138;-0.7989501953125;-0.06927490234375;0.429999998914354;44;100 mA
23.4127239408886;-0.79925537109375;-0.06866455078125;0.439999998889107;45;100 mA
23.4227239408633;-0.79925537109375;-0.06866455078125;0.449999998863859;46;100 mA
23.4327239408381;-0.79864501953125;-0.0687255859375;0.459999998838612;47;100 mA
23.4427239408128;-0.7989501953125;-0.068084716796875;0.469999998813364;48;100 mA
23.4527239407876;-0.7989501953125;-0.0682373046875;0.479999998788116;49;100 mA
23.4627239407623;-0.799560546875;-0.068267822265625;0.489999998762869;50;100 mA
23.4727239407371;-0.7989501953125;-0.067718505859375;0.499999998737621;51;100 mA
23.4827239407118;-0.79925537109375;-0.0677490234375;0.509999998712374;52;100 mA
23.4927239406866;-0.79925537109375;-0.067901611328125;0.519999998687126;53;100 mA
23.5027239406613;-0.7989501953125;-0.067291259765625;0.529999998661879;54;100 mA
23.5127239406361;-0.79864501953125;-0.06744384765625;0.539999998636631;55;100 mA
23.5227239406108;-0.79925537109375;-0.067535400390625;0.549999998611383;56;100 mA
23.5327239405856;-0.79925537109375;-0.06695556640625;0.559999998586136;57;100 mA
23.5427239405603;-0.79864501953125;-0.066925048828125;0.569999998560888;58;100 mA
23.5527239405351;-0.79925537109375;-0.06707763671875;0.579999998535641;59;100 mA
23.5627239405098;-0.79864501953125;-0.06658935546875;0.589999998510393;60;100 mA
23.5727239404846;-0.7989501953125;-0.066680908203125;0.599999998485146;61;100 mA
23.5827239404593;-0.799560546875;-0.066925048828125;0.609999998459898;62;100 mA
23.5927239404341;-0.7989501953125;-0.066253662109375;0.61999999843465;63;100 mA
23.6027239404089;-0.79925537109375;-0.066558837890625;0.629999998409403;64;100 mA
23.6127239403836;-0.79925537109375;-0.066619873046875;0.639999998384155;65;100 mA
23.6227239403584;-0.7989501953125;-0.066009521484375;0.649999998358908;66;100 mA
23.6327239403331;-0.799560546875;-0.066070556640625;0.65999999833366;67;100 mA
23.6427239403079;-0.7989501953125;-0.066192626953125;0.669999998308413;68;100 mA
23.6527239402826;-0.799560546875;-0.0654296875;0.679999998283165;69;100 mA
23.6627239402574;-0.79925537109375;-0.06536865234375;0.689999998257917;70;100 mA
23.6727239402321;-0.799560546875;-0.06536865234375;0.69999999823267;71;100 mA
23.6827239402069;-0.7989501953125;-0.0645751953125;0.709999998207422;72;100 mA
23.6927239401816;-0.7989501953125;-0.064544677734375;0.719999998182175;73;100 mA
23.7027239401564;-0.79925537109375;-0.064605712890625;0.729999998156927;74;100 mA
23.7127239401311;-0.799560546875;-0.064056396484375;0.73999999813168;75;100 mA
23.7227239401059;-0.79925537109375;-0.06396484375;0.749999998106432;76;100 mA
23.7327239400806;-0.79925537109375;-0.064117431640625;0.759999998081184;77;100 mA
23.7427239400554;-0.799560546875;-0.0634765625;0.769999998055937;78;100 mA
23.7527239400301;-0.79986572265625;-0.063720703125;0.779999998030689;79;100 mA
23.7627239400049;-0.79925537109375;-0.06396484375;0.789999998005442;80;100 mA
23.7727239399796;-0.7989501953125;-0.0634765625;0.799999997980194;81;100 mA
23.7827239399544;-0.79864501953125;-0.06365966796875;0.809999997954947;82;100 mA
23.7927239399291;-0.79925537109375;-0.06396484375;0.819999997929699;83;100 mA
23.8027239399039;-0.79986572265625;-0.06365966796875;0.829999997904451;84;100 mA
23.8127239398787;-0.79925537109375;-0.063995361328125;0.839999997879204;85;100 mA
23.8227239398534;-0.7989501953125;-0.064483642578125;0.849999997853956;86;100 mA
23.8327239398282;-0.799560546875;-0.064208984375;0.859999997828709;87;100 mA
23.8427239398029;-0.79925537109375;-0.06463623046875;0.869999997803461;88;100 mA
23.8527239397777;-0.7989501953125;-0.064971923828125;0.879999997778214;89;100 mA
23.8627239397524;-0.7989501953125;-0.064849853515625;0.889999997752966;90;100 mA
23.8727239397272;-0.79925537109375;-0.065216064453125;0.899999997727718;91;100 mA
23.8827239397019;-0.799560546875;-0.065704345703125;0.909999997702471;92;100 mA
23.8927239396767;-0.79925537109375;-0.065338134765625;0.919999997677223;93;100 mA
23.9027239396514;-0.7989501953125;-0.065704345703125;0.929999997651976;94;100 mA
23.9127239396262;-0.7989501953125;-0.06597900390625;0.939999997626728;95;100 mA
23.9227239396009;-0.79925537109375;-0.0655517578125;0.949999997601481;96;100 mA
23.9327239395757;-0.79925537109375;-0.065704345703125;0.959999997576233;97;100 mA
23.9427239395504;-0.7989501953125;-0.065887451171875;0.969999997550985;98;100 mA
23.9527239395252;-0.7989501953125;-0.0655517578125;0.979999997525738;99;100 mA
23.9627239394999;-0.79864501953125;-0.06573486328125;0.98999999750049;100;100 mA
23.9727239394747;-0.79925537109375;-0.0660400390625;0.999999997475243;101;100 mA
23.9827239394494;-0.7989501953125;-0.065460205078125;1.00999999745;102;100 mA
23.9927239394242;-0.7989501953125;-0.065765380859375;1.01999999742475;103;100 mA
24.0027239393989;-0.79864501953125;-0.0660400390625;1.0299999973995;104;100 mA
24.0127239393737;-0.79925537109375;-0.065704345703125;1.03999999737425;105;100 mA
24.0227239393485;-0.79925537109375;-0.065826416015625;1.049999997349;106;100 mA
24.0327239393232;-0.7989501953125;-0.0660400390625;1.05999999732376;107;100 mA
24.042723939298;-0.7989501953125;-0.065460205078125;1.06999999729851;108;100 mA
24.0527239392727;-0.79925537109375;-0.065582275390625;1.07999999727326;109;100 mA
24.0627239392475;-0.799560546875;-0.065765380859375;1.08999999724801;110;100 mA
24.0727239392222;-0.79833984375;-0.065216064453125;1.09999999722277;111;100 mA
24.082723939197;-0.79925537109375;-0.065338134765625;1.10999999719752;112;100 mA
24.0927239391717;-0.79925537109375;-0.0654296875;1.11999999717227;113;100 mA
24.1027239391465;-0.79925537109375;-0.065093994140625;1.12999999714702;114;100 mA
24.1127239391212;-0.79925537109375;-0.065093994140625;1.13999999712178;115;100 mA
24.122723939096;-0.7989501953125;-0.065277099609375;1.14999999709653;116;100 mA
24.1327239390707;-0.79925537109375;-0.064666748046875;1.15999999707128;117;100 mA
24.1427239390455;-0.79925537109375;-0.064788818359375;1.16999999704603;118;100 mA
24.1527239390202;-0.79925537109375;-0.06494140625;1.17999999702079;119;100 mA
24.162723938995;-0.79925537109375;-0.064453125;1.18999999699554;120;100 mA
24.1727239389697;-0.799560546875;-0.064483642578125;1.19999999697029;121;100 mA
24.1827239389445;-0.7989501953125;-0.0645751953125;1.20999999694504;122;100 mA
24.1927239389192;-0.799560546875;-0.06402587890625;1.2199999969198;123;100 mA
24.202723938894;-0.79925537109375;-0.0640869140625;1.22999999689455;124;100 mA
24.2127239388687;-0.799560546875;-0.0643310546875;1.2399999968693;125;100 mA
24.2227239388435;-0.799560546875;-0.063812255859375;1.24999999684405;126;100 mA
24.2327239388183;-0.79925537109375;-0.06396484375;1.25999999681881;127;100 mA
24.242723938793;-0.7989501953125;-0.064056396484375;1.26999999679356;128;100 mA
24.2527239387678;-0.799560546875;-0.063720703125;1.27999999676831;129;100 mA
24.2627239387425;-0.79986572265625;-0.063812255859375;1.28999999674306;130;100 mA
24.2727239387173;-0.7989501953125;-0.06414794921875;1.29999999671782;131;100 mA
24.282723938692;-0.79925537109375;-0.06365966796875;1.30999999669257;132;100 mA
24.2927239386668;-0.79925537109375;-0.063934326171875;1.31999999666732;133;100 mA
24.3027239386415;-0.79925537109375;-0.064178466796875;1.32999999664207;134;100 mA
24.3127239386163;-0.799560546875;-0.06378173828125;1.33999999661683;135;100 mA
24.322723938591;-0.7989501953125;-0.063995361328125;1.34999999659158;136;100 mA
24.3327239385658;-0.7989501953125;-0.064239501953125;1.35999999656633;137;100 mA
24.3427239385405;-0.7989501953125;-0.063873291015625;1.36999999654108;138;100 mA
24.3527239385153;-0.79925537109375;-0.063995361328125;1.37999999651583;139;100 mA
24.36272393849;-0.799560546875;-0.06427001953125;1.38999999649059;140;100 mA
24.3727239384648;-0.7989501953125;-0.063720703125;1.39999999646534;141;100 mA
24.3827239384395;-0.79925537109375;-0.06396484375;1.40999999644009;142;100 mA
24.3927239384143;-0.7989501953125;-0.064117431640625;1.41999999641484;143;100 mA
24.402723938389;-0.7989501953125;-0.06378173828125;1.4299999963896;144;100 mA
24.4127239383638;-0.79925537109375;-0.0638427734375;1.43999999636435;145;100 mA
24.4227239383385;-0.79925537109375;-0.06402587890625;1.4499999963391;146;100 mA
24.4327239383133;-0.79864501953125;-0.0635986328125;1.45999999631385;147;100 mA
24.4427239382881;-0.799560546875;-0.063690185546875;1.46999999628861;148;100 mA
24.4527239382628;-0.79925537109375;-0.063873291015625;1.47999999626336;149;100 mA
24.4627239382376;-0.7989501953125;-0.063323974609375;1.48999999623811;150;100 mA
24.4727239382123;-0.79925537109375;-0.063385009765625;1.49999999621286;151;100 mA
24.4827239381871;-0.7989501953125;-0.063446044921875;1.50999999618762;152;100 mA
24.4927239381618;-0.799560546875;-0.06298828125;1.51999999616237;153;100 mA
24.5027239381366;-0.79925537109375;-0.063018798828125;1.52999999613712;154;100 mA
24.5127239381113;-0.799560546875;-0.063140869140625;1.53999999611187;155;100 mA
24.5227239380861;-0.79925537109375;-0.0625;1.54999999608663;156;100 mA
24.5327239380608;-0.79986572265625;-0.062774658203125;1.55999999606138;157;100 mA
24.5427239380356;-0.799560546875;-0.06298828125;1.56999999603613;158;100 mA
24.5527239380103;-0.7989501953125;-0.06268310546875;1.57999999601088;159;100 mA
24.5627239379851;-0.799560546875;-0.06292724609375;1.58999999598564;160;100 mA
24.5727239379598;-0.79925537109375;-0.063201904296875;1.59999999596039;161;100 mA
24.5827239379346;-0.79925537109375;-0.06280517578125;1.60999999593514;162;100 mA
24.5927239379093;-0.79925537109375;-0.06304931640625;1.61999999590989;163;100 mA
24.6027239378841;-0.79925537109375;-0.063323974609375;1.62999999588465;164;100 mA
24.6127239378588;-0.79986572265625;-0.062835693359375;1.6399999958594;165;100 mA
24.6227239378336;-0.79925537109375;-0.063140869140625;1.64999999583415;166;100 mA
24.6327239378084;-0.7989501953125;-0.0633544921875;1.6599999958089;167;100 mA
24.6427239377831;-0.79986572265625;-0.063018798828125;1.66999999578366;168;100 mA
24.6527239377579;-0.799560546875;-0.063262939453125;1.67999999575841;169;100 mA
24.6627239377326;-0.7989501953125;-0.063720703125;1.68999999573316;170;100 mA
24.6727239377074;-0.799560546875;-0.0633544921875;1.69999999570791;171;100 mA
24.6827239376821;-0.7989501953125;-0.063812255859375;1.70999999568267;172;100 mA
24.6927239376569;-0.799560546875;-0.064117431640625;1.71999999565742;173;100 mA
24.7027239376316;-0.79925537109375;-0.06365966796875;1.72999999563217;174;100 mA
24.7127239376064;-0.79925537109375;-0.063873291015625;1.73999999560692;175;100 mA
24.7227239375811;-0.799560546875;-0.06390380859375;1.74999999558167;176;100 mA
24.7327239375559;-0.79925537109375;-0.063385009765625;1.75999999555643;177;100 mA
24.7427239375306;-0.79925537109375;-0.063507080078125;1.76999999553118;178;100 mA
24.7527239375054;-0.7989501953125;-0.06365966796875;1.77999999550593;179;100 mA
24.7627239374801;-0.79925537109375;-0.06298828125;1.78999999548068;180;100 mA
24.7727239374549;-0.79925537109375;-0.063232421875;1.79999999545544;181;100 mA
24.7827239374296;-0.79925537109375;-0.06341552734375;1.80999999543019;182;100 mA
24.7927239374044;-0.79925537109375;-0.062896728515625;1.81999999540494;183;100 mA
24.8027239373791;-0.79925537109375;-0.06298828125;1.82999999537969;184;100 mA
24.8127239373539;-0.7989501953125;-0.063232421875;1.83999999535445;185;100 mA
24.8227239373286;-0.79925537109375;-0.06280517578125;1.8499999953292;186;100 mA
24.8327239373034;-0.7989501953125;-0.063079833984375;1.85999999530395;187;100 mA
24.8427239372782;-0.79925537109375;-0.0633544921875;1.8699999952787;188;100 mA
24.8527239372529;-0.7989501953125;-0.062835693359375;1.87999999525346;189;100 mA
24.8627239372277;-0.7989501953125;-0.063140869140625;1.88999999522821;190;100 mA
24.8727239372024;-0.79925537109375;-0.063385009765625;1.89999999520296;191;100 mA
24.8827239371772;-0.799560546875;-0.06317138671875;1.90999999517771;192;100 mA
24.8927239371519;-0.799560546875;-0.063507080078125;1.91999999515247;193;100 mA
24.9027239371267;-0.79925537109375;-0.063873291015625;1.92999999512722;194;100 mA
24.9127239371014;-0.79925537109375;-0.063323974609375;1.93999999510197;195;100 mA
24.9227239370762;-0.79925537109375;-0.06365966796875;1.94999999507672;196;100 mA
24.9327239370509;-0.799560546875;-0.0638427734375;1.95999999505148;197;100 mA
24.9427239370257;-0.79925537109375;-0.06341552734375;1.96999999502623;198;100 mA
24.9527239370004;-0.799560546875;-0.06353759765625;1.97999999500098;199;100 mA
24.9627239369752;-0.7989501953125;-0.06365966796875;1.98999999497573;200;100 mA
24.9727239369499;-0.79864501953125;-0.063140869140625;1.99999999495049;201;100 mA
24.9827239369247;-0.79925537109375;-0.0633544921875;2.00999999492524;202;100 mA
24.9927239368994;-0.79864501953125;-0.063629150390625;2.01999999489999;203;100 mA
25.0027239368742;-0.79925537109375;-0.063079833984375;2.02999999487474;204;100 mA
25.0127239368489;-0.79925537109375;-0.063385009765625;2.0399999948495;205;100 mA
25.0227239368237;-0.7989501953125;-0.0634765625;2.04999999482425;206;100 mA
25.0327239367984;-0.79925537109375;-0.062896728515625;2.059999994799;207;100 mA
25.0427239367732;-0.79925537109375;-0.06298828125;2.06999999477375;208;100 mA
25.052723936748;-0.79864501953125;-0.063232421875;2.0799999947485;209;100 mA
25.0627239367227;-0.79925537109375;-0.062774658203125;2.08999999472326;210;100 mA
25.0727239366975;-0.799560546875;-0.063201904296875;2.09999999469801;211;100 mA
25.0827239366722;-0.7989501953125;-0.063568115234375;2.10999999467276;212;100 mA
25.092723936647;-0.7989501953125;-0.0631103515625;2.11999999464751;213;100 mA
25.1027239366217;-0.7989501953125;-0.063385009765625;2.12999999462227;214;100 mA
25.1127239365965;-0.7989501953125;-0.063690185546875;2.13999999459702;215;100 mA
25.1227239365712;-0.79925537109375;-0.0633544921875;2.14999999457177;216;100 mA
25.132723936546;-0.7989501953125;-0.063720703125;2.15999999454652;217;100 mA
25.1427239365207;-0.799560546875;-0.064178466796875;2.16999999452128;218;100 mA
25.1527239364955;-0.7989501953125;-0.06365966796875;2.17999999449603;219;100 mA
25.1627239364702;-0.79925537109375;-0.06414794921875;2.18999999447078;220;100 mA
25.172723936445;-0.799560546875;-0.06439208984375;2.19999999444553;221;100 mA
25.1827239364197;-0.799560546875;-0.063934326171875;2.20999999442029;222;100 mA
25.1927239363945;-0.7989501953125;-0.0640869140625;2.21999999439504;223;100 mA
25.2027239363692;-0.79925537109375;-0.06439208984375;2.22999999436979;224;100 mA
25.212723936344;-0.7989501953125;-0.063934326171875;2.23999999434454;225;100 mA
25.2227239363187;-0.799560546875;-0.064208984375;2.2499999943193;226;100 mA
25.2327239362935;-0.79925537109375;-0.06451416015625;2.25999999429405;227;100 mA
25.2427239362682;-0.79925537109375;-0.06396484375;2.2699999942688;228;100 mA
25.252723936243;-0.7989501953125;-0.064300537109375;2.27999999424355;229;100 mA
25.2627239362178;-0.7989501953125;-0.064483642578125;2.28999999421831;230;100 mA
25.2727239361925;-0.79925537109375;-0.064056396484375;2.29999999419306;231;100 mA
25.2827239361673;-0.79925537109375;-0.0643310546875;2.30999999416781;232;100 mA
25.292723936142;-0.7989501953125;-0.06463623046875;2.31999999414256;233;100 mA
25.3027239361168;-0.79925537109375;-0.064056396484375;2.32999999411732;234;100 mA
25.3127239360915;-0.799560546875;-0.064544677734375;2.33999999409207;235;100 mA
25.3227239360663;-0.79925537109375;-0.064788818359375;2.34999999406682;236;100 mA
25.332723936041;-0.79864501953125;-0.0643310546875;2.35999999404157;237;100 mA
25.3427239360158;-0.79925537109375;-0.064453125;2.36999999401633;238;100 mA
25.3527239359905;-0.79864501953125;-0.064666748046875;2.37999999399108;239;100 mA
25.3627239359653;-0.7989501953125;-0.064239501953125;2.38999999396583;240;100 mA
25.37272393594;-0.79925537109375;-0.064483642578125;2.39999999394058;241;100 mA
25.3827239359148;-0.7989501953125;-0.064788818359375;2.40999999391533;242;100 mA
25.3927239358895;-0.799560546875;-0.064117431640625;2.41999999389009;243;100 mA
25.4027239358643;-0.799560546875;-0.064483642578125;2.42999999386484;244;100 mA
25.412723935839;-0.799560546875;-0.064697265625;2.43999999383959;245;100 mA
25.4227239358138;-0.7989501953125;-0.06427001953125;2.44999999381434;246;100 mA
25.4327239357885;-0.79925537109375;-0.06439208984375;2.4599999937891;247;100 mA
25.4427239357633;-0.799560546875;-0.0648193359375;2.46999999376385;248;100 mA
25.452723935738;-0.799560546875;-0.064361572265625;2.4799999937386;249;100 mA
25.4627239357128;-0.799560546875;-0.064727783203125;2.48999999371335;250;100 mA
25.4727239356876;-0.79925537109375;-0.0650634765625;2.49999999368811;251;100 mA
25.4827239356623;-0.79925537109375;-0.0645751953125;2.50999999366286;252;100 mA
25.4927239356371;-0.79925537109375;-0.064697265625;2.51999999363761;253;100 mA
25.5027239356118;-0.79925537109375;-0.064910888671875;2.52999999361236;254;100 mA
25.5127239355866;-0.7989501953125;-0.064422607421875;2.53999999358712;255;100 mA
25.5227239355613;-0.799560546875;-0.0645751953125;2.54999999356187;256;100 mA
25.5327239355361;-0.79864501953125;-0.064849853515625;2.55999999353662;257;100 mA
25.5427239355108;-0.79925537109375;-0.064239501953125;2.56999999351137;258;100 mA
25.5527239354856;-0.7989501953125;-0.064544677734375;2.57999999348613;259;100 mA
25.5627239354603;-0.799560546875;-0.064788818359375;2.58999999346088;260;100 mA
25.5727239354351;-0.799560546875;-0.064422607421875;2.59999999343563;261;100 mA
25.5827239354098;-0.7989501953125;-0.0645751953125;2.60999999341038;262;100 mA
25.5927239353846;-0.7989501953125;-0.064849853515625;2.61999999338514;263;100 mA
25.6027239353593;-0.79864501953125;-0.06439208984375;2.62999999335989;264;100 mA
25.6127239353341;-0.7989501953125;-0.0645751953125;2.63999999333464;265;100 mA
25.6227239353088;-0.79833984375;-0.06488037109375;2.64999999330939;266;100 mA
25.6327239352836;-0.79925537109375;-0.064483642578125;2.65999999328415;267;100 mA
25.6427239352583;-0.799560546875;-0.064849853515625;2.6699999932589;268;100 mA
25.6527239352331;-0.79925537109375;-0.065155029296875;2.67999999323365;269;100 mA
25.6627239352079;-0.7989501953125;-0.06488037109375;2.6899999932084;270;100 mA
25.6727239351826;-0.79925537109375;-0.065155029296875;2.69999999318316;271;100 mA
25.6827239351574;-0.7989501953125;-0.0655517578125;2.70999999315791;272;100 mA
25.6927239351321;-0.799560546875;-0.06500244140625;2.71999999313266;273;100 mA
25.7027239351069;-0.799560546875;-0.065277099609375;2.72999999310741;274;100 mA
25.7127239350816;-0.79925537109375;-0.065338134765625;2.73999999308217;275;100 mA
25.7227239350564;-0.79925537109375;-0.064727783203125;2.74999999305692;276;100 mA
25.7327239350311;-0.799560546875;-0.064727783203125;2.75999999303167;277;100 mA
25.7427239350059;-0.7989501953125;-0.064788818359375;2.76999999300642;278;100 mA
25.7527239349806;-0.7989501953125;-0.064239501953125;2.77999999298117;279;100 mA
25.7627239349554;-0.79925537109375;-0.064300537109375;2.78999999295593;280;100 mA
25.7727239349301;-0.799560546875;-0.064422607421875;2.79999999293068;281;100 mA
25.7827239349049;-0.7989501953125;-0.063720703125;2.80999999290543;282;100 mA
25.7927239348796;-0.79925537109375;-0.06402587890625;2.81999999288018;283;100 mA
25.8027239348544;-0.79864501953125;-0.064208984375;2.82999999285494;284;100 mA
25.8127239348291;-0.79925537109375;-0.063751220703125;2.83999999282969;285;100 mA
25.8227239348039;-0.7989501953125;-0.063873291015625;2.84999999280444;286;100 mA
25.8327239347786;-0.7989501953125;-0.064208984375;2.85999999277919;287;100 mA
25.8427239347534;-0.7989501953125;-0.063690185546875;2.86999999275395;288;100 mA
25.8527239347281;-0.79925537109375;-0.064056396484375;2.8799999927287;289;100 mA
25.8627239347029;-0.7989501953125;-0.064422607421875;2.88999999270345;290;100 mA
25.8727239346777;-0.799560546875;-0.06402587890625;2.8999999926782;291;100 mA
25.8827239346524;-0.79986572265625;-0.06427001953125;2.90999999265296;292;100 mA
25.8927239346272;-0.79925537109375;-0.064453125;2.91999999262771;293;100 mA
25.9027239346019;-0.7989501953125;-0.0640869140625;2.92999999260246;294;100 mA
25.9127239345767;-0.7989501953125;-0.064239501953125;2.93999999257721;295;100 mA
25.9227239345514;-0.799560546875;-0.0645751953125;2.94999999255197;296;100 mA
25.9327239345262;-0.7989501953125;-0.064056396484375;2.95999999252672;297;100 mA
25.9427239345009;-0.79925537109375;-0.064422607421875;2.96999999250147;298;100 mA
25.9527239344757;-0.79925537109375;-0.064697265625;2.97999999247622;299;100 mA
25.9627239344504;-0.7989501953125;-0.06427001953125;2.98999999245098;300;100 mA
25.9727239344252;-0.79864501953125;-0.0643310546875;2.99999999242573;301;100 mA
25.9827239343999;-0.79925537109375;-0.064605712890625;3.00999999240048;302;100 mA
25.9927239343747;-0.799560546875;-0.06402587890625;3.01999999237523;303;100 mA
26.0027239343494;-0.799560546875;-0.064208984375;3.02999999234999;304;100 mA
26.0127239343242;-0.7989501953125;-0.064483642578125;3.03999999232474;305;100 mA
26.0227239342989;-0.7989501953125;-0.06396484375;3.04999999229949;306;100 mA
26.0327239342737;-0.79925537109375;-0.064239501953125;3.05999999227424;307;100 mA
26.0427239342484;-0.799560546875;-0.064422607421875;3.069999992249;308;100 mA
26.0527239342232;-0.79925537109375;-0.06414794921875;3.07999999222375;309;100 mA
26.0627239341979;-0.7989501953125;-0.06439208984375;3.0899999921985;310;100 mA
26.0727239341727;-0.799560546875;-0.0648193359375;3.09999999217325;311;100 mA
26.0827239341475;-0.799560546875;-0.064483642578125;3.109999992148;312;100 mA
26.0927239341222;-0.7989501953125;-0.06494140625;3.11999999212276;313;100 mA
26.102723934097;-0.79925537109375;-0.0653076171875;3.12999999209751;314;100 mA
26.1127239340717;-0.7989501953125;-0.064971923828125;3.13999999207226;315;100 mA
26.1227239340465;-0.79986572265625;-0.065155029296875;3.14999999204701;316;100 mA
26.1327239340212;-0.7989501953125;-0.065460205078125;3.15999999202177;317;100 mA
26.142723933996;-0.79925537109375;-0.065155029296875;3.16999999199652;318;100 mA
26.1527239339707;-0.79925537109375;-0.0654296875;3.17999999197127;319;100 mA
26.1627239339455;-0.79925537109375;-0.06573486328125;3.18999999194602;320;100 mA
26.1727239339202;-0.7989501953125;-0.065155029296875;3.19999999192078;321;100 mA
26.182723933895;-0.79925537109375;-0.065399169921875;3.20999999189553;322;100 mA
26.1927239338697;-0.79925537109375;-0.065338134765625;3.21999999187028;323;100 mA
26.2027239338445;-0.7989501953125;-0.064788818359375;3.22999999184503;324;100 mA
26.2127239338192;-0.799560546875;-0.064697265625;3.23999999181979;325;100 mA
26.222723933794;-0.799560546875;-0.0648193359375;3.24999999179454;326;100 mA
26.2327239337687;-0.799560546875;-0.064178466796875;3.25999999176929;327;100 mA
26.2427239337435;-0.7989501953125;-0.0643310546875;3.26999999174404;328;100 mA
26.2527239337182;-0.79925537109375;-0.0645751953125;3.2799999917188;329;100 mA
26.262723933693;-0.79925537109375;-0.0640869140625;3.28999999169355;330;100 mA
26.2727239336677;-0.79925537109375;-0.064361572265625;3.2999999916683;331;100 mA
26.2827239336425;-0.79925537109375;-0.064483642578125;3.30999999164305;332;100 mA
26.2927239336173;-0.799560546875;-0.064056396484375;3.31999999161781;333;100 mA
26.302723933592;-0.799560546875;-0.0640869140625;3.32999999159256;334;100 mA
26.3127239335668;-0.79925537109375;-0.064178466796875;3.33999999156731;335;100 mA
26.3227239335415;-0.79925537109375;-0.06353759765625;3.34999999154206;336;100 mA
26.3327239335163;-0.79925537109375;-0.063995361328125;3.35999999151682;337;100 mA
26.342723933491;-0.79925537109375;-0.064300537109375;3.36999999149157;338;100 mA
26.3527239334658;-0.79925537109375;-0.063995361328125;3.37999999146632;339;100 mA
26.3627239334405;-0.79864501953125;-0.064239501953125;3.38999999144107;340;100 mA
26.3727239334153;-0.7989501953125;-0.064453125;3.39999999141583;341;100 mA
26.38272393339;-0.79925537109375;-0.0638427734375;3.40999999139058;342;100 mA
26.3927239333648;-0.79864501953125;-0.06390380859375;3.41999999136533;343;100 mA
26.4027239333395;-0.799560546875;-0.064117431640625;3.42999999134008;344;100 mA
26.4127239333143;-0.79925537109375;-0.06341552734375;3.43999999131483;345;100 mA
26.422723933289;-0.7989501953125;-0.063568115234375;3.44999999128959;346;100 mA
26.4327239332638;-0.79925537109375;-0.06353759765625;3.45999999126434;347;100 mA
26.4427239332385;-0.79925537109375;-0.062774658203125;3.46999999123909;348;100 mA
26.4527239332133;-0.79925537109375;-0.062652587890625;3.47999999121384;349;100 mA
26.462723933188;-0.7989501953125;-0.06268310546875;3.4899999911886;350;100 mA
26.4727239331628;-0.79925537109375;-0.06201171875;3.49999999116335;351;100 mA
26.4827239331375;-0.799560546875;-0.062286376953125;3.5099999911381;352;100 mA
26.4927239331123;-0.799560546875;-0.062530517578125;3.51999999111285;353;100 mA
26.5027239330871;-0.7989501953125;-0.062042236328125;3.52999999108761;354;100 mA
26.5127239330618;-0.7989501953125;-0.062225341796875;3.53999999106236;355;100 mA
26.5227239330366;-0.79925537109375;-0.062469482421875;3.54999999103711;356;100 mA
26.5327239330113;-0.7989501953125;-0.062042236328125;3.55999999101186;357;100 mA
26.5427239329861;-0.79925537109375;-0.0623779296875;3.56999999098662;358;100 mA
26.5527239329608;-0.79925537109375;-0.06280517578125;3.57999999096137;359;100 mA
26.5627239329356;-0.79925537109375;-0.06219482421875;3.58999999093612;360;100 mA
26.5727239329103;-0.79986572265625;-0.062591552734375;3.59999999091087;361;100 mA
26.5827239328851;-0.79925537109375;-0.0628662109375;3.60999999088563;362;100 mA
26.5927239328598;-0.799560546875;-0.062469482421875;3.61999999086038;363;100 mA
26.6027239328346;-0.7989501953125;-0.062713623046875;3.62999999083513;364;100 mA
26.6127239328093;-0.79864501953125;-0.06298828125;3.63999999080988;365;100 mA
26.6227239327841;-0.79925537109375;-0.0623779296875;3.64999999078464;366;100 mA
26.6327239327588;-0.79925537109375;-0.0626220703125;3.65999999075939;367;100 mA
26.6427239327336;-0.79925537109375;-0.062835693359375;3.66999999073414;368;100 mA
26.6527239327083;-0.799560546875;-0.06219482421875;3.67999999070889;369;100 mA
26.6627239326831;-0.7989501953125;-0.062408447265625;3.68999999068365;370;100 mA
26.6727239326578;-0.79925537109375;-0.062591552734375;3.6999999906584;371;100 mA
26.6827239326326;-0.79925537109375;-0.062255859375;3.70999999063315;372;100 mA
26.6927239326074;-0.799560546875;-0.0625;3.7199999906079;373;100 mA
26.7027239325821;-0.79925537109375;-0.06280517578125;3.72999999058266;374;100 mA
26.7127239325569;-0.7989501953125;-0.06219482421875;3.73999999055741;375;100 mA
26.7227239325316;-0.79925537109375;-0.062591552734375;3.74999999053216;376;100 mA
26.7327239325064;-0.7989501953125;-0.062957763671875;3.75999999050691;377;100 mA
26.7427239324811;-0.79925537109375;-0.062652587890625;3.76999999048167;378;100 mA
26.7527239324559;-0.79864501953125;-0.06292724609375;3.77999999045642;379;100 mA
26.7627239324306;-0.79925537109375;-0.06329345703125;3.78999999043117;380;100 mA
26.7727239324054;-0.799560546875;-0.062896728515625;3.79999999040592;381;100 mA
26.7827239323801;-0.7989501953125;-0.063201904296875;3.80999999038067;382;100 mA
26.7927239323549;-0.799560546875;-0.063507080078125;3.81999999035543;383;100 mA
26.8027239323296;-0.7989501953125;-0.06304931640625;3.82999999033018;384;100 mA
26.8127239323044;-0.7989501953125;-0.063446044921875;3.83999999030493;385;100 mA
26.8227239322791;-0.799560546875;-0.06353759765625;3.84999999027968;386;100 mA
26.8327239322539;-0.79925537109375;-0.06317138671875;3.85999999025444;387;100 mA
26.8427239322286;-0.7989501953125;-0.063262939453125;3.86999999022919;388;100 mA
26.8527239322034;-0.799560546875;-0.063507080078125;3.87999999020394;389;100 mA
26.8627239321781;-0.79864501953125;-0.062957763671875;3.88999999017869;390;100 mA
26.8727239321529;-0.79925537109375;-0.063323974609375;3.89999999015345;391;100 mA
26.8827239321276;-0.79925537109375;-0.063629150390625;3.9099999901282;392;100 mA
26.8927239321024;-0.7989501953125;-0.06329345703125;3.91999999010295;393;100 mA
26.9027239320772;-0.7989501953125;-0.063690185546875;3.9299999900777;394;100 mA
26.9127239320519;-0.79925537109375;-0.0640869140625;3.93999999005246;395;100 mA
26.9227239320267;-0.799560546875;-0.06396484375;3.94999999002721;396;100 mA
26.9327239320014;-0.7989501953125;-0.06451416015625;3.95999999000196;397;100 mA
26.9427239319762;-0.79925537109375;-0.065185546875;3.96999998997671;398;100 mA
26.9527239319509;-0.79925537109375;-0.06500244140625;3.97999998995147;399;100 mA
26.9627239319257;-0.79925537109375;-0.065765380859375;3.98999998992622;400;100 mA
26.9727239319004;-0.79925537109375;-0.06640625;3.99999998990097;401;100 mA
26.9827239318752;-0.799560546875;-0.06646728515625;4.00999998987572;402;100 mA
26.9927239318499;-0.79925537109375;-0.0670166015625;4.01999998985048;403;100 mA
27.0027239318247;-0.79925537109375;-0.067596435546875;4.02999998982523;404;100 mA
27.0127239317994;-0.7989501953125;-0.06744384765625;4.03999998979998;405;100 mA
27.0227239317742;-0.79925537109375;-0.067962646484375;4.04999998977473;406;100 mA
27.0327239317489;-0.7989501953125;-0.06842041015625;4.05999998974949;407;100 mA
27.0427239317237;-0.7989501953125;-0.06805419921875;4.06999998972424;408;100 mA
27.0527239316984;-0.799560546875;-0.068450927734375;4.07999998969899;409;100 mA
27.0627239316732;-0.7989501953125;-0.06878662109375;4.08999998967374;410;100 mA
27.0727239316479;-0.79925537109375;-0.06854248046875;4.0999999896485;411;100 mA
27.0827239316227;-0.79925537109375;-0.06890869140625;4.10999998962325;412;100 mA
27.0927239315974;-0.79925537109375;-0.069366455078125;4.119999989598;413;100 mA
27.1027239315722;-0.799560546875;-0.0689697265625;4.12999998957275;414;100 mA
27.112723931547;-0.7989501953125;-0.069366455078125;4.1399999895475;415;100 mA
27.1227239315217;-0.79925537109375;-0.069610595703125;4.14999998952226;416;100 mA
27.1327239314965;-0.79925537109375;-0.06927490234375;4.15999998949701;417;100 mA
27.1427239314712;-0.799560546875;-0.0694580078125;4.16999998947176;418;100 mA
27.152723931446;-0.799560546875;-0.069793701171875;4.17999998944651;419;100 mA
27.1627239314207;-0.79925537109375;-0.06939697265625;4.18999998942127;420;100 mA
27.1727239313955;-0.7989501953125;-0.069610595703125;4.19999998939602;421;100 mA
27.1827239313702;-0.7989501953125;-0.06988525390625;4.20999998937077;422;100 mA
27.192723931345;-0.79925537109375;-0.0693359375;4.21999998934552;423;100 mA
27.2027239313197;-0.7989501953125;-0.069732666015625;4.22999998932028;424;100 mA
27.2127239312945;-0.799560546875;-0.06988525390625;4.23999998929503;425;100 mA
27.2227239312692;-0.7989501953125;-0.0694580078125;4.24999998926978;426;100 mA
27.232723931244;-0.79925537109375;-0.069488525390625;4.25999998924453;427;100 mA
27.2427239312187;-0.799560546875;-0.069610595703125;4.26999998921929;428;100 mA
27.2527239311935;-0.79864501953125;-0.06884765625;4.27999998919404;429;100 mA
27.2627239311682;-0.79925537109375;-0.068878173828125;4.28999998916879;430;100 mA
27.272723931143;-0.79925537109375;-0.06890869140625;4.29999998914354;431;100 mA
27.2827239311177;-0.7989501953125;-0.068328857421875;4.3099999891183;432;100 mA
27.2927239310925;-0.79925537109375;-0.068359375;4.31999998909305;433;100 mA
27.3027239310672;-0.79925537109375;-0.068359375;4.3299999890678;434;100 mA
27.312723931042;-0.79925537109375;-0.067657470703125;4.33999998904255;435;100 mA
27.3227239310168;-0.7989501953125;-0.067596435546875;4.34999998901731;436;100 mA
27.3327239309915;-0.79925537109375;-0.067718505859375;4.35999998899206;437;100 mA
27.3427239309663;-0.79925537109375;-0.066986083984375;4.36999998896681;438;100 mA
27.352723930941;-0.79925537109375;-0.06719970703125;4.37999998894156;439;100 mA
27.3627239309158;-0.79986572265625;-0.067230224609375;4.38999998891632;440;100 mA
27.3727239308905;-0.7989501953125;-0.066619873046875;4.39999998889107;441;100 mA
27.3827239308653;-0.79925537109375;-0.066619873046875;4.40999998886582;442;100 mA
27.39272393084;-0.79925537109375;-0.06658935546875;4.41999998884057;443;100 mA
27.4027239308148;-0.7989501953125;-0.06585693359375;4.42999998881533;444;100 mA
27.4127239307895;-0.799560546875;-0.06591796875;4.43999998879008;445;100 mA
27.4227239307643;-0.79925537109375;-0.066009521484375;4.44999998876483;446;100 mA
27.432723930739;-0.7989501953125;-0.065338134765625;4.45999998873958;447;100 mA
27.4427239307138;-0.79925537109375;-0.065521240234375;4.46999998871433;448;100 mA
27.4527239306885;-0.79925537109375;-0.065643310546875;4.47999998868909;449;100 mA
27.4627239306633;-0.79925537109375;-0.06512451171875;4.48999998866384;450;100 mA
27.472723930638;-0.799560546875;-0.06512451171875;4.49999998863859;451;100 mA
27.4827239306128;-0.79925537109375;-0.06536865234375;4.50999998861334;452;100 mA
27.4927239305875;-0.79925537109375;-0.064788818359375;4.5199999885881;453;100 mA
27.5027239305623;-0.79925537109375;-0.065216064453125;4.52999998856285;454;100 mA
27.512723930537;-0.79925537109375;-0.0655517578125;4.5399999885376;455;100 mA
27.5227239305118;-0.79925537109375;-0.065155029296875;4.54999998851235;456;100 mA
27.5327239304866;-0.7989501953125;-0.065277099609375;4.55999998848711;457;100 mA
27.5427239304613;-0.79925537109375;-0.065521240234375;4.56999998846186;458;100 mA
27.5527239304361;-0.79925537109375;-0.06512451171875;4.57999998843661;459;100 mA
27.5627239304108;-0.79864501953125;-0.06536865234375;4.58999998841136;460;100 mA
27.5727239303856;-0.79925537109375;-0.065704345703125;4.59999998838612;461;100 mA
27.5827239303603;-0.799560546875;-0.06512451171875;4.60999998836087;462;100 mA
27.5927239303351;-0.7989501953125;-0.065338134765625;4.61999998833562;463;100 mA
27.6027239303098;-0.7989501953125;-0.065399169921875;4.62999998831037;464;100 mA
27.6127239302846;-0.7989501953125;-0.06488037109375;4.63999998828513;465;100 mA
27.6227239302593;-0.7989501953125;-0.064971923828125;4.64999998825988;466;100 mA
27.6327239302341;-0.79925537109375;-0.06524658203125;4.65999998823463;467;100 mA
27.6427239302088;-0.79925537109375;-0.064666748046875;4.66999998820938;468;100 mA
27.6527239301836;-0.79986572265625;-0.064971923828125;4.67999998818414;469;100 mA
27.6627239301583;-0.79925537109375;-0.065185546875;4.68999998815889;470;100 mA
27.6727239301331;-0.7989501953125;-0.064666748046875;4.69999998813364;471;100 mA
27.6827239301078;-0.7989501953125;-0.06488037109375;4.70999998810839;472;100 mA
27.6927239300826;-0.79925537109375;-0.06512451171875;4.71999998808315;473;100 mA
27.7027239300573;-0.79864501953125;-0.064788818359375;4.7299999880579;474;100 mA
27.7127239300321;-0.7989501953125;-0.064971923828125;4.73999998803265;475;100 mA
27.7227239300069;-0.799560546875;-0.065277099609375;4.7499999880074;476;100 mA
27.7327239299816;-0.79925537109375;-0.064727783203125;4.75999998798216;477;100 mA
27.7427239299564;-0.7989501953125;-0.065093994140625;4.76999998795691;478;100 mA
27.7527239299311;-0.79925537109375;-0.065338134765625;4.77999998793166;479;100 mA
27.7627239299059;-0.79925537109375;-0.06500244140625;4.78999998790641;480;100 mA
27.7727239298806;-0.79925537109375;-0.065155029296875;4.79999998788116;481;100 mA
27.7827239298554;-0.7989501953125;-0.06549072265625;4.80999998785592;482;100 mA
27.7927239298301;-0.79925537109375;-0.064971923828125;4.81999998783067;483;100 mA
27.8027239298049;-0.7989501953125;-0.065185546875;4.82999998780542;484;100 mA
27.8127239297796;-0.7989501953125;-0.065399169921875;4.83999998778017;485;100 mA
27.8227239297544;-0.7989501953125;-0.06488037109375;4.84999998775493;486;100 mA
27.8327239297291;-0.79986572265625;-0.065093994140625;4.85999998772968;487;100 mA
27.8427239297039;-0.79925537109375;-0.065155029296875;4.86999998770443;488;100 mA
27.8527239296786;-0.7989501953125;-0.064697265625;4.87999998767918;489;100 mA
27.8627239296534;-0.799560546875;-0.064697265625;4.88999998765394;490;100 mA
27.8727239296281;-0.799560546875;-0.06488037109375;4.89999998762869;491;100 mA
27.8827239296029;-0.799560546875;-0.064300537109375;4.90999998760344;492;100 mA
27.8927239295776;-0.79925537109375;-0.06463623046875;4.91999998757819;493;100 mA
27.9027239295524;-0.79925537109375;-0.0648193359375;4.92999998755295;494;100 mA
27.9127239295271;-0.799560546875;-0.06439208984375;4.9399999875277;495;100 mA
27.9227239295019;-0.79925537109375;-0.064483642578125;4.94999998750245;496;100 mA
27.9327239294767;-0.79925537109375;-0.064788818359375;4.9599999874772;497;100 mA
27.9427239294514;-0.7989501953125;-0.064453125;4.96999998745196;498;100 mA
27.9527239294262;-0.79925537109375;-0.06475830078125;4.97999998742671;499;100 mA
27.9627239294009;-0.79925537109375;-0.06512451171875;4.98999998740146;500;100 mA
27.9727239293757;-0.79986572265625;-0.064727783203125;4.99999998737621;501;100 mA
27.9827239293504;-0.7989501953125;-0.06512451171875;5.00999998735097;502;100 mA
27.9927239293252;-0.7989501953125;-0.0653076171875;5.01999998732572;503;100 mA
28.0027239292999;-0.79925537109375;-0.064971923828125;5.02999998730047;504;100 mA
28.0127239292747;-0.79864501953125;-0.065185546875;5.03999998727522;505;100 mA
28.0227239292494;-0.7989501953125;-0.0655517578125;5.04999998724998;506;100 mA
28.0327239292242;-0.79925537109375;-0.065093994140625;5.05999998722473;507;100 mA
28.0427239291989;-0.79864501953125;-0.065643310546875;5.06999998719948;508;100 mA
28.0527239291737;-0.79925537109375;-0.066070556640625;5.07999998717423;509;100 mA
28.0627239291484;-0.79925537109375;-0.065826416015625;5.08999998714899;510;100 mA
28.0727239291232;-0.7989501953125;-0.066253662109375;5.09999998712374;511;100 mA
28.0827239290979;-0.79925537109375;-0.0667724609375;5.10999998709849;512;100 mA
28.0927239290727;-0.79925537109375;-0.0665283203125;5.11999998707324;513;100 mA
28.1027239290474;-0.7989501953125;-0.066925048828125;5.129999987048;514;100 mA
28.1127239290222;-0.79864501953125;-0.0672607421875;5.13999998702275;515;100 mA
28.1227239289969;-0.799560546875;-0.066650390625;5.1499999869975;516;100 mA
28.1327239289717;-0.7989501953125;-0.0670166015625;5.15999998697225;517;100 mA
28.1427239289465;-0.79925537109375;-0.067138671875;5.169999986947;518;100 mA
28.1527239289212;-0.7989501953125;-0.066680908203125;5.17999998692176;519;100 mA
28.162723928896;-0.7989501953125;-0.066802978515625;5.18999998689651;520;100 mA
28.1727239288707;-0.79925537109375;-0.06695556640625;5.19999998687126;521;100 mA
28.1827239288455;-0.7989501953125;-0.066192626953125;5.20999998684601;522;100 mA
28.1927239288202;-0.7989501953125;-0.06634521484375;5.21999998682077;523;100 mA
28.202723928795;-0.799560546875;-0.06646728515625;5.22999998679552;524;100 mA
28.2127239287697;-0.79925537109375;-0.065704345703125;5.23999998677027;525;100 mA
28.2227239287445;-0.7989501953125;-0.065673828125;5.24999998674502;526;100 mA
28.2327239287192;-0.79925537109375;-0.06561279296875;5.25999998671978;527;100 mA
28.242723928694;-0.79925537109375;-0.064971923828125;5.26999998669453;528;100 mA
28.2527239286687;-0.79925537109375;-0.06500244140625;5.27999998666928;529;100 mA
28.2627239286435;-0.79925537109375;-0.065185546875;5.28999998664403;530;100 mA
28.2727239286182;-0.79925537109375;-0.064422607421875;5.29999998661879;531;100 mA
28.282723928593;-0.799560546875;-0.06475830078125;5.30999998659354;532;100 mA
28.2927239285677;-0.799560546875;-0.06494140625;5.31999998656829;533;100 mA
28.3027239285425;-0.79925537109375;-0.064453125;5.32999998654304;534;100 mA
28.3127239285172;-0.79925537109375;-0.06451416015625;5.3399999865178;535;100 mA
28.322723928492;-0.79925537109375;-0.06475830078125;5.34999998649255;536;100 mA
28.3327239284667;-0.799560546875;-0.064117431640625;5.3599999864673;537;100 mA
28.3427239284415;-0.799560546875;-0.064208984375;5.36999998644205;538;100 mA
28.3527239284163;-0.7989501953125;-0.06439208984375;5.37999998641681;539;100 mA
28.362723928391;-0.7989501953125;-0.0638427734375;5.38999998639156;540;100 mA
28.3727239283658;-0.79864501953125;-0.064208984375;5.39999998636631;541;100 mA
28.3827239283405;-0.79925537109375;-0.0645751953125;5.40999998634106;542;100 mA
28.3927239283153;-0.799560546875;-0.064208984375;5.41999998631582;543;100 mA
28.40272392829;-0.799560546875;-0.064483642578125;5.42999998629057;544;100 mA
28.4127239282648;-0.7989501953125;-0.0648193359375;5.43999998626532;545;100 mA
28.4227239282395;-0.79925537109375;-0.064239501953125;5.44999998624007;546;100 mA
28.4327239282143;-0.799560546875;-0.064727783203125;5.45999998621483;547;100 mA
28.442723928189;-0.79864501953125;-0.065185546875;5.46999998618958;548;100 mA
28.4527239281638;-0.7989501953125;-0.064849853515625;5.47999998616433;549;100 mA
28.4627239281385;-0.79925537109375;-0.06512451171875;5.48999998613908;550;100 mA
28.4727239281133;-0.79925537109375;-0.065399169921875;5.49999998611383;551;100 mA
28.482723928088;-0.79925537109375;-0.064971923828125;5.50999998608859;552;100 mA
28.4927239280628;-0.79925537109375;-0.065277099609375;5.51999998606334;553;100 mA
28.5027239280375;-0.799560546875;-0.065765380859375;5.52999998603809;554;100 mA
28.5127239280123;-0.799560546875;-0.065185546875;5.53999998601284;555;100 mA
28.522723927987;-0.79925537109375;-0.06549072265625;5.5499999859876;556;100 mA
28.5327239279618;-0.7989501953125;-0.06561279296875;5.55999998596235;557;100 mA
28.5427239279365;-0.79864501953125;-0.065216064453125;5.5699999859371;558;100 mA
28.5527239279113;-0.7989501953125;-0.0653076171875;5.57999998591185;559;100 mA
28.5627239278861;-0.7989501953125;-0.0654296875;5.58999998588661;560;100 mA
28.5727239278608;-0.7989501953125;-0.064727783203125;5.59999998586136;561;100 mA
28.5827239278356;-0.79925537109375;-0.0648193359375;5.60999998583611;562;100 mA
28.5927239278103;-0.79925537109375;-0.064910888671875;5.61999998581086;563;100 mA
28.6027239277851;-0.79803466796875;-0.064361572265625;5.62999998578562;564;100 mA
28.6127239277598;-0.79925537109375;-0.064666748046875;5.63999998576037;565;100 mA
28.6227239277346;-0.799560546875;-0.064971923828125;5.64999998573512;566;100 mA
28.6327239277093;-0.79864501953125;-0.064727783203125;5.65999998570987;567;100 mA
28.6427239276841;-0.799560546875;-0.06494140625;5.66999998568463;568;100 mA
28.6527239276588;-0.799560546875;-0.065185546875;5.67999998565938;569;100 mA
28.6627239276336;-0.7989501953125;-0.0645751953125;5.68999998563413;570;100 mA
28.6727239276083;-0.799560546875;-0.06494140625;5.69999998560888;571;100 mA
28.6827239275831;-0.79925537109375;-0.065155029296875;5.70999998558364;572;100 mA
28.6927239275578;-0.79925537109375;-0.064697265625;5.71999998555839;573;100 mA
28.7027239275326;-0.7989501953125;-0.064788818359375;5.72999998553314;574;100 mA
28.7127239275073;-0.79925537109375;-0.0650634765625;5.73999998550789;575;100 mA
28.7227239274821;-0.799560546875;-0.0645751953125;5.74999998548265;576;100 mA
28.7327239274568;-0.79925537109375;-0.064727783203125;5.7599999854574;577;100 mA
28.7427239274316;-0.79864501953125;-0.06494140625;5.76999998543215;578;100 mA
28.7527239274064;-0.79986572265625;-0.0643310546875;5.7799999854069;579;100 mA
28.7627239273811;-0.799560546875;-0.064605712890625;5.78999998538166;580;100 mA
28.7727239273559;-0.79925537109375;-0.064666748046875;5.79999998535641;581;100 mA
28.7827239273306;-0.79925537109375;-0.064178466796875;5.80999998533116;582;100 mA
28.7927239273054;-0.79925537109375;-0.06414794921875;5.81999998530591;583;100 mA
28.8027239272801;-0.7989501953125;-0.0643310546875;5.82999998528066;584;100 mA
28.8127239272549;-0.79925537109375;-0.06378173828125;5.83999998525542;585;100 mA
28.8227239272296;-0.79925537109375;-0.064056396484375;5.84999998523017;586;100 mA
28.8327239272044;-0.7989501953125;-0.0643310546875;5.85999998520492;587;100 mA
28.8427239271791;-0.79925537109375;-0.06390380859375;5.86999998517967;588;100 mA
28.8527239271539;-0.79925537109375;-0.06414794921875;5.87999998515443;589;100 mA
28.8627239271286;-0.79925537109375;-0.064453125;5.88999998512918;590;100 mA
28.8727239271034;-0.79925537109375;-0.06402587890625;5.89999998510393;591;100 mA
28.8827239270781;-0.799560546875;-0.064208984375;5.90999998507868;592;100 mA
28.8927239270529;-0.79925537109375;-0.064453125;5.91999998505344;593;100 mA
28.9027239270276;-0.7989501953125;-0.06390380859375;5.92999998502819;594;100 mA
28.9127239270024;-0.79864501953125;-0.0643310546875;5.93999998500294;595;100 mA
28.9227239269771;-0.79864501953125;-0.064666748046875;5.94999998497769;596;100 mA
28.9327239269519;-0.79864501953125;-0.0643310546875;5.95999998495245;597;100 mA
28.9427239269266;-0.79925537109375;-0.064422607421875;5.9699999849272;598;100 mA
28.9527239269014;-0.79925537109375;-0.064697265625;5.97999998490195;599;100 mA
28.9627239268762;-0.799560546875;-0.064056396484375;5.9899999848767;600;100 mA
28.9727239268509;-0.79925537109375;-0.06427001953125;5.99999998485146;601;100 mA
28.9827239268257;-0.7989501953125;-0.064453125;6.00999998482621;602;100 mA
28.9927239268004;-0.7989501953125;-0.0638427734375;6.01999998480096;603;100 mA
29.0027239267752;-0.7989501953125;-0.064117431640625;6.02999998477571;604;100 mA
29.0127239267499;-0.799560546875;-0.06427001953125;6.03999998475047;605;100 mA
29.0227239267247;-0.7989501953125;-0.0638427734375;6.04999998472522;606;100 mA
29.0327239266994;-0.7989501953125;-0.0640869140625;6.05999998469997;607;100 mA
29.0427239266742;-0.79925537109375;-0.06439208984375;6.06999998467472;608;100 mA
29.0527239266489;-0.79925537109375;-0.063812255859375;6.07999998464948;609;100 mA
29.0627239266237;-0.79925537109375;-0.06427001953125;6.08999998462423;610;100 mA
29.0727239265984;-0.799560546875;-0.064483642578125;6.09999998459898;611;100 mA
29.0827239265732;-0.79925537109375;-0.06402587890625;6.10999998457373;612;100 mA
29.0927239265479;-0.79925537109375;-0.0640869140625;6.11999998454849;613;100 mA
29.1027239265227;-0.79986572265625;-0.0643310546875;6.12999998452324;614;100 mA
29.1127239264974;-0.79864501953125;-0.06390380859375;6.13999998449799;615;100 mA
29.1227239264722;-0.79925537109375;-0.0643310546875;6.14999998447274;616;100 mA
29.1327239264469;-0.7989501953125;-0.064849853515625;6.1599999844475;617;100 mA
29.1427239264217;-0.799560546875;-0.064361572265625;6.16999998442225;618;100 mA
29.1527239263964;-0.79925537109375;-0.06475830078125;6.179999984397;619;100 mA
29.1627239263712;-0.7989501953125;-0.06500244140625;6.18999998437175;620;100 mA
29.172723926346;-0.79925537109375;-0.064666748046875;6.1999999843465;621;100 mA
29.1827239263207;-0.79925537109375;-0.064849853515625;6.20999998432126;622;100 mA
29.1927239262955;-0.79925537109375;-0.065093994140625;6.21999998429601;623;100 mA
29.2027239262702;-0.7989501953125;-0.064453125;6.22999998427076;624;100 mA
29.212723926245;-0.79925537109375;-0.064697265625;6.23999998424551;625;100 mA
29.2227239262197;-0.799560546875;-0.064910888671875;6.24999998422027;626;100 mA
29.2327239261945;-0.799560546875;-0.064422607421875;6.25999998419502;627;100 mA
29.2427239261692;-0.7989501953125;-0.06451416015625;6.26999998416977;628;100 mA
29.252723926144;-0.7989501953125;-0.064727783203125;6.27999998414452;629;100 mA
29.2627239261187;-0.79925537109375;-0.06427001953125;6.28999998411928;630;100 mA
29.2727239260935;-0.79925537109375;-0.064544677734375;6.29999998409403;631;100 mA
29.2827239260682;-0.79925537109375;-0.064910888671875;6.30999998406878;632;100 mA
29.292723926043;-0.799560546875;-0.06439208984375;6.31999998404353;633;100 mA
29.3027239260177;-0.7989501953125;-0.06488037109375;6.32999998401829;634;100 mA
29.3127239259925;-0.79925537109375;-0.06512451171875;6.33999998399304;635;100 mA
29.3227239259672;-0.79925537109375;-0.064788818359375;6.34999998396779;636;100 mA
29.332723925942;-0.7989501953125;-0.06494140625;6.35999998394254;637;100 mA
29.3427239259167;-0.7989501953125;-0.0653076171875;6.3699999839173;638;100 mA
29.3527239258915;-0.79925537109375;-0.06488037109375;6.37999998389205;639;100 mA
29.3627239258662;-0.79925537109375;-0.06524658203125;6.3899999838668;640;100 mA
29.372723925841;-0.79925537109375;-0.065643310546875;6.39999998384155;641;100 mA
29.3827239258158;-0.7989501953125;-0.065338134765625;6.40999998381631;642;100 mA
29.3927239257905;-0.7989501953125;-0.065704345703125;6.41999998379106;643;100 mA
29.4027239257653;-0.799560546875;-0.06610107421875;6.42999998376581;644;100 mA
29.41272392574;-0.79925537109375;-0.065887451171875;6.43999998374056;645;100 mA
29.4227239257148;-0.79925537109375;-0.0662841796875;6.44999998371532;646;100 mA
29.4327239256895;-0.7989501953125;-0.066864013671875;6.45999998369007;647;100 mA
29.4427239256643;-0.7989501953125;-0.06646728515625;6.46999998366482;648;100 mA
29.452723925639;-0.79864501953125;-0.06695556640625;6.47999998363957;649;100 mA
29.4627239256138;-0.79925537109375;-0.067291259765625;6.48999998361433;650;100 mA
29.4727239255885;-0.79833984375;-0.06695556640625;6.49999998358908;651;100 mA
29.4827239255633;-0.7989501953125;-0.067108154296875;6.50999998356383;652;100 mA
29.492723925538;-0.79925537109375;-0.0673828125;6.51999998353858;653;100 mA
29.5027239255128;-0.7989501953125;-0.066925048828125;6.52999998351333;654;100 mA
29.5127239254875;-0.7989501953125;-0.06707763671875;6.53999998348809;655;100 mA
29.5227239254623;-0.79925537109375;-0.06719970703125;6.54999998346284;656;100 mA
29.532723925437;-0.7989501953125;-0.066497802734375;6.55999998343759;657;100 mA
29.5427239254118;-0.79925537109375;-0.066741943359375;6.56999998341234;658;100 mA
29.5527239253865;-0.79925537109375;-0.066864013671875;6.5799999833871;659;100 mA
29.5627239253613;-0.7989501953125;-0.06640625;6.58999998336185;660;100 mA
29.572723925336;-0.799560546875;-0.066497802734375;6.5999999833366;661;100 mA
29.5827239253108;-0.79986572265625;-0.066802978515625;6.60999998331135;662;100 mA
29.5927239252856;-0.79864501953125;-0.066162109375;6.61999998328611;663;100 mA
29.6027239252603;-0.79925537109375;-0.066375732421875;6.62999998326086;664;100 mA
29.6127239252351;-0.799560546875;-0.066436767578125;6.63999998323561;665;100 mA
29.6227239252098;-0.7989501953125;-0.06573486328125;6.64999998321036;666;100 mA
29.6327239251846;-0.79986572265625;-0.065704345703125;6.65999998318512;667;100 mA
29.6427239251593;-0.799560546875;-0.065765380859375;6.66999998315987;668;100 mA
29.6527239251341;-0.799560546875;-0.065185546875;6.67999998313462;669;100 mA
29.6627239251088;-0.799560546875;-0.065277099609375;6.68999998310937;670;100 mA
29.6727239250836;-0.79925537109375;-0.065521240234375;6.69999998308413;671;100 mA
29.6827239250583;-0.799560546875;-0.06494140625;6.70999998305888;672;100 mA
29.6927239250331;-0.79925537109375;-0.0654296875;6.71999998303363;673;100 mA
29.7027239250078;-0.7989501953125;-0.06573486328125;6.72999998300838;674;100 mA
29.7127239249826;-0.799560546875;-0.065399169921875;6.73999998298314;675;100 mA
29.7227239249573;-0.7989501953125;-0.065582275390625;6.74999998295789;676;100 mA
29.7327239249321;-0.7989501953125;-0.06591796875;6.75999998293264;677;100 mA
29.7427239249068;-0.79925537109375;-0.065460205078125;6.76999998290739;678;100 mA
29.7527239248816;-0.799560546875;-0.065765380859375;6.77999998288215;679;100 mA
29.7627239248563;-0.799560546875;-0.06610107421875;6.7899999828569;680;100 mA
29.7727239248311;-0.79925537109375;-0.0655517578125;6.79999998283165;681;100 mA
29.7827239248059;-0.79986572265625;-0.065887451171875;6.8099999828064;682;100 mA
29.7927239247806;-0.79925537109375;-0.06610107421875;6.81999998278116;683;100 mA
29.8027239247554;-0.79925537109375;-0.065826416015625;6.82999998275591;684;100 mA
29.8127239247301;-0.7989501953125;-0.066070556640625;6.83999998273066;685;100 mA
29.8227239247049;-0.79925537109375;-0.066375732421875;6.84999998270541;686;100 mA
29.8327239246796;-0.7989501953125;-0.06573486328125;6.85999998268016;687;100 mA
29.8427239246544;-0.79925537109375;-0.066070556640625;6.86999998265492;688;100 mA
29.8527239246291;-0.79925537109375;-0.066314697265625;6.87999998262967;689;100 mA
29.8627239246039;-0.7989501953125;-0.065887451171875;6.88999998260442;690;100 mA
29.8727239245786;-0.79986572265625;-0.065948486328125;6.89999998257917;691;100 mA
29.8827239245534;-0.799560546875;-0.066131591796875;6.90999998255393;692;100 mA
29.8927239245281;-0.7989501953125;-0.065643310546875;6.91999998252868;693;100 mA
29.9027239245029;-0.79986572265625;-0.06591796875;6.92999998250343;694;100 mA
29.9127239244776;-0.799560546875;-0.0662841796875;6.93999998247818;695;100 mA
29.9227239244524;-0.79925537109375;-0.0657958984375;6.94999998245294;696;100 mA
29.9327239244271;-0.7989501953125;-0.066253662109375;6.95999998242769;697;100 mA
29.9427239244019;-0.799560546875;-0.066314697265625;6.96999998240244;698;100 mA
29.9527239243766;-0.7989501953125;-0.06585693359375;6.97999998237719;699;100 mA
29.9627239243514;-0.7989501953125;-0.0660400390625;6.98999998235195;700;100 mA
