Time (s);WE(1).Potential (V);WE(1).Current (A);Corrected time (s);Index;Current range
45.6093828848474;-0.90087890625;-0.356689453125;0;1;100 mA
45.6193828848221;-0.89935302734375;-0.254180908203125;0.00999999997475243;2;100 mA
45.6293828847969;-0.89996337890625;-0.207611083984375;0.0199999999495049;3;100 mA
45.6393828847716;-0.89935302734375;-0.180816650390625;0.0299999999242573;4;100 mA
45.6493828847464;-0.89935302734375;-0.160675048828125;0.0399999998990097;5;100 mA
45.6593828847211;-0.89935302734375;-0.14642333984375;0.0499999998737621;6;100 mA
45.6693828846959;-0.89935302734375;-0.136444091796875;0.0599999998485146;7;100 mA
45.6793828846706;-0.89935302734375;-0.127288818359375;0.069999999823267;8;100 mA
45.6893828846454;-0.89935302734375;-0.119964599609375;0.0799999997980194;9;100 mA
45.6993828846201;-0.8990478515625;-0.114959716796875;0.0899999997727718;10;100 mA
45.7093828845949;-0.899658203125;-0.10943603515625;0.0999999997475243;11;100 mA
45.7193828845697;-0.899658203125;-0.10504150390625;0.109999999722277;12;100 mA
45.7293828845444;-0.89874267578125;-0.102020263671875;0.119999999697029;13;100 mA
45.7393828845192;-0.89874267578125;-0.098358154296875;0.129999999671782;14;100 mA
45.7493828844939;-0.8990478515625;-0.09521484375;0.139999999646534;15;100 mA
45.7593828844687;-0.899658203125;-0.093292236328125;0.149999999621286;16;100 mA
45.7693828844434;-0.89935302734375;-0.09051513671875;0.159999999596039;17;100 mA
45.7793828844182;-0.89935302734375;-0.088348388671875;0.169999999570791;18;100 mA
45.7893828843929;-0.8990478515625;-0.087127685546875;0.179999999545544;19;100 mA
45.7993828843677;-0.899658203125;-0.084808349609375;0.189999999520296;20;100 mA
45.8093828843424;-0.8984375;-0.083221435546875;0.199999999495049;21;100 mA
45.8193828843172;-0.899658203125;-0.082366943359375;0.209999999469801;22;100 mA
45.8293828842919;-0.89935302734375;-0.08062744140625;0.219999999444553;23;100 mA
45.8393828842667;-0.899658203125;-0.0792236328125;0.229999999419306;24;100 mA
45.8493828842414;-0.89935302734375;-0.07891845703125;0.239999999394058;25;100 mA
45.8593828842162;-0.89935302734375;-0.07745361328125;0.249999999368811;26;100 mA
45.8693828841909;-0.8990478515625;-0.07659912109375;0.259999999343563;27;100 mA
45.8793828841657;-0.899658203125;-0.076385498046875;0.269999999318316;28;100 mA
45.8893828841404;-0.89935302734375;-0.075164794921875;0.279999999293068;29;100 mA
45.8993828841152;-0.89935302734375;-0.074249267578125;0.28999999926782;30;100 mA
45.90938288409;-0.899658203125;-0.074188232421875;0.299999999242573;31;100 mA
45.9193828840647;-0.89935302734375;-0.072998046875;0.309999999217325;32;100 mA
45.9293828840395;-0.899658203125;-0.072265625;0.319999999192078;33;100 mA
45.9393828840142;-0.89935302734375;-0.07232666015625;0.32999999916683;34;100 mA
45.949382883989;-0.89935302734375;-0.071197509765625;0.339999999141583;35;100 mA
45.9593828839637;-0.8990478515625;-0.070648193359375;0.349999999116335;36;100 mA
45.9693828839385;-0.8990478515625;-0.070892333984375;0.359999999091087;37;100 mA
45.9793828839132;-0.8990478515625;-0.070068359375;0.36999999906584;38;100 mA
45.989382883888;-0.89935302734375;-0.0694580078125;0.379999999040592;39;100 mA
45.9993828838627;-0.899658203125;-0.0699462890625;0.389999999015345;40;100 mA
46.0093828838375;-0.8990478515625;-0.069122314453125;0.399999998990097;41;100 mA
46.0193828838122;-0.89935302734375;-0.068572998046875;0.40999999896485;42;100 mA
46.029382883787;-0.89935302734375;-0.068878173828125;0.419999998939602;43;100 mA
46.0393828837617;-0.89935302734375;-0.067962646484375;0.429999998914354;44;100 mA
46.0493828837365;-0.899658203125;-0.0675048828125;0.439999998889107;45;100 mA
46.0593828837112;-0.8990478515625;-0.06793212890625;0.449999998863859;46;100 mA
46.069382883686;-0.8990478515625;-0.06732177734375;0.459999998838612;47;100 mA
46.0793828836607;-0.8990478515625;-0.06695556640625;0.469999998813364;48;100 mA
46.0893828836355;-0.89935302734375;-0.06756591796875;0.479999998788116;49;100 mA
46.0993828836102;-0.8990478515625;-0.0667724609375;0.489999998762869;50;100 mA
46.109382883585;-0.899658203125;-0.066497802734375;0.499999998737621;51;100 mA
46.1193828835598;-0.89935302734375;-0.0670166015625;0.509999998712374;52;100 mA
46.1293828835345;-0.89935302734375;-0.06646728515625;0.519999998687126;53;100 mA
46.1393828835093;-0.89874267578125;-0.066009521484375;0.529999998661879;54;100 mA
46.149382883484;-0.899658203125;-0.06658935546875;0.539999998636631;55;100 mA
46.1593828834588;-0.89935302734375;-0.065887451171875;0.549999998611383;56;100 mA
46.1693828834335;-0.899658203125;-0.065338134765625;0.559999998586136;57;100 mA
46.1793828834083;-0.8990478515625;-0.065673828125;0.569999998560888;58;100 mA
46.189382883383;-0.8990478515625;-0.06488037109375;0.579999998535641;59;100 mA
46.1993828833578;-0.8990478515625;-0.064605712890625;0.589999998510393;60;100 mA
46.2093828833325;-0.8990478515625;-0.06524658203125;0.599999998485146;61;100 mA
46.2193828833073;-0.89996337890625;-0.064849853515625;0.609999998459898;62;100 mA
46.229382883282;-0.89996337890625;-0.0645751953125;0.61999999843465;63;100 mA
46.2393828832568;-0.89935302734375;-0.06536865234375;0.629999998409403;64;100 mA
46.2493828832315;-0.8990478515625;-0.064910888671875;0.639999998384155;65;100 mA
46.2593828832063;-0.89874267578125;-0.06488037109375;0.649999998358908;66;100 mA
46.269382883181;-0.899658203125;-0.065582275390625;0.65999999833366;67;100 mA
46.2793828831558;-0.9002685546875;-0.065338134765625;0.669999998308413;68;100 mA
46.2893828831305;-0.89935302734375;-0.065338134765625;0.679999998283165;69;100 mA
46.2993828831053;-0.89935302734375;-0.06610107421875;0.689999998257917;70;100 mA
46.30938288308;-0.89996337890625;-0.0657958984375;0.69999999823267;71;100 mA
46.3193828830548;-0.89935302734375;-0.06573486328125;0.709999998207422;72;100 mA
46.3293828830296;-0.89996337890625;-0.0665283203125;0.719999998182175;73;100 mA
46.3393828830043;-0.8990478515625;-0.065948486328125;0.729999998156927;74;100 mA
46.3493828829791;-0.89874267578125;-0.065765380859375;0.73999999813168;75;100 mA
46.3593828829538;-0.89996337890625;-0.066131591796875;0.749999998106432;76;100 mA
46.3693828829286;-0.899658203125;-0.065582275390625;0.759999998081184;77;100 mA
46.3793828829033;-0.89935302734375;-0.06512451171875;0.769999998055937;78;100 mA
46.3893828828781;-0.8990478515625;-0.065582275390625;0.779999998030689;79;100 mA
46.3993828828528;-0.899658203125;-0.064971923828125;0.789999998005442;80;100 mA
46.4093828828276;-0.89935302734375;-0.06475830078125;0.799999997980194;81;100 mA
46.4193828828023;-0.89996337890625;-0.0653076171875;0.809999997954947;82;100 mA
46.4293828827771;-0.899658203125;-0.064788818359375;0.819999997929699;83;100 mA
46.4393828827518;-0.899658203125;-0.0645751953125;0.829999997904451;84;100 mA
46.4493828827266;-0.89996337890625;-0.065216064453125;0.839999997879204;85;100 mA
46.4593828827013;-0.89935302734375;-0.064788818359375;0.849999997853956;86;100 mA
46.4693828826761;-0.899658203125;-0.064544677734375;0.859999997828709;87;100 mA
46.4793828826508;-0.89935302734375;-0.065185546875;0.869999997803461;88;100 mA
46.4893828826256;-0.89996337890625;-0.06451416015625;0.879999997778214;89;100 mA
46.4993828826003;-0.8990478515625;-0.064361572265625;0.889999997752966;90;100 mA
46.5093828825751;-0.89935302734375;-0.06494140625;0.899999997727718;91;100 mA
46.5193828825498;-0.89996337890625;-0.064483642578125;0.909999997702471;92;100 mA
46.5293828825246;-0.8990478515625;-0.064208984375;0.919999997677223;93;100 mA
46.5393828824994;-0.8990478515625;-0.064697265625;0.929999997651976;94;100 mA
46.5493828824741;-0.899658203125;-0.063995361328125;0.939999997626728;95;100 mA
46.5593828824489;-0.899658203125;-0.063629150390625;0.949999997601481;96;100 mA
46.5693828824236;-0.89935302734375;-0.064117431640625;0.959999997576233;97;100 mA
46.5793828823984;-0.899658203125;-0.0634765625;0.969999997550985;98;100 mA
46.5893828823731;-0.89996337890625;-0.063262939453125;0.979999997525738;99;100 mA
46.5993828823479;-0.89935302734375;-0.06378173828125;0.98999999750049;100;100 mA
46.6093828823226;-0.899658203125;-0.063262939453125;0.999999997475243;101;100 mA
46.6193828822974;-0.899658203125;-0.06280517578125;1.00999999745;102;100 mA
46.6293828822721;-0.8990478515625;-0.063385009765625;1.01999999742475;103;100 mA
46.6393828822469;-0.89935302734375;-0.06268310546875;1.0299999973995;104;100 mA
46.6493828822216;-0.89935302734375;-0.062530517578125;1.03999999737425;105;100 mA
46.6593828821964;-0.89935302734375;-0.063140869140625;1.049999997349;106;100 mA
46.6693828821711;-0.899658203125;-0.0626220703125;1.05999999732376;107;100 mA
46.6793828821459;-0.89935302734375;-0.06231689453125;1.06999999729851;108;100 mA
46.6893828821206;-0.89874267578125;-0.06298828125;1.07999999727326;109;100 mA
46.6993828820954;-0.8990478515625;-0.062530517578125;1.08999999724801;110;100 mA
46.7093828820701;-0.89935302734375;-0.062286376953125;1.09999999722277;111;100 mA
46.7193828820449;-0.899658203125;-0.06304931640625;1.10999999719752;112;100 mA
46.7293828820196;-0.89996337890625;-0.062469482421875;1.11999999717227;113;100 mA
46.7393828819944;-0.8990478515625;-0.062255859375;1.12999999714702;114;100 mA
46.7493828819692;-0.89996337890625;-0.062774658203125;1.13999999712178;115;100 mA
46.7593828819439;-0.899658203125;-0.062408447265625;1.14999999709653;116;100 mA
46.7693828819187;-0.89935302734375;-0.062103271484375;1.15999999707128;117;100 mA
46.7793828818934;-0.89935302734375;-0.062835693359375;1.16999999704603;118;100 mA
46.7893828818682;-0.899658203125;-0.062286376953125;1.17999999702079;119;100 mA
46.7993828818429;-0.8990478515625;-0.0621337890625;1.18999999699554;120;100 mA
46.8093828818177;-0.899658203125;-0.062774658203125;1.19999999697029;121;100 mA
46.8193828817924;-0.899658203125;-0.06231689453125;1.20999999694504;122;100 mA
46.8293828817672;-0.8990478515625;-0.06219482421875;1.2199999969198;123;100 mA
46.8393828817419;-0.89874267578125;-0.062896728515625;1.22999999689455;124;100 mA
46.8493828817167;-0.89935302734375;-0.062530517578125;1.2399999968693;125;100 mA
46.8593828816914;-0.89996337890625;-0.062347412109375;1.24999999684405;126;100 mA
46.8693828816662;-0.89935302734375;-0.0631103515625;1.25999999681881;127;100 mA
46.8793828816409;-0.89996337890625;-0.062652587890625;1.26999999679356;128;100 mA
46.8893828816157;-0.899658203125;-0.0626220703125;1.27999999676831;129;100 mA
46.8993828815904;-0.8990478515625;-0.063201904296875;1.28999999674306;130;100 mA
46.9093828815652;-0.8990478515625;-0.06280517578125;1.29999999671782;131;100 mA
46.9193828815399;-0.899658203125;-0.06256103515625;1.30999999669257;132;100 mA
46.9293828815147;-0.8990478515625;-0.063232421875;1.31999999666732;133;100 mA
46.9393828814895;-0.8990478515625;-0.062744140625;1.32999999664207;134;100 mA
46.9493828814642;-0.89935302734375;-0.06268310546875;1.33999999661683;135;100 mA
46.959382881439;-0.89935302734375;-0.06353759765625;1.34999999659158;136;100 mA
46.9693828814137;-0.89935302734375;-0.063018798828125;1.35999999656633;137;100 mA
46.9793828813885;-0.899658203125;-0.06292724609375;1.36999999654108;138;100 mA
46.9893828813632;-0.899658203125;-0.06353759765625;1.37999999651583;139;100 mA
46.999382881338;-0.899658203125;-0.063201904296875;1.38999999649059;140;100 mA
47.0093828813127;-0.89935302734375;-0.0628662109375;1.39999999646534;141;100 mA
47.0193828812875;-0.8990478515625;-0.063507080078125;1.40999999644009;142;100 mA
47.0293828812622;-0.89935302734375;-0.06292724609375;1.41999999641484;143;100 mA
47.039382881237;-0.899658203125;-0.062774658203125;1.4299999963896;144;100 mA
47.0493828812117;-0.8990478515625;-0.063323974609375;1.43999999636435;145;100 mA
47.0593828811865;-0.89935302734375;-0.06280517578125;1.4499999963391;146;100 mA
47.0693828811612;-0.89935302734375;-0.062530517578125;1.45999999631385;147;100 mA
47.079382881136;-0.89935302734375;-0.063232421875;1.46999999628861;148;100 mA
47.0893828811107;-0.899658203125;-0.062774658203125;1.47999999626336;149;100 mA
47.0993828810855;-0.89935302734375;-0.062530517578125;1.48999999623811;150;100 mA
47.1093828810602;-0.89935302734375;-0.063140869140625;1.49999999621286;151;100 mA
47.119382881035;-0.899658203125;-0.062530517578125;1.50999999618762;152;100 mA
47.1293828810097;-0.89935302734375;-0.062530517578125;1.51999999616237;153;100 mA
47.1393828809845;-0.8990478515625;-0.06329345703125;1.52999999613712;154;100 mA
47.1493828809593;-0.899658203125;-0.0631103515625;1.53999999611187;155;100 mA
47.159382880934;-0.899658203125;-0.062957763671875;1.54999999608663;156;100 mA
47.1693828809088;-0.8990478515625;-0.063690185546875;1.55999999606138;157;100 mA
47.1793828808835;-0.89996337890625;-0.063323974609375;1.56999999603613;158;100 mA
47.1893828808583;-0.8990478515625;-0.063232421875;1.57999999601088;159;100 mA
47.199382880833;-0.899658203125;-0.063873291015625;1.58999999598564;160;100 mA
47.2093828808078;-0.899658203125;-0.06341552734375;1.59999999596039;161;100 mA
47.2193828807825;-0.89935302734375;-0.063232421875;1.60999999593514;162;100 mA
47.2293828807573;-0.89935302734375;-0.06378173828125;1.61999999590989;163;100 mA
47.239382880732;-0.89935302734375;-0.06329345703125;1.62999999588465;164;100 mA
47.2493828807068;-0.8990478515625;-0.0628662109375;1.6399999958594;165;100 mA
47.2593828806815;-0.8990478515625;-0.063446044921875;1.64999999583415;166;100 mA
47.2693828806563;-0.89935302734375;-0.06280517578125;1.6599999958089;167;100 mA
47.279382880631;-0.89935302734375;-0.06256103515625;1.66999999578366;168;100 mA
47.2893828806058;-0.89874267578125;-0.06298828125;1.67999999575841;169;100 mA
47.2993828805805;-0.899658203125;-0.06256103515625;1.68999999573316;170;100 mA
47.3093828805553;-0.8990478515625;-0.062225341796875;1.69999999570791;171;100 mA
47.31938288053;-0.89996337890625;-0.062896728515625;1.70999999568267;172;100 mA
47.3293828805048;-0.8990478515625;-0.06256103515625;1.71999999565742;173;100 mA
47.3393828804795;-0.8990478515625;-0.0625;1.72999999563217;174;100 mA
47.3493828804543;-0.899658203125;-0.06317138671875;1.73999999560692;175;100 mA
47.3593828804291;-0.89935302734375;-0.06268310546875;1.74999999558167;176;100 mA
47.3693828804038;-0.89935302734375;-0.062469482421875;1.75999999555643;177;100 mA
47.3793828803786;-0.89935302734375;-0.06304931640625;1.76999999553118;178;100 mA
47.3893828803533;-0.8990478515625;-0.062713623046875;1.77999999550593;179;100 mA
47.3993828803281;-0.89935302734375;-0.062347412109375;1.78999999548068;180;100 mA
47.4093828803028;-0.899658203125;-0.063018798828125;1.79999999545544;181;100 mA
47.4193828802776;-0.8990478515625;-0.0625;1.80999999543019;182;100 mA
47.4293828802523;-0.89996337890625;-0.06231689453125;1.81999999540494;183;100 mA
47.4393828802271;-0.8990478515625;-0.062896728515625;1.82999999537969;184;100 mA
47.4493828802018;-0.8990478515625;-0.062469482421875;1.83999999535445;185;100 mA
47.4593828801766;-0.89935302734375;-0.062164306640625;1.8499999953292;186;100 mA
47.4693828801513;-0.89935302734375;-0.062713623046875;1.85999999530395;187;100 mA
47.4793828801261;-0.89935302734375;-0.06231689453125;1.8699999952787;188;100 mA
47.4893828801008;-0.89996337890625;-0.06207275390625;1.87999999525346;189;100 mA
47.4993828800756;-0.89935302734375;-0.062713623046875;1.88999999522821;190;100 mA
47.5093828800503;-0.89935302734375;-0.0621337890625;1.89999999520296;191;100 mA
47.5193828800251;-0.899658203125;-0.061920166015625;1.90999999517771;192;100 mA
47.5293828799998;-0.8990478515625;-0.062469482421875;1.91999999515247;193;100 mA
47.5393828799746;-0.89935302734375;-0.062042236328125;1.92999999512722;194;100 mA
47.5493828799493;-0.89935302734375;-0.061737060546875;1.93999999510197;195;100 mA
47.5593828799241;-0.8990478515625;-0.0625;1.94999999507672;196;100 mA
47.5693828798989;-0.89874267578125;-0.062164306640625;1.95999999505148;197;100 mA
47.5793828798736;-0.89996337890625;-0.062164306640625;1.96999999502623;198;100 mA
47.5893828798484;-0.89935302734375;-0.062896728515625;1.97999999500098;199;100 mA
47.5993828798231;-0.89935302734375;-0.062591552734375;1.98999999497573;200;100 mA
47.6093828797979;-0.899658203125;-0.0625;1.99999999495049;201;100 mA
47.6193828797726;-0.899658203125;-0.0633544921875;2.00999999492524;202;100 mA
47.6293828797474;-0.899658203125;-0.063262939453125;2.01999999489999;203;100 mA
47.6393828797221;-0.899658203125;-0.06317138671875;2.02999999487474;204;100 mA
47.6493828796969;-0.89935302734375;-0.063995361328125;2.0399999948495;205;100 mA
47.6593828796716;-0.899658203125;-0.06353759765625;2.04999999482425;206;100 mA
47.6693828796464;-0.89935302734375;-0.063385009765625;2.059999994799;207;100 mA
47.6793828796211;-0.8990478515625;-0.063873291015625;2.06999999477375;208;100 mA
47.6893828795959;-0.899658203125;-0.0634765625;2.0799999947485;209;100 mA
47.6993828795706;-0.89935302734375;-0.06304931640625;2.08999999472326;210;100 mA
47.7093828795454;-0.899658203125;-0.0635986328125;2.09999999469801;211;100 mA
47.7193828795201;-0.899658203125;-0.0631103515625;2.10999999467276;212;100 mA
47.7293828794949;-0.899658203125;-0.06292724609375;2.11999999464751;213;100 mA
47.7393828794696;-0.8990478515625;-0.0634765625;2.12999999462227;214;100 mA
47.7493828794444;-0.8990478515625;-0.062957763671875;2.13999999459702;215;100 mA
47.7593828794191;-0.89935302734375;-0.062652587890625;2.14999999457177;216;100 mA
47.7693828793939;-0.899658203125;-0.063201904296875;2.15999999454652;217;100 mA
47.7793828793687;-0.89996337890625;-0.062957763671875;2.16999999452128;218;100 mA
47.7893828793434;-0.8990478515625;-0.062713623046875;2.17999999449603;219;100 mA
47.7993828793182;-0.89935302734375;-0.06353759765625;2.18999999447078;220;100 mA
47.8093828792929;-0.8990478515625;-0.063201904296875;2.19999999444553;221;100 mA
47.8193828792677;-0.89935302734375;-0.063201904296875;2.20999999442029;222;100 mA
47.8293828792424;-0.89935302734375;-0.063873291015625;2.21999999439504;223;100 mA
47.8393828792172;-0.8984375;-0.063507080078125;2.22999999436979;224;100 mA
47.8493828791919;-0.89874267578125;-0.063201904296875;2.23999999434454;225;100 mA
47.8593828791667;-0.89935302734375;-0.063812255859375;2.2499999943193;226;100 mA
47.8693828791414;-0.8990478515625;-0.06329345703125;2.25999999429405;227;100 mA
47.8793828791162;-0.89935302734375;-0.062957763671875;2.2699999942688;228;100 mA
47.8893828790909;-0.8990478515625;-0.06341552734375;2.27999999424355;229;100 mA
47.8993828790657;-0.899658203125;-0.06268310546875;2.28999999421831;230;100 mA
47.9093828790404;-0.899658203125;-0.06231689453125;2.29999999419306;231;100 mA
47.9193828790152;-0.89935302734375;-0.06268310546875;2.30999999416781;232;100 mA
47.9293828789899;-0.89935302734375;-0.062164306640625;2.31999999414256;233;100 mA
47.9393828789647;-0.899658203125;-0.0616455078125;2.32999999411732;234;100 mA
47.9493828789394;-0.899658203125;-0.062255859375;2.33999999409207;235;100 mA
47.9593828789142;-0.89935302734375;-0.06170654296875;2.34999999406682;236;100 mA
47.969382878889;-0.8990478515625;-0.06158447265625;2.35999999404157;237;100 mA
47.9793828788637;-0.89935302734375;-0.0623779296875;2.36999999401633;238;100 mA
47.9893828788385;-0.899658203125;-0.06201171875;2.37999999399108;239;100 mA
47.9993828788132;-0.89935302734375;-0.06182861328125;2.38999999396583;240;100 mA
48.009382878788;-0.8990478515625;-0.062652587890625;2.39999999394058;241;100 mA
48.0193828787627;-0.89935302734375;-0.0623779296875;2.40999999391533;242;100 mA
48.0293828787375;-0.89935302734375;-0.062255859375;2.41999999389009;243;100 mA
48.0393828787122;-0.89935302734375;-0.0631103515625;2.42999999386484;244;100 mA
48.049382878687;-0.89996337890625;-0.0626220703125;2.43999999383959;245;100 mA
48.0593828786617;-0.899658203125;-0.062469482421875;2.44999999381434;246;100 mA
48.0693828786365;-0.89935302734375;-0.063079833984375;2.4599999937891;247;100 mA
48.0793828786112;-0.89935302734375;-0.062835693359375;2.46999999376385;248;100 mA
48.089382878586;-0.89935302734375;-0.06256103515625;2.4799999937386;249;100 mA
48.0993828785607;-0.899658203125;-0.063385009765625;2.48999999371335;250;100 mA
48.1093828785355;-0.89996337890625;-0.063018798828125;2.49999999368811;251;100 mA
48.1193828785102;-0.8990478515625;-0.062835693359375;2.50999999366286;252;100 mA
48.129382878485;-0.89935302734375;-0.0634765625;2.51999999363761;253;100 mA
48.1393828784597;-0.89996337890625;-0.062957763671875;2.52999999361236;254;100 mA
48.1493828784345;-0.89935302734375;-0.062713623046875;2.53999999358712;255;100 mA
48.1593828784092;-0.89935302734375;-0.063385009765625;2.54999999356187;256;100 mA
48.169382878384;-0.89996337890625;-0.06317138671875;2.55999999353662;257;100 mA
48.1793828783588;-0.89935302734375;-0.063018798828125;2.56999999351137;258;100 mA
48.1893828783335;-0.89996337890625;-0.063812255859375;2.57999999348613;259;100 mA
48.1993828783083;-0.89996337890625;-0.063385009765625;2.58999999346088;260;100 mA
48.209382878283;-0.8990478515625;-0.063262939453125;2.59999999343563;261;100 mA
48.2193828782578;-0.89935302734375;-0.063873291015625;2.60999999341038;262;100 mA
48.2293828782325;-0.899658203125;-0.063629150390625;2.61999999338514;263;100 mA
48.2393828782073;-0.8990478515625;-0.06341552734375;2.62999999335989;264;100 mA
48.249382878182;-0.899658203125;-0.06414794921875;2.63999999333464;265;100 mA
48.2593828781568;-0.8990478515625;-0.06378173828125;2.64999999330939;266;100 mA
48.2693828781315;-0.899658203125;-0.0635986328125;2.65999999328415;267;100 mA
48.2793828781063;-0.899658203125;-0.06427001953125;2.6699999932589;268;100 mA
48.289382878081;-0.899658203125;-0.063690185546875;2.67999999323365;269;100 mA
48.2993828780558;-0.8990478515625;-0.0633544921875;2.6899999932084;270;100 mA
48.3093828780305;-0.89935302734375;-0.063751220703125;2.69999999318316;271;100 mA
48.3193828780053;-0.899658203125;-0.0633544921875;2.70999999315791;272;100 mA
48.32938287798;-0.89935302734375;-0.06298828125;2.71999999313266;273;100 mA
48.3393828779548;-0.8990478515625;-0.06353759765625;2.72999999310741;274;100 mA
48.3493828779295;-0.8990478515625;-0.063079833984375;2.73999999308217;275;100 mA
48.3593828779043;-0.8990478515625;-0.062957763671875;2.74999999305692;276;100 mA
48.369382877879;-0.89935302734375;-0.063568115234375;2.75999999303167;277;100 mA
48.3793828778538;-0.89874267578125;-0.063232421875;2.76999999300642;278;100 mA
48.3893828778286;-0.89935302734375;-0.063079833984375;2.77999999298117;279;100 mA
48.3993828778033;-0.89874267578125;-0.06390380859375;2.78999999295593;280;100 mA
48.4093828777781;-0.89996337890625;-0.063629150390625;2.79999999293068;281;100 mA
48.4193828777528;-0.899658203125;-0.0634765625;2.80999999290543;282;100 mA
48.4293828777276;-0.899658203125;-0.064178466796875;2.81999999288018;283;100 mA
48.4393828777023;-0.899658203125;-0.06365966796875;2.82999999285494;284;100 mA
48.4493828776771;-0.89996337890625;-0.063446044921875;2.83999999282969;285;100 mA
48.4593828776518;-0.89996337890625;-0.063934326171875;2.84999999280444;286;100 mA
48.4693828776266;-0.899658203125;-0.063568115234375;2.85999999277919;287;100 mA
48.4793828776013;-0.89996337890625;-0.063201904296875;2.86999999275395;288;100 mA
48.4893828775761;-0.89874267578125;-0.063812255859375;2.8799999927287;289;100 mA
48.4993828775508;-0.89935302734375;-0.063262939453125;2.88999999270345;290;100 mA
48.5093828775256;-0.8990478515625;-0.06298828125;2.8999999926782;291;100 mA
48.5193828775003;-0.8990478515625;-0.063507080078125;2.90999999265296;292;100 mA
48.5293828774751;-0.8990478515625;-0.06292724609375;2.91999999262771;293;100 mA
48.5393828774498;-0.8990478515625;-0.0626220703125;2.92999999260246;294;100 mA
48.5493828774246;-0.8990478515625;-0.063140869140625;2.93999999257721;295;100 mA
48.5593828773993;-0.899658203125;-0.06256103515625;2.94999999255197;296;100 mA
48.5693828773741;-0.8990478515625;-0.06207275390625;2.95999999252672;297;100 mA
48.5793828773488;-0.89935302734375;-0.062713623046875;2.96999999250147;298;100 mA
48.5893828773236;-0.8990478515625;-0.06219482421875;2.97999999247622;299;100 mA
48.5993828772984;-0.89874267578125;-0.06207275390625;2.98999999245098;300;100 mA
48.6093828772731;-0.8990478515625;-0.062744140625;2.99999999242573;301;100 mA
48.6193828772479;-0.89996337890625;-0.062408447265625;3.00999999240048;302;100 mA
48.6293828772226;-0.89935302734375;-0.062103271484375;3.01999999237523;303;100 mA
48.6393828771974;-0.8990478515625;-0.06280517578125;3.02999999234999;304;100 mA
48.6493828771721;-0.9002685546875;-0.06231689453125;3.03999999232474;305;100 mA
48.6593828771469;-0.899658203125;-0.061920166015625;3.04999999229949;306;100 mA
48.6693828771216;-0.899658203125;-0.0625;3.05999999227424;307;100 mA
48.6793828770964;-0.899658203125;-0.061920166015625;3.069999992249;308;100 mA
48.6893828770711;-0.899658203125;-0.0616455078125;3.07999999222375;309;100 mA
48.6993828770459;-0.89935302734375;-0.06231689453125;3.0899999921985;310;100 mA
48.7093828770206;-0.899658203125;-0.06207275390625;3.09999999217325;311;100 mA
48.7193828769954;-0.89935302734375;-0.061767578125;3.109999992148;312;100 mA
48.7293828769701;-0.899658203125;-0.062652587890625;3.11999999212276;313;100 mA
48.7393828769449;-0.89935302734375;-0.062286376953125;3.12999999209751;314;100 mA
48.7493828769196;-0.89935302734375;-0.062286376953125;3.13999999207226;315;100 mA
48.7593828768944;-0.899658203125;-0.063018798828125;3.14999999204701;316;100 mA
48.7693828768691;-0.89935302734375;-0.062591552734375;3.15999999202177;317;100 mA
48.7793828768439;-0.8990478515625;-0.062255859375;3.16999999199652;318;100 mA
48.7893828768186;-0.899658203125;-0.062896728515625;3.17999999197127;319;100 mA
48.7993828767934;-0.899658203125;-0.06243896484375;3.18999999194602;320;100 mA
48.8093828767682;-0.8990478515625;-0.06219482421875;3.19999999192078;321;100 mA
48.8193828767429;-0.89935302734375;-0.062957763671875;3.20999999189553;322;100 mA
48.8293828767177;-0.89935302734375;-0.062469482421875;3.21999999187028;323;100 mA
48.8393828766924;-0.8990478515625;-0.06243896484375;3.22999999184503;324;100 mA
48.8493828766672;-0.89935302734375;-0.063232421875;3.23999999181979;325;100 mA
48.8593828766419;-0.89935302734375;-0.06298828125;3.24999999179454;326;100 mA
48.8693828766167;-0.899658203125;-0.062744140625;3.25999999176929;327;100 mA
48.8793828765914;-0.89935302734375;-0.06353759765625;3.26999999174404;328;100 mA
48.8893828765662;-0.8990478515625;-0.06298828125;3.2799999917188;329;100 mA
48.8993828765409;-0.89935302734375;-0.062835693359375;3.28999999169355;330;100 mA
48.9093828765157;-0.89935302734375;-0.0634765625;3.2999999916683;331;100 mA
48.9193828764904;-0.89874267578125;-0.062896728515625;3.30999999164305;332;100 mA
48.9293828764652;-0.899658203125;-0.062591552734375;3.31999999161781;333;100 mA
48.9393828764399;-0.89874267578125;-0.0631103515625;3.32999999159256;334;100 mA
48.9493828764147;-0.89935302734375;-0.0626220703125;3.33999999156731;335;100 mA
48.9593828763894;-0.89935302734375;-0.062103271484375;3.34999999154206;336;100 mA
48.9693828763642;-0.899658203125;-0.0626220703125;3.35999999151682;337;100 mA
48.9793828763389;-0.8990478515625;-0.0621337890625;3.36999999149157;338;100 mA
48.9893828763137;-0.89935302734375;-0.061981201171875;3.37999999146632;339;100 mA
48.9993828762885;-0.8990478515625;-0.062591552734375;3.38999999144107;340;100 mA
49.0093828762632;-0.8990478515625;-0.06231689453125;3.39999999141583;341;100 mA
49.019382876238;-0.899658203125;-0.06201171875;3.40999999139058;342;100 mA
49.0293828762127;-0.89935302734375;-0.06280517578125;3.41999999136533;343;100 mA
49.0393828761875;-0.89935302734375;-0.0623779296875;3.42999999134008;344;100 mA
49.0493828761622;-0.89996337890625;-0.062225341796875;3.43999999131483;345;100 mA
49.059382876137;-0.8990478515625;-0.06298828125;3.44999999128959;346;100 mA
49.0693828761117;-0.89935302734375;-0.0625;3.45999999126434;347;100 mA
49.0793828760865;-0.899658203125;-0.062347412109375;3.46999999123909;348;100 mA
49.0893828760612;-0.89935302734375;-0.06298828125;3.47999999121384;349;100 mA
49.099382876036;-0.899658203125;-0.062744140625;3.4899999911886;350;100 mA
49.1093828760107;-0.89935302734375;-0.0625;3.49999999116335;351;100 mA
49.1193828759855;-0.899658203125;-0.063262939453125;3.5099999911381;352;100 mA
49.1293828759602;-0.89996337890625;-0.062896728515625;3.51999999111285;353;100 mA
49.139382875935;-0.899658203125;-0.06280517578125;3.52999999108761;354;100 mA
49.1493828759097;-0.89935302734375;-0.063507080078125;3.53999999106236;355;100 mA
49.1593828758845;-0.89996337890625;-0.0631103515625;3.54999999103711;356;100 mA
49.1693828758592;-0.899658203125;-0.062713623046875;3.55999999101186;357;100 mA
49.179382875834;-0.8990478515625;-0.063323974609375;3.56999999098662;358;100 mA
49.1893828758087;-0.89935302734375;-0.062774658203125;3.57999999096137;359;100 mA
49.1993828757835;-0.89935302734375;-0.062469482421875;3.58999999093612;360;100 mA
49.2093828757583;-0.89935302734375;-0.063079833984375;3.59999999091087;361;100 mA
49.219382875733;-0.89935302734375;-0.06243896484375;3.60999999088563;362;100 mA
49.2293828757078;-0.899658203125;-0.062286376953125;3.61999999086038;363;100 mA
49.2393828756825;-0.899658203125;-0.0628662109375;3.62999999083513;364;100 mA
49.2493828756573;-0.899658203125;-0.06256103515625;3.63999999080988;365;100 mA
49.259382875632;-0.899658203125;-0.062255859375;3.64999999078464;366;100 mA
49.2693828756068;-0.89935302734375;-0.063018798828125;3.65999999075939;367;100 mA
49.2793828755815;-0.899658203125;-0.062591552734375;3.66999999073414;368;100 mA
49.2893828755563;-0.89874267578125;-0.062530517578125;3.67999999070889;369;100 mA
49.299382875531;-0.89935302734375;-0.063323974609375;3.68999999068365;370;100 mA
49.3093828755058;-0.89935302734375;-0.062957763671875;3.6999999906584;371;100 mA
49.3193828754805;-0.8990478515625;-0.062835693359375;3.70999999063315;372;100 mA
49.3293828754553;-0.899658203125;-0.063568115234375;3.7199999906079;373;100 mA
49.33938287543;-0.8990478515625;-0.06329345703125;3.72999999058266;374;100 mA
49.3493828754048;-0.89935302734375;-0.0631103515625;3.73999999055741;375;100 mA
49.3593828753795;-0.89935302734375;-0.063934326171875;3.74999999053216;376;100 mA
49.3693828753543;-0.89935302734375;-0.0634765625;3.75999999050691;377;100 mA
49.379382875329;-0.89935302734375;-0.06341552734375;3.76999999048167;378;100 mA
49.3893828753038;-0.8990478515625;-0.063995361328125;3.77999999045642;379;100 mA
49.3993828752785;-0.89874267578125;-0.063720703125;3.78999999043117;380;100 mA
49.4093828752533;-0.8990478515625;-0.063446044921875;3.79999999040592;381;100 mA
49.4193828752281;-0.8990478515625;-0.064178466796875;3.80999999038067;382;100 mA
49.4293828752028;-0.9002685546875;-0.063751220703125;3.81999999035543;383;100 mA
49.4393828751776;-0.89935302734375;-0.06353759765625;3.82999999033018;384;100 mA
49.4493828751523;-0.89935302734375;-0.064239501953125;3.83999999030493;385;100 mA
49.4593828751271;-0.8990478515625;-0.063720703125;3.84999999027968;386;100 mA
49.4693828751018;-0.89935302734375;-0.063568115234375;3.85999999025444;387;100 mA
49.4793828750766;-0.8990478515625;-0.064300537109375;3.86999999022919;388;100 mA
49.4893828750513;-0.89996337890625;-0.064117431640625;3.87999999020394;389;100 mA
49.4993828750261;-0.89935302734375;-0.06396484375;3.88999999017869;390;100 mA
49.5093828750008;-0.89935302734375;-0.064849853515625;3.89999999015345;391;100 mA
49.5193828749756;-0.8990478515625;-0.06451416015625;3.9099999901282;392;100 mA
49.5293828749503;-0.899658203125;-0.064483642578125;3.91999999010295;393;100 mA
49.5393828749251;-0.89935302734375;-0.0650634765625;3.9299999900777;394;100 mA
49.5493828748998;-0.899658203125;-0.064605712890625;3.93999999005246;395;100 mA
49.5593828748746;-0.89935302734375;-0.06427001953125;3.94999999002721;396;100 mA
49.5693828748493;-0.89874267578125;-0.064849853515625;3.95999999000196;397;100 mA
49.5793828748241;-0.899658203125;-0.06439208984375;3.96999998997671;398;100 mA
49.5893828747988;-0.89935302734375;-0.06402587890625;3.97999998995147;399;100 mA
49.5993828747736;-0.89935302734375;-0.0645751953125;3.98999998992622;400;100 mA
49.6093828747483;-0.899658203125;-0.063873291015625;3.99999998990097;401;100 mA
49.6193828747231;-0.899658203125;-0.06353759765625;4.00999998987572;402;100 mA
49.6293828746979;-0.89935302734375;-0.064117431640625;4.01999998985048;403;100 mA
49.6393828746726;-0.89935302734375;-0.063812255859375;4.02999998982523;404;100 mA
49.6493828746474;-0.89996337890625;-0.063446044921875;4.03999998979998;405;100 mA
49.6593828746221;-0.899658203125;-0.064117431640625;4.04999998977473;406;100 mA
49.6693828745969;-0.89935302734375;-0.063690185546875;4.05999998974949;407;100 mA
49.6793828745716;-0.8990478515625;-0.0635986328125;4.06999998972424;408;100 mA
49.6893828745464;-0.89935302734375;-0.064117431640625;4.07999998969899;409;100 mA
49.6993828745211;-0.899658203125;-0.063720703125;4.08999998967374;410;100 mA
49.7093828744959;-0.8990478515625;-0.063720703125;4.0999999896485;411;100 mA
49.7193828744706;-0.89935302734375;-0.064605712890625;4.10999998962325;412;100 mA
49.7293828744454;-0.89935302734375;-0.064361572265625;4.119999989598;413;100 mA
49.7393828744201;-0.899658203125;-0.06414794921875;4.12999998957275;414;100 mA
49.7493828743949;-0.89935302734375;-0.064910888671875;4.1399999895475;415;100 mA
49.7593828743696;-0.899658203125;-0.064361572265625;4.14999998952226;416;100 mA
49.7693828743444;-0.899658203125;-0.064178466796875;4.15999998949701;417;100 mA
49.7793828743191;-0.899658203125;-0.064697265625;4.16999998947176;418;100 mA
49.7893828742939;-0.899658203125;-0.064300537109375;4.17999998944651;419;100 mA
49.7993828742686;-0.899658203125;-0.063812255859375;4.18999998942127;420;100 mA
49.8093828742434;-0.89874267578125;-0.064361572265625;4.19999998939602;421;100 mA
49.8193828742181;-0.89935302734375;-0.063690185546875;4.20999998937077;422;100 mA
49.8293828741929;-0.89935302734375;-0.06341552734375;4.21999998934552;423;100 mA
49.8393828741677;-0.899658203125;-0.064056396484375;4.22999998932028;424;100 mA
49.8493828741424;-0.89935302734375;-0.063446044921875;4.23999998929503;425;100 mA
49.8593828741172;-0.89935302734375;-0.0631103515625;4.24999998926978;426;100 mA
49.8693828740919;-0.89935302734375;-0.063690185546875;4.25999998924453;427;100 mA
49.8793828740667;-0.8990478515625;-0.063262939453125;4.26999998921929;428;100 mA
49.8893828740414;-0.899658203125;-0.062713623046875;4.27999998919404;429;100 mA
49.8993828740162;-0.8990478515625;-0.063385009765625;4.28999998916879;430;100 mA
49.9093828739909;-0.8990478515625;-0.062896728515625;4.29999998914354;431;100 mA
49.9193828739657;-0.89935302734375;-0.062774658203125;4.3099999891183;432;100 mA
49.9293828739404;-0.899658203125;-0.063446044921875;4.31999998909305;433;100 mA
49.9393828739152;-0.89874267578125;-0.063079833984375;4.3299999890678;434;100 mA
49.9493828738899;-0.89874267578125;-0.06280517578125;4.33999998904255;435;100 mA
49.9593828738647;-0.89935302734375;-0.063507080078125;4.34999998901731;436;100 mA
49.9693828738394;-0.89935302734375;-0.063018798828125;4.35999998899206;437;100 mA
49.9793828738142;-0.89996337890625;-0.062835693359375;4.36999998896681;438;100 mA
49.9893828737889;-0.89935302734375;-0.0635986328125;4.37999998894156;439;100 mA
49.9993828737637;-0.899658203125;-0.06292724609375;4.38999998891632;440;100 mA
50.0093828737384;-0.899658203125;-0.062652587890625;4.39999998889107;441;100 mA
50.0193828737132;-0.899658203125;-0.06317138671875;4.40999998886582;442;100 mA
50.029382873688;-0.89935302734375;-0.062835693359375;4.41999998884057;443;100 mA
50.0393828736627;-0.89935302734375;-0.0623779296875;4.42999998881533;444;100 mA
50.0493828736375;-0.89935302734375;-0.063140869140625;4.43999998879008;445;100 mA
50.0593828736122;-0.9002685546875;-0.06268310546875;4.44999998876483;446;100 mA
50.069382873587;-0.8990478515625;-0.0625;4.45999998873958;447;100 mA
50.0793828735617;-0.89935302734375;-0.06304931640625;4.46999998871433;448;100 mA
50.0893828735365;-0.89935302734375;-0.0625;4.47999998868909;449;100 mA
50.0993828735112;-0.89996337890625;-0.062255859375;4.48999998866384;450;100 mA
50.109382873486;-0.899658203125;-0.06304931640625;4.49999998863859;451;100 mA
50.1193828734607;-0.89935302734375;-0.062713623046875;4.50999998861334;452;100 mA
50.1293828734355;-0.899658203125;-0.06243896484375;4.5199999885881;453;100 mA
50.1393828734102;-0.8990478515625;-0.063140869140625;4.52999998856285;454;100 mA
50.149382873385;-0.899658203125;-0.062591552734375;4.5399999885376;455;100 mA
50.1593828733597;-0.89935302734375;-0.0625;4.54999998851235;456;100 mA
50.1693828733345;-0.8990478515625;-0.0631103515625;4.55999998848711;457;100 mA
50.1793828733092;-0.89996337890625;-0.062957763671875;4.56999998846186;458;100 mA
50.189382873284;-0.89935302734375;-0.062774658203125;4.57999998843661;459;100 mA
50.1993828732587;-0.899658203125;-0.063629150390625;4.58999998841136;460;100 mA
50.2093828732335;-0.89935302734375;-0.063385009765625;4.59999998838612;461;100 mA
50.2193828732082;-0.899658203125;-0.0633544921875;4.60999998836087;462;100 mA
50.229382873183;-0.89935302734375;-0.064239501953125;4.61999998833562;463;100 mA
50.2393828731578;-0.89935302734375;-0.06390380859375;4.62999998831037;464;100 mA
50.2493828731325;-0.899658203125;-0.063873291015625;4.63999998828513;465;100 mA
50.2593828731073;-0.89935302734375;-0.064605712890625;4.64999998825988;466;100 mA
50.269382873082;-0.89935302734375;-0.064300537109375;4.65999998823463;467;100 mA
50.2793828730568;-0.899658203125;-0.063934326171875;4.66999998820938;468;100 mA
50.2893828730315;-0.899658203125;-0.064605712890625;4.67999998818414;469;100 mA
50.2993828730063;-0.899658203125;-0.064056396484375;4.68999998815889;470;100 mA
50.309382872981;-0.8990478515625;-0.063873291015625;4.69999998813364;471;100 mA
50.3193828729558;-0.899658203125;-0.064361572265625;4.70999998810839;472;100 mA
50.3293828729305;-0.899658203125;-0.0640869140625;4.71999998808315;473;100 mA
50.3393828729053;-0.899658203125;-0.063934326171875;4.7299999880579;474;100 mA
50.34938287288;-0.89935302734375;-0.064727783203125;4.73999998803265;475;100 mA
50.3593828728548;-0.899658203125;-0.06451416015625;4.7499999880074;476;100 mA
50.3693828728295;-0.89935302734375;-0.064453125;4.75999998798216;477;100 mA
50.3793828728043;-0.8990478515625;-0.065338134765625;4.76999998795691;478;100 mA
50.389382872779;-0.89935302734375;-0.0648193359375;4.77999998793166;479;100 mA
50.3993828727538;-0.899658203125;-0.064697265625;4.78999998790641;480;100 mA
50.4093828727285;-0.89935302734375;-0.065399169921875;4.79999998788116;481;100 mA
50.4193828727033;-0.89935302734375;-0.065155029296875;4.80999998785592;482;100 mA
50.429382872678;-0.899658203125;-0.06494140625;4.81999998783067;483;100 mA
50.4393828726528;-0.89935302734375;-0.065765380859375;4.82999998780542;484;100 mA
50.4493828726276;-0.89874267578125;-0.06536865234375;4.83999998778017;485;100 mA
50.4593828726023;-0.89996337890625;-0.0653076171875;4.84999998775493;486;100 mA
50.4693828725771;-0.899658203125;-0.0660400390625;4.85999998772968;487;100 mA
50.4793828725518;-0.89935302734375;-0.065673828125;4.86999998770443;488;100 mA
50.4893828725266;-0.899658203125;-0.06549072265625;4.87999998767918;489;100 mA
50.4993828725013;-0.899658203125;-0.066162109375;4.88999998765394;490;100 mA
50.5093828724761;-0.8990478515625;-0.0657958984375;4.89999998762869;491;100 mA
50.5193828724508;-0.8990478515625;-0.065399169921875;4.90999998760344;492;100 mA
50.5293828724256;-0.8990478515625;-0.06610107421875;4.91999998757819;493;100 mA
50.5393828724003;-0.899658203125;-0.065521240234375;4.92999998755295;494;100 mA
50.5493828723751;-0.899658203125;-0.065399169921875;4.9399999875277;495;100 mA
50.5593828723498;-0.89935302734375;-0.066192626953125;4.94999998750245;496;100 mA
50.5693828723246;-0.89996337890625;-0.06610107421875;4.9599999874772;497;100 mA
50.5793828722993;-0.899658203125;-0.06597900390625;4.96999998745196;498;100 mA
50.5893828722741;-0.89996337890625;-0.0667724609375;4.97999998742671;499;100 mA
50.5993828722488;-0.899658203125;-0.066375732421875;4.98999998740146;500;100 mA
50.6093828722236;-0.89935302734375;-0.066162109375;4.99999998737621;501;100 mA
50.6193828721983;-0.89935302734375;-0.06683349609375;5.00999998735097;502;100 mA
50.6293828721731;-0.89935302734375;-0.066192626953125;5.01999998732572;503;100 mA
50.6393828721478;-0.89935302734375;-0.06585693359375;5.02999998730047;504;100 mA
50.6493828721226;-0.89935302734375;-0.066436767578125;5.03999998727522;505;100 mA
50.6593828720974;-0.899658203125;-0.06591796875;5.04999998724998;506;100 mA
50.6693828720721;-0.89935302734375;-0.065399169921875;5.05999998722473;507;100 mA
50.6793828720469;-0.89874267578125;-0.06610107421875;5.06999998719948;508;100 mA
50.6893828720216;-0.899658203125;-0.065338134765625;5.07999998717423;509;100 mA
50.6993828719964;-0.899658203125;-0.064788818359375;5.08999998714899;510;100 mA
50.7093828719711;-0.89935302734375;-0.0650634765625;5.09999998712374;511;100 mA
50.7193828719459;-0.89935302734375;-0.064453125;5.10999998709849;512;100 mA
50.7293828719206;-0.89935302734375;-0.063995361328125;5.11999998707324;513;100 mA
50.7393828718954;-0.899658203125;-0.0645751953125;5.129999987048;514;100 mA
50.7493828718701;-0.89935302734375;-0.064117431640625;5.13999998702275;515;100 mA
50.7593828718449;-0.8990478515625;-0.06378173828125;5.1499999869975;516;100 mA
50.7693828718196;-0.89935302734375;-0.064422607421875;5.15999998697225;517;100 mA
50.7793828717944;-0.89935302734375;-0.063812255859375;5.169999986947;518;100 mA
50.7893828717691;-0.899658203125;-0.063720703125;5.17999998692176;519;100 mA
50.7993828717439;-0.899658203125;-0.064544677734375;5.18999998689651;520;100 mA
50.8093828717186;-0.89935302734375;-0.064422607421875;5.19999998687126;521;100 mA
50.8193828716934;-0.89935302734375;-0.064208984375;5.20999998684601;522;100 mA
50.8293828716681;-0.899658203125;-0.065185546875;5.21999998682077;523;100 mA
50.8393828716429;-0.89935302734375;-0.064910888671875;5.22999998679552;524;100 mA
50.8493828716176;-0.899658203125;-0.06494140625;5.23999998677027;525;100 mA
50.8593828715924;-0.89935302734375;-0.065826416015625;5.24999998674502;526;100 mA
50.8693828715672;-0.89935302734375;-0.065582275390625;5.25999998671978;527;100 mA
50.8793828715419;-0.89935302734375;-0.065521240234375;5.26999998669453;528;100 mA
50.8893828715167;-0.89874267578125;-0.066375732421875;5.27999998666928;529;100 mA
50.8993828714914;-0.89935302734375;-0.066131591796875;5.28999998664403;530;100 mA
50.9093828714662;-0.89874267578125;-0.065887451171875;5.29999998661879;531;100 mA
50.9193828714409;-0.8990478515625;-0.06671142578125;5.30999998659354;532;100 mA
50.9293828714157;-0.899658203125;-0.066162109375;5.31999998656829;533;100 mA
50.9393828713904;-0.89935302734375;-0.065948486328125;5.32999998654304;534;100 mA
50.9493828713652;-0.89935302734375;-0.06646728515625;5.3399999865178;535;100 mA
50.9593828713399;-0.89874267578125;-0.0660400390625;5.34999998649255;536;100 mA
50.9693828713147;-0.89935302734375;-0.06561279296875;5.3599999864673;537;100 mA
50.9793828712894;-0.89935302734375;-0.0662841796875;5.36999998644205;538;100 mA
50.9893828712642;-0.89935302734375;-0.066070556640625;5.37999998641681;539;100 mA
50.9993828712389;-0.899658203125;-0.066070556640625;5.38999998639156;540;100 mA
51.0093828712137;-0.8990478515625;-0.06689453125;5.39999998636631;541;100 mA
51.0193828711884;-0.89874267578125;-0.066619873046875;5.40999998634106;542;100 mA
51.0293828711632;-0.89935302734375;-0.066650390625;5.41999998631582;543;100 mA
51.0393828711379;-0.89935302734375;-0.067352294921875;5.42999998629057;544;100 mA
51.0493828711127;-0.89935302734375;-0.06719970703125;5.43999998626532;545;100 mA
51.0593828710875;-0.899658203125;-0.0670166015625;5.44999998624007;546;100 mA
51.0693828710622;-0.899658203125;-0.06787109375;5.45999998621483;547;100 mA
51.079382871037;-0.89935302734375;-0.067413330078125;5.46999998618958;548;100 mA
51.0893828710117;-0.899658203125;-0.06732177734375;5.47999998616433;549;100 mA
51.0993828709865;-0.899658203125;-0.067840576171875;5.48999998613908;550;100 mA
51.1093828709612;-0.89935302734375;-0.06744384765625;5.49999998611383;551;100 mA
51.119382870936;-0.8990478515625;-0.067047119140625;5.50999998608859;552;100 mA
51.1293828709107;-0.899658203125;-0.067718505859375;5.51999998606334;553;100 mA
51.1393828708855;-0.89935302734375;-0.067474365234375;5.52999998603809;554;100 mA
51.1493828708602;-0.89935302734375;-0.06732177734375;5.53999998601284;555;100 mA
51.159382870835;-0.899658203125;-0.06817626953125;5.5499999859876;556;100 mA
51.1693828708097;-0.89996337890625;-0.06781005859375;5.55999998596235;557;100 mA
51.1793828707845;-0.89935302734375;-0.06781005859375;5.5699999859371;558;100 mA
51.1893828707592;-0.8990478515625;-0.068695068359375;5.57999998591185;559;100 mA
51.199382870734;-0.89935302734375;-0.068695068359375;5.58999998588661;560;100 mA
51.2093828707087;-0.899658203125;-0.068511962890625;5.59999998586136;561;100 mA
51.2193828706835;-0.899658203125;-0.069427490234375;5.60999998583611;562;100 mA
51.2293828706582;-0.8990478515625;-0.0692138671875;5.61999998581086;563;100 mA
51.239382870633;-0.89935302734375;-0.06939697265625;5.62999998578562;564;100 mA
51.2493828706077;-0.89935302734375;-0.070343017578125;5.63999998576037;565;100 mA
51.2593828705825;-0.899658203125;-0.0701904296875;5.64999998573512;566;100 mA
51.2693828705573;-0.899658203125;-0.07025146484375;5.65999998570987;567;100 mA
51.279382870532;-0.899658203125;-0.071075439453125;5.66999998568463;568;100 mA
51.2893828705068;-0.899658203125;-0.07098388671875;5.67999998565938;569;100 mA
51.2993828704815;-0.899658203125;-0.070831298828125;5.68999998563413;570;100 mA
51.3093828704563;-0.899658203125;-0.071807861328125;5.69999998560888;571;100 mA
51.319382870431;-0.89935302734375;-0.071441650390625;5.70999998558364;572;100 mA
51.3293828704058;-0.89935302734375;-0.071502685546875;5.71999998555839;573;100 mA
51.3393828703805;-0.89935302734375;-0.072174072265625;5.72999998553314;574;100 mA
51.3493828703553;-0.8990478515625;-0.071807861328125;5.73999998550789;575;100 mA
51.35938287033;-0.899658203125;-0.071441650390625;5.74999998548265;576;100 mA
51.3693828703048;-0.89935302734375;-0.072113037109375;5.7599999854574;577;100 mA
51.3793828702795;-0.8990478515625;-0.071685791015625;5.76999998543215;578;100 mA
51.3893828702543;-0.8990478515625;-0.071380615234375;5.7799999854069;579;100 mA
51.399382870229;-0.899658203125;-0.0718994140625;5.78999998538166;580;100 mA
51.4093828702038;-0.8990478515625;-0.071319580078125;5.79999998535641;581;100 mA
51.4193828701785;-0.89935302734375;-0.070892333984375;5.80999998533116;582;100 mA
51.4293828701533;-0.90057373046875;-0.071319580078125;5.81999998530591;583;100 mA
51.439382870128;-0.89935302734375;-0.070770263671875;5.82999998528066;584;100 mA
51.4493828701028;-0.89996337890625;-0.0701904296875;5.83999998525542;585;100 mA
51.4593828700775;-0.8990478515625;-0.07073974609375;5.84999998523017;586;100 mA
51.4693828700523;-0.8990478515625;-0.069976806640625;5.85999998520492;587;100 mA
51.4793828700271;-0.899658203125;-0.069549560546875;5.86999998517967;588;100 mA
51.4893828700018;-0.899658203125;-0.0697021484375;5.87999998515443;589;100 mA
51.4993828699766;-0.89935302734375;-0.0687255859375;5.88999998512918;590;100 mA
51.5093828699513;-0.8990478515625;-0.06787109375;5.89999998510393;591;100 mA
51.5193828699261;-0.899658203125;-0.0679931640625;5.90999998507868;592;100 mA
51.5293828699008;-0.899658203125;-0.067138671875;5.91999998505344;593;100 mA
51.5393828698756;-0.89996337890625;-0.066375732421875;5.92999998502819;594;100 mA
51.5493828698503;-0.89874267578125;-0.06671142578125;5.93999998500294;595;100 mA
51.5593828698251;-0.89996337890625;-0.06585693359375;5.94999998497769;596;100 mA
51.5693828697998;-0.899658203125;-0.065338134765625;5.95999998495245;597;100 mA
51.5793828697746;-0.8990478515625;-0.065765380859375;5.9699999849272;598;100 mA
51.5893828697493;-0.899658203125;-0.065216064453125;5.97999998490195;599;100 mA
51.5993828697241;-0.89935302734375;-0.064605712890625;5.9899999848767;600;100 mA
51.6093828696988;-0.899658203125;-0.06512451171875;5.99999998485146;601;100 mA
51.6193828696736;-0.8990478515625;-0.064422607421875;6.00999998482621;602;100 mA
51.6293828696483;-0.89935302734375;-0.0638427734375;6.01999998480096;603;100 mA
51.6393828696231;-0.89935302734375;-0.0643310546875;6.02999998477571;604;100 mA
51.6493828695978;-0.8990478515625;-0.06365966796875;6.03999998475047;605;100 mA
51.6593828695726;-0.89996337890625;-0.0631103515625;6.04999998472522;606;100 mA
51.6693828695473;-0.89935302734375;-0.063629150390625;6.05999998469997;607;100 mA
51.6793828695221;-0.8990478515625;-0.063232421875;6.06999998467472;608;100 mA
51.6893828694969;-0.89996337890625;-0.062713623046875;6.07999998464948;609;100 mA
51.6993828694716;-0.899658203125;-0.06317138671875;6.08999998462423;610;100 mA
51.7093828694464;-0.89996337890625;-0.06256103515625;6.09999998459898;611;100 mA
51.7193828694211;-0.89935302734375;-0.06231689453125;6.10999998457373;612;100 mA
51.7293828693959;-0.89935302734375;-0.062835693359375;6.11999998454849;613;100 mA
51.7393828693706;-0.89935302734375;-0.06243896484375;6.12999998452324;614;100 mA
51.7493828693454;-0.899658203125;-0.06195068359375;6.13999998449799;615;100 mA
51.7593828693201;-0.89996337890625;-0.0626220703125;6.14999998447274;616;100 mA
51.7693828692949;-0.89935302734375;-0.062255859375;6.1599999844475;617;100 mA
51.7793828692696;-0.89935302734375;-0.06207275390625;6.16999998442225;618;100 mA
51.7893828692444;-0.89935302734375;-0.062835693359375;6.179999984397;619;100 mA
51.7993828692191;-0.899658203125;-0.062591552734375;6.18999998437175;620;100 mA
51.8093828691939;-0.899658203125;-0.0626220703125;6.1999999843465;621;100 mA
51.8193828691686;-0.89996337890625;-0.06341552734375;6.20999998432126;622;100 mA
51.8293828691434;-0.89935302734375;-0.063323974609375;6.21999998429601;623;100 mA
51.8393828691181;-0.89874267578125;-0.06317138671875;6.22999998427076;624;100 mA
51.8493828690929;-0.89874267578125;-0.063995361328125;6.23999998424551;625;100 mA
51.8593828690676;-0.8990478515625;-0.063690185546875;6.24999998422027;626;100 mA
51.8693828690424;-0.8990478515625;-0.063720703125;6.25999998419502;627;100 mA
51.8793828690171;-0.89996337890625;-0.064361572265625;6.26999998416977;628;100 mA
51.8893828689919;-0.899658203125;-0.0640869140625;6.27999998414452;629;100 mA
51.8993828689667;-0.89935302734375;-0.063812255859375;6.28999998411928;630;100 mA
51.9093828689414;-0.89935302734375;-0.0645751953125;6.29999998409403;631;100 mA
51.9193828689162;-0.89935302734375;-0.0643310546875;6.30999998406878;632;100 mA
51.9293828688909;-0.89935302734375;-0.064117431640625;6.31999998404353;633;100 mA
51.9393828688657;-0.89935302734375;-0.0648193359375;6.32999998401829;634;100 mA
51.9493828688404;-0.8990478515625;-0.064300537109375;6.33999998399304;635;100 mA
51.9593828688152;-0.89935302734375;-0.064178466796875;6.34999998396779;636;100 mA
51.9693828687899;-0.899658203125;-0.064697265625;6.35999998394254;637;100 mA
51.9793828687647;-0.8990478515625;-0.06451416015625;6.3699999839173;638;100 mA
51.9893828687394;-0.89935302734375;-0.064178466796875;6.37999998389205;639;100 mA
51.9993828687142;-0.899658203125;-0.06475830078125;6.3899999838668;640;100 mA
52.0093828686889;-0.8990478515625;-0.0643310546875;6.39999998384155;641;100 mA
52.0193828686637;-0.89935302734375;-0.06414794921875;6.40999998381631;642;100 mA
52.0293828686384;-0.89874267578125;-0.06488037109375;6.41999998379106;643;100 mA
52.0393828686132;-0.89935302734375;-0.064361572265625;6.42999998376581;644;100 mA
52.0493828685879;-0.899658203125;-0.064056396484375;6.43999998374056;645;100 mA
52.0593828685627;-0.89935302734375;-0.06463623046875;6.44999998371532;646;100 mA
52.0693828685374;-0.8990478515625;-0.064208984375;6.45999998369007;647;100 mA
52.0793828685122;-0.8990478515625;-0.063812255859375;6.46999998366482;648;100 mA
52.089382868487;-0.8990478515625;-0.06439208984375;6.47999998363957;649;100 mA
52.0993828684617;-0.89935302734375;-0.0638427734375;6.48999998361433;650;100 mA
52.1093828684365;-0.89935302734375;-0.063751220703125;6.49999998358908;651;100 mA
52.1193828684112;-0.8990478515625;-0.064300537109375;6.50999998356383;652;100 mA
52.129382868386;-0.899658203125;-0.063995361328125;6.51999998353858;653;100 mA
52.1393828683607;-0.8990478515625;-0.063751220703125;6.52999998351333;654;100 mA
52.1493828683355;-0.8990478515625;-0.064544677734375;6.53999998348809;655;100 mA
52.1593828683102;-0.89996337890625;-0.06427001953125;6.54999998346284;656;100 mA
52.169382868285;-0.899658203125;-0.064208984375;6.55999998343759;657;100 mA
52.1793828682597;-0.899658203125;-0.065032958984375;6.56999998341234;658;100 mA
52.1893828682345;-0.899658203125;-0.064788818359375;6.5799999833871;659;100 mA
52.1993828682092;-0.899658203125;-0.064910888671875;6.58999998336185;660;100 mA
52.209382868184;-0.8990478515625;-0.065765380859375;6.5999999833366;661;100 mA
52.2193828681587;-0.899658203125;-0.065673828125;6.60999998331135;662;100 mA
52.2293828681335;-0.899658203125;-0.065582275390625;6.61999998328611;663;100 mA
52.2393828681082;-0.899658203125;-0.0665283203125;6.62999998326086;664;100 mA
52.249382868083;-0.899658203125;-0.0662841796875;6.63999998323561;665;100 mA
52.2593828680577;-0.89996337890625;-0.066436767578125;6.64999998321036;666;100 mA
52.2693828680325;-0.89996337890625;-0.067230224609375;6.65999998318512;667;100 mA
52.2793828680072;-0.89996337890625;-0.067047119140625;6.66999998315987;668;100 mA
52.289382867982;-0.89996337890625;-0.067047119140625;6.67999998313462;669;100 mA
52.2993828679568;-0.8990478515625;-0.067962646484375;6.68999998310937;670;100 mA
52.3093828679315;-0.899658203125;-0.06781005859375;6.69999998308413;671;100 mA
52.3193828679063;-0.899658203125;-0.067718505859375;6.70999998305888;672;100 mA
52.329382867881;-0.89935302734375;-0.068603515625;6.71999998303363;673;100 mA
52.3393828678558;-0.89935302734375;-0.06817626953125;6.72999998300838;674;100 mA
52.3493828678305;-0.89996337890625;-0.068145751953125;6.73999998298314;675;100 mA
52.3593828678053;-0.899658203125;-0.0687255859375;6.74999998295789;676;100 mA
52.36938286778;-0.899658203125;-0.068359375;6.75999998293264;677;100 mA
52.3793828677548;-0.8990478515625;-0.067962646484375;6.76999998290739;678;100 mA
52.3893828677295;-0.899658203125;-0.06866455078125;6.77999998288215;679;100 mA
52.3993828677043;-0.89935302734375;-0.06805419921875;6.7899999828569;680;100 mA
52.409382867679;-0.899658203125;-0.067779541015625;6.79999998283165;681;100 mA
52.4193828676538;-0.89935302734375;-0.068267822265625;6.8099999828064;682;100 mA
52.4293828676285;-0.8990478515625;-0.067657470703125;6.81999998278116;683;100 mA
52.4393828676033;-0.89935302734375;-0.067352294921875;6.82999998275591;684;100 mA
52.449382867578;-0.899658203125;-0.06805419921875;6.83999998273066;685;100 mA
52.4593828675528;-0.89874267578125;-0.06768798828125;6.84999998270541;686;100 mA
52.4693828675275;-0.89935302734375;-0.067413330078125;6.85999998268016;687;100 mA
52.4793828675023;-0.89935302734375;-0.068267822265625;6.86999998265492;688;100 mA
52.489382867477;-0.89996337890625;-0.067840576171875;6.87999998262967;689;100 mA
52.4993828674518;-0.89935302734375;-0.06781005859375;6.88999998260442;690;100 mA
52.5093828674266;-0.8990478515625;-0.068511962890625;6.89999998257917;691;100 mA
52.5193828674013;-0.8990478515625;-0.06817626953125;6.90999998255393;692;100 mA
52.5293828673761;-0.89935302734375;-0.06787109375;6.91999998252868;693;100 mA
52.5393828673508;-0.8990478515625;-0.06878662109375;6.92999998250343;694;100 mA
52.5493828673256;-0.899658203125;-0.06842041015625;6.93999998247818;695;100 mA
52.5593828673003;-0.89935302734375;-0.06829833984375;6.94999998245294;696;100 mA
52.5693828672751;-0.899658203125;-0.06890869140625;6.95999998242769;697;100 mA
52.5793828672498;-0.8990478515625;-0.06817626953125;6.96999998240244;698;100 mA
52.5893828672246;-0.89935302734375;-0.067718505859375;6.97999998237719;699;100 mA
52.5993828671993;-0.8990478515625;-0.068145751953125;6.98999998235195;700;100 mA
