Time (s);WE(1).Potential (V);WE(1).Current (A);Corrected time (s);Index;Current range
68.4884438270833;-1.00006103515625;-0.3529052734375;0;1;100 mA
68.4984438270581;-0.999755859375;-0.253570556640625;0.00999999997475243;2;100 mA
68.5084438270328;-0.9991455078125;-0.209014892578125;0.0199999999495049;3;100 mA
68.5184438270076;-0.999755859375;-0.18017578125;0.0299999999242573;4;100 mA
68.5284438269823;-0.99945068359375;-0.160888671875;0.0399999998990097;5;100 mA
68.5384438269571;-0.99945068359375;-0.1475830078125;0.0499999998737621;6;100 mA
68.5484438269318;-0.9991455078125;-0.136016845703125;0.0599999998485146;7;100 mA
68.5584438269066;-0.9991455078125;-0.127410888671875;0.069999999823267;8;100 mA
68.5684438268813;-0.999755859375;-0.12103271484375;0.0799999997980194;9;100 mA
68.5784438268561;-1.00006103515625;-0.11474609375;0.0899999997727718;10;100 mA
68.5884438268308;-0.99884033203125;-0.109619140625;0.0999999997475243;11;100 mA
68.5984438268056;-0.9991455078125;-0.105865478515625;0.109999999722277;12;100 mA
68.6084438267803;-0.99945068359375;-0.10174560546875;0.119999999697029;13;100 mA
68.6184438267551;-0.99884033203125;-0.09832763671875;0.129999999671782;14;100 mA
68.6284438267298;-0.99945068359375;-0.09588623046875;0.139999999646534;15;100 mA
68.6384438267046;-0.99945068359375;-0.093017578125;0.149999999621286;16;100 mA
68.6484438266793;-0.99945068359375;-0.09039306640625;0.159999999596039;17;100 mA
68.6584438266541;-0.999755859375;-0.088897705078125;0.169999999570791;18;100 mA
68.6684438266288;-0.999755859375;-0.086578369140625;0.179999999545544;19;100 mA
68.6784438266036;-0.99945068359375;-0.084747314453125;0.189999999520296;20;100 mA
68.6884438265784;-0.99945068359375;-0.083770751953125;0.199999999495049;21;100 mA
68.6984438265531;-1.00006103515625;-0.081939697265625;0.209999999469801;22;100 mA
68.7084438265279;-0.999755859375;-0.0806884765625;0.219999999444553;23;100 mA
68.7184438265026;-0.9991455078125;-0.08013916015625;0.229999999419306;24;100 mA
68.7284438264774;-0.9991455078125;-0.078704833984375;0.239999999394058;25;100 mA
68.7384438264521;-0.9991455078125;-0.07757568359375;0.249999999368811;26;100 mA
68.7484438264269;-0.99945068359375;-0.0772705078125;0.259999999343563;27;100 mA
68.7584438264016;-0.9991455078125;-0.076080322265625;0.269999999318316;28;100 mA
68.7684438263764;-0.99945068359375;-0.07537841796875;0.279999999293068;29;100 mA
68.7784438263511;-0.99945068359375;-0.07525634765625;0.28999999926782;30;100 mA
68.7884438263259;-0.99945068359375;-0.0743408203125;0.299999999242573;31;100 mA
68.7984438263006;-0.99945068359375;-0.073638916015625;0.309999999217325;32;100 mA
68.8084438262754;-0.99945068359375;-0.07366943359375;0.319999999192078;33;100 mA
68.8184438262501;-0.99884033203125;-0.072906494140625;0.32999999916683;34;100 mA
68.8284438262249;-0.9991455078125;-0.072113037109375;0.339999999141583;35;100 mA
68.8384438261996;-0.99945068359375;-0.072296142578125;0.349999999116335;36;100 mA
68.8484438261744;-0.99945068359375;-0.07135009765625;0.359999999091087;37;100 mA
68.8584438261491;-0.99945068359375;-0.07073974609375;0.36999999906584;38;100 mA
68.8684438261239;-0.99945068359375;-0.070709228515625;0.379999999040592;39;100 mA
68.8784438260986;-0.99945068359375;-0.06988525390625;0.389999999015345;40;100 mA
68.8884438260734;-0.99884033203125;-0.06927490234375;0.399999998990097;41;100 mA
68.8984438260482;-0.9991455078125;-0.069549560546875;0.40999999896485;42;100 mA
68.9084438260229;-0.9991455078125;-0.068939208984375;0.419999998939602;43;100 mA
68.9184438259977;-0.99884033203125;-0.068603515625;0.429999998914354;44;100 mA
68.9284438259724;-0.99945068359375;-0.0689697265625;0.439999998889107;45;100 mA
68.9384438259472;-0.99945068359375;-0.06842041015625;0.449999998863859;46;100 mA
68.9484438259219;-0.99945068359375;-0.068115234375;0.459999998838612;47;100 mA
68.9584438258967;-0.99945068359375;-0.068572998046875;0.469999998813364;48;100 mA
68.9684438258714;-0.9991455078125;-0.06817626953125;0.479999998788116;49;100 mA
68.9784438258462;-0.9991455078125;-0.067779541015625;0.489999998762869;50;100 mA
68.9884438258209;-0.9991455078125;-0.06829833984375;0.499999998737621;51;100 mA
68.9984438257957;-0.999755859375;-0.06768798828125;0.509999998712374;52;100 mA
69.0084438257704;-0.99884033203125;-0.0673828125;0.519999998687126;53;100 mA
69.0184438257452;-0.999755859375;-0.067657470703125;0.529999998661879;54;100 mA
69.0284438257199;-0.99945068359375;-0.067108154296875;0.539999998636631;55;100 mA
69.0384438256947;-0.99945068359375;-0.06671142578125;0.549999998611383;56;100 mA
69.0484438256694;-0.999755859375;-0.067138671875;0.559999998586136;57;100 mA
69.0584438256442;-0.99945068359375;-0.066619873046875;0.569999998560888;58;100 mA
69.0684438256189;-0.999755859375;-0.066192626953125;0.579999998535641;59;100 mA
69.0784438255937;-0.999755859375;-0.0665283203125;0.589999998510393;60;100 mA
69.0884438255684;-0.99945068359375;-0.06585693359375;0.599999998485146;61;100 mA
69.0984438255432;-0.999755859375;-0.06549072265625;0.609999998459898;62;100 mA
69.108443825518;-0.999755859375;-0.06573486328125;0.61999999843465;63;100 mA
69.1184438254927;-0.999755859375;-0.06524658203125;0.629999998409403;64;100 mA
69.1284438254675;-0.9991455078125;-0.064788818359375;0.639999998384155;65;100 mA
69.1384438254422;-0.999755859375;-0.06536865234375;0.649999998358908;66;100 mA
69.148443825417;-0.9991455078125;-0.065155029296875;0.65999999833366;67;100 mA
69.1584438253917;-0.9991455078125;-0.06524658203125;0.669999998308413;68;100 mA
69.1684438253665;-0.99945068359375;-0.0660400390625;0.679999998283165;69;100 mA
69.1784438253412;-0.999755859375;-0.06597900390625;0.689999998257917;70;100 mA
69.188443825316;-0.99945068359375;-0.0660400390625;0.69999999823267;71;100 mA
69.1984438252907;-0.999755859375;-0.066925048828125;0.709999998207422;72;100 mA
69.2084438252655;-0.999755859375;-0.066925048828125;0.719999998182175;73;100 mA
69.2184438252402;-0.99945068359375;-0.066925048828125;0.729999998156927;74;100 mA
69.228443825215;-0.999755859375;-0.067718505859375;0.73999999813168;75;100 mA
69.2384438251897;-0.9991455078125;-0.0675048828125;0.749999998106432;76;100 mA
69.2484438251645;-0.99945068359375;-0.067626953125;0.759999998081184;77;100 mA
69.2584438251392;-0.9991455078125;-0.0682373046875;0.769999998055937;78;100 mA
69.268443825114;-0.9991455078125;-0.06805419921875;0.779999998030689;79;100 mA
69.2784438250887;-0.9991455078125;-0.0677490234375;0.789999998005442;80;100 mA
69.2884438250635;-0.999755859375;-0.068359375;0.799999997980194;81;100 mA
69.2984438250382;-0.999755859375;-0.0679931640625;0.809999997954947;82;100 mA
69.308443825013;-0.99945068359375;-0.067657470703125;0.819999997929699;83;100 mA
69.3184438249878;-0.9991455078125;-0.0679931640625;0.829999997904451;84;100 mA
69.3284438249625;-0.99884033203125;-0.06744384765625;0.839999997879204;85;100 mA
69.3384438249373;-0.99945068359375;-0.067169189453125;0.849999997853956;86;100 mA
69.348443824912;-0.9991455078125;-0.067596435546875;0.859999997828709;87;100 mA
69.3584438248868;-0.9991455078125;-0.0672607421875;0.869999997803461;88;100 mA
69.3684438248615;-0.99945068359375;-0.0667724609375;0.879999997778214;89;100 mA
69.3784438248363;-0.999755859375;-0.067138671875;0.889999997752966;90;100 mA
69.388443824811;-0.999755859375;-0.066741943359375;0.899999997727718;91;100 mA
69.3984438247858;-0.99945068359375;-0.066497802734375;0.909999997702471;92;100 mA
69.4084438247605;-0.99945068359375;-0.06683349609375;0.919999997677223;93;100 mA
69.4184438247353;-0.999755859375;-0.066558837890625;0.929999997651976;94;100 mA
69.42844382471;-0.9991455078125;-0.066162109375;0.939999997626728;95;100 mA
69.4384438246848;-0.9991455078125;-0.06658935546875;0.949999997601481;96;100 mA
69.4484438246595;-0.999755859375;-0.066162109375;0.959999997576233;97;100 mA
69.4584438246343;-0.99945068359375;-0.065673828125;0.969999997550985;98;100 mA
69.468443824609;-0.99945068359375;-0.06591796875;0.979999997525738;99;100 mA
69.4784438245838;-0.99945068359375;-0.06524658203125;0.98999999750049;100;100 mA
69.4884438245585;-0.99945068359375;-0.064849853515625;0.999999997475243;101;100 mA
69.4984438245333;-0.999755859375;-0.06512451171875;1.00999999745;102;100 mA
69.508443824508;-0.99884033203125;-0.064788818359375;1.01999999742475;103;100 mA
69.5184438244828;-0.999755859375;-0.064361572265625;1.0299999973995;104;100 mA
69.5284438244576;-0.999755859375;-0.064727783203125;1.03999999737425;105;100 mA
69.5384438244323;-0.999755859375;-0.064208984375;1.049999997349;106;100 mA
69.5484438244071;-0.99945068359375;-0.063873291015625;1.05999999732376;107;100 mA
69.5584438243818;-0.999755859375;-0.064239501953125;1.06999999729851;108;100 mA
69.5684438243566;-0.99945068359375;-0.063812255859375;1.07999999727326;109;100 mA
69.5784438243313;-0.99945068359375;-0.063385009765625;1.08999999724801;110;100 mA
69.5884438243061;-1.00006103515625;-0.0638427734375;1.09999999722277;111;100 mA
69.5984438242808;-0.9991455078125;-0.06353759765625;1.10999999719752;112;100 mA
69.6084438242556;-0.9991455078125;-0.06317138671875;1.11999999717227;113;100 mA
69.6184438242303;-0.99945068359375;-0.063690185546875;1.12999999714702;114;100 mA
69.6284438242051;-0.99945068359375;-0.06329345703125;1.13999999712178;115;100 mA
69.6384438241798;-0.99884033203125;-0.063201904296875;1.14999999709653;116;100 mA
69.6484438241546;-0.99945068359375;-0.063690185546875;1.15999999707128;117;100 mA
69.6584438241293;-0.99945068359375;-0.06353759765625;1.16999999704603;118;100 mA
69.6684438241041;-0.99945068359375;-0.063323974609375;1.17999999702079;119;100 mA
69.6784438240788;-0.9991455078125;-0.06396484375;1.18999999699554;120;100 mA
69.6884438240536;-0.99945068359375;-0.063812255859375;1.19999999697029;121;100 mA
69.6984438240283;-0.99945068359375;-0.06365966796875;1.20999999694504;122;100 mA
69.7084438240031;-0.9991455078125;-0.0640869140625;1.2199999969198;123;100 mA
69.7184438239779;-0.9991455078125;-0.063690185546875;1.22999999689455;124;100 mA
69.7284438239526;-0.999755859375;-0.063385009765625;1.2399999968693;125;100 mA
69.7384438239274;-0.99945068359375;-0.06378173828125;1.24999999684405;126;100 mA
69.7484438239021;-0.99884033203125;-0.063568115234375;1.25999999681881;127;100 mA
69.7584438238769;-0.99884033203125;-0.06341552734375;1.26999999679356;128;100 mA
69.7684438238516;-0.99945068359375;-0.06396484375;1.27999999676831;129;100 mA
69.7784438238264;-0.9991455078125;-0.063629150390625;1.28999999674306;130;100 mA
69.7884438238011;-0.99945068359375;-0.0634765625;1.29999999671782;131;100 mA
69.7984438237759;-0.9991455078125;-0.063873291015625;1.30999999669257;132;100 mA
69.8084438237506;-0.99945068359375;-0.063507080078125;1.31999999666732;133;100 mA
69.8184438237254;-0.99945068359375;-0.063140869140625;1.32999999664207;134;100 mA
69.8284438237001;-0.9991455078125;-0.06353759765625;1.33999999661683;135;100 mA
69.8384438236749;-0.999755859375;-0.063262939453125;1.34999999659158;136;100 mA
69.8484438236496;-0.99884033203125;-0.06298828125;1.35999999656633;137;100 mA
69.8584438236244;-0.99945068359375;-0.063385009765625;1.36999999654108;138;100 mA
69.8684438235991;-0.99945068359375;-0.063079833984375;1.37999999651583;139;100 mA
69.8784438235739;-0.9991455078125;-0.06298828125;1.38999999649059;140;100 mA
69.8884438235486;-0.9991455078125;-0.0634765625;1.39999999646534;141;100 mA
69.8984438235234;-1.00006103515625;-0.063323974609375;1.40999999644009;142;100 mA
69.9084438234981;-0.99945068359375;-0.063079833984375;1.41999999641484;143;100 mA
69.9184438234729;-0.999755859375;-0.063812255859375;1.4299999963896;144;100 mA
69.9284438234477;-0.9991455078125;-0.0635986328125;1.43999999636435;145;100 mA
69.9384438234224;-0.99884033203125;-0.063568115234375;1.4499999963391;146;100 mA
69.9484438233972;-0.999755859375;-0.064239501953125;1.45999999631385;147;100 mA
69.9584438233719;-0.99945068359375;-0.06414794921875;1.46999999628861;148;100 mA
69.9684438233467;-0.9991455078125;-0.06396484375;1.47999999626336;149;100 mA
69.9784438233214;-0.9991455078125;-0.0645751953125;1.48999999623811;150;100 mA
69.9884438232962;-0.99945068359375;-0.06439208984375;1.49999999621286;151;100 mA
69.9984438232709;-0.9991455078125;-0.064117431640625;1.50999999618762;152;100 mA
70.0084438232457;-0.999755859375;-0.064727783203125;1.51999999616237;153;100 mA
70.0184438232204;-0.9991455078125;-0.06451416015625;1.52999999613712;154;100 mA
70.0284438231952;-0.9991455078125;-0.064361572265625;1.53999999611187;155;100 mA
70.0384438231699;-0.99945068359375;-0.06494140625;1.54999999608663;156;100 mA
70.0484438231447;-0.99945068359375;-0.06475830078125;1.55999999606138;157;100 mA
70.0584438231194;-0.9991455078125;-0.06451416015625;1.56999999603613;158;100 mA
70.0684438230942;-0.99945068359375;-0.065216064453125;1.57999999601088;159;100 mA
70.0784438230689;-0.999755859375;-0.065032958984375;1.58999999598564;160;100 mA
70.0884438230437;-0.99945068359375;-0.064788818359375;1.59999999596039;161;100 mA
70.0984438230184;-0.9991455078125;-0.065216064453125;1.60999999593514;162;100 mA
70.1084438229932;-0.99945068359375;-0.064788818359375;1.61999999590989;163;100 mA
70.1184438229679;-0.99945068359375;-0.064422607421875;1.62999999588465;164;100 mA
70.1284438229427;-0.99945068359375;-0.06475830078125;1.6399999958594;165;100 mA
70.1384438229175;-0.99945068359375;-0.064483642578125;1.64999999583415;166;100 mA
70.1484438228922;-0.99945068359375;-0.06402587890625;1.6599999958089;167;100 mA
70.158443822867;-0.999755859375;-0.064453125;1.66999999578366;168;100 mA
70.1684438228417;-0.99945068359375;-0.064239501953125;1.67999999575841;169;100 mA
70.1784438228165;-0.9991455078125;-0.064056396484375;1.68999999573316;170;100 mA
70.1884438227912;-0.999755859375;-0.06463623046875;1.69999999570791;171;100 mA
70.198443822766;-0.999755859375;-0.06451416015625;1.70999999568267;172;100 mA
70.2084438227407;-0.9991455078125;-0.0643310546875;1.71999999565742;173;100 mA
70.2184438227155;-0.99945068359375;-0.065032958984375;1.72999999563217;174;100 mA
70.2284438226902;-0.999755859375;-0.0648193359375;1.73999999560692;175;100 mA
70.238443822665;-0.99945068359375;-0.064605712890625;1.74999999558167;176;100 mA
70.2484438226397;-1.0003662109375;-0.065216064453125;1.75999999555643;177;100 mA
70.2584438226145;-0.999755859375;-0.06494140625;1.76999999553118;178;100 mA
70.2684438225892;-0.9991455078125;-0.06475830078125;1.77999999550593;179;100 mA
70.278443822564;-0.999755859375;-0.065277099609375;1.78999999548068;180;100 mA
70.2884438225387;-0.99945068359375;-0.065216064453125;1.79999999545544;181;100 mA
70.2984438225135;-0.999755859375;-0.065032958984375;1.80999999543019;182;100 mA
70.3084438224882;-0.9991455078125;-0.06573486328125;1.81999999540494;183;100 mA
70.318443822463;-0.99945068359375;-0.0655517578125;1.82999999537969;184;100 mA
70.3284438224377;-0.99884033203125;-0.065338134765625;1.83999999535445;185;100 mA
70.3384438224125;-0.99945068359375;-0.065887451171875;1.8499999953292;186;100 mA
70.3484438223873;-0.99945068359375;-0.065582275390625;1.85999999530395;187;100 mA
70.358443822362;-0.999755859375;-0.065277099609375;1.8699999952787;188;100 mA
70.3684438223368;-0.999755859375;-0.065948486328125;1.87999999525346;189;100 mA
70.3784438223115;-0.99884033203125;-0.06585693359375;1.88999999522821;190;100 mA
70.3884438222863;-0.99945068359375;-0.065582275390625;1.89999999520296;191;100 mA
70.398443822261;-1.0003662109375;-0.066253662109375;1.90999999517771;192;100 mA
70.4084438222358;-0.9991455078125;-0.06597900390625;1.91999999515247;193;100 mA
70.4184438222105;-0.99945068359375;-0.06585693359375;1.92999999512722;194;100 mA
70.4284438221853;-0.9991455078125;-0.06634521484375;1.93999999510197;195;100 mA
70.43844382216;-0.9991455078125;-0.06622314453125;1.94999999507672;196;100 mA
70.4484438221348;-0.999755859375;-0.065948486328125;1.95999999505148;197;100 mA
70.4584438221095;-0.99945068359375;-0.06658935546875;1.96999999502623;198;100 mA
70.4684438220843;-0.99884033203125;-0.066436767578125;1.97999999500098;199;100 mA
70.478443822059;-0.99884033203125;-0.066192626953125;1.98999999497573;200;100 mA
70.4884438220338;-0.9991455078125;-0.06683349609375;1.99999999495049;201;100 mA
70.4984438220085;-0.99945068359375;-0.0665283203125;2.00999999492524;202;100 mA
70.5084438219833;-0.99945068359375;-0.066162109375;2.01999999489999;203;100 mA
70.518443821958;-0.9991455078125;-0.06671142578125;2.02999999487474;204;100 mA
70.5284438219328;-0.9991455078125;-0.066497802734375;2.0399999948495;205;100 mA
70.5384438219075;-0.9991455078125;-0.066070556640625;2.04999999482425;206;100 mA
70.5484438218823;-0.9991455078125;-0.066436767578125;2.059999994799;207;100 mA
70.5584438218571;-0.99945068359375;-0.06585693359375;2.06999999477375;208;100 mA
70.5684438218318;-0.99945068359375;-0.0655517578125;2.0799999947485;209;100 mA
70.5784438218066;-0.99945068359375;-0.065948486328125;2.08999999472326;210;100 mA
70.5884438217813;-0.99945068359375;-0.065704345703125;2.09999999469801;211;100 mA
70.5984438217561;-0.99884033203125;-0.065460205078125;2.10999999467276;212;100 mA
70.6084438217308;-0.999755859375;-0.06610107421875;2.11999999464751;213;100 mA
70.6184438217056;-0.99945068359375;-0.066009521484375;2.12999999462227;214;100 mA
70.6284438216803;-0.999755859375;-0.06573486328125;2.13999999459702;215;100 mA
70.6384438216551;-1.00006103515625;-0.0662841796875;2.14999999457177;216;100 mA
70.6484438216298;-0.9991455078125;-0.066009521484375;2.15999999454652;217;100 mA
70.6584438216046;-0.99945068359375;-0.06573486328125;2.16999999452128;218;100 mA
70.6684438215793;-1.00006103515625;-0.066162109375;2.17999999449603;219;100 mA
70.6784438215541;-0.999755859375;-0.06591796875;2.18999999447078;220;100 mA
70.6884438215288;-0.99884033203125;-0.065399169921875;2.19999999444553;221;100 mA
70.6984438215036;-0.99945068359375;-0.06591796875;2.20999999442029;222;100 mA
70.7084438214783;-0.99945068359375;-0.0655517578125;2.21999999439504;223;100 mA
70.7184438214531;-0.99945068359375;-0.065338134765625;2.22999999436979;224;100 mA
70.7284438214278;-0.99945068359375;-0.06585693359375;2.23999999434454;225;100 mA
70.7384438214026;-0.99884033203125;-0.065643310546875;2.2499999943193;226;100 mA
70.7484438213774;-0.99884033203125;-0.06549072265625;2.25999999429405;227;100 mA
70.7584438213521;-0.99945068359375;-0.066253662109375;2.2699999942688;228;100 mA
70.7684438213269;-0.99945068359375;-0.06622314453125;2.27999999424355;229;100 mA
70.7784438213016;-0.99945068359375;-0.06585693359375;2.28999999421831;230;100 mA
70.7884438212764;-0.999755859375;-0.066375732421875;2.29999999419306;231;100 mA
70.7984438212511;-0.9991455078125;-0.066009521484375;2.30999999416781;232;100 mA
70.8084438212259;-0.99945068359375;-0.065765380859375;2.31999999414256;233;100 mA
70.8184438212006;-0.99945068359375;-0.06634521484375;2.32999999411732;234;100 mA
70.8284438211754;-0.99884033203125;-0.06622314453125;2.33999999409207;235;100 mA
70.8384438211501;-1.00006103515625;-0.06591796875;2.34999999406682;236;100 mA
70.8484438211249;-0.99945068359375;-0.066558837890625;2.35999999404157;237;100 mA
70.8584438210996;-0.99884033203125;-0.066162109375;2.36999999401633;238;100 mA
70.8684438210744;-0.99945068359375;-0.0657958984375;2.37999999399108;239;100 mA
70.8784438210491;-0.999755859375;-0.066253662109375;2.38999999396583;240;100 mA
70.8884438210239;-0.9991455078125;-0.06585693359375;2.39999999394058;241;100 mA
70.8984438209986;-0.9991455078125;-0.0654296875;2.40999999391533;242;100 mA
70.9084438209734;-0.99945068359375;-0.06597900390625;2.41999999389009;243;100 mA
70.9184438209481;-0.99945068359375;-0.06585693359375;2.42999999386484;244;100 mA
70.9284438209229;-0.9991455078125;-0.06549072265625;2.43999999383959;245;100 mA
70.9384438208976;-0.9991455078125;-0.066162109375;2.44999999381434;246;100 mA
70.9484438208724;-0.99945068359375;-0.065948486328125;2.4599999937891;247;100 mA
70.9584438208472;-0.9991455078125;-0.065765380859375;2.46999999376385;248;100 mA
70.9684438208219;-0.99945068359375;-0.0662841796875;2.4799999937386;249;100 mA
70.9784438207967;-0.99945068359375;-0.065948486328125;2.48999999371335;250;100 mA
70.9884438207714;-0.9991455078125;-0.065460205078125;2.49999999368811;251;100 mA
70.9984438207462;-0.999755859375;-0.066009521484375;2.50999999366286;252;100 mA
71.0084438207209;-1.00006103515625;-0.065643310546875;2.51999999363761;253;100 mA
71.0184438206957;-0.99945068359375;-0.065216064453125;2.52999999361236;254;100 mA
71.0284438206704;-0.9991455078125;-0.065643310546875;2.53999999358712;255;100 mA
71.0384438206452;-1.0003662109375;-0.06524658203125;2.54999999356187;256;100 mA
71.0484438206199;-0.99884033203125;-0.06500244140625;2.55999999353662;257;100 mA
71.0584438205947;-0.999755859375;-0.0655517578125;2.56999999351137;258;100 mA
71.0684438205694;-0.999755859375;-0.0655517578125;2.57999999348613;259;100 mA
71.0784438205442;-0.9991455078125;-0.065185546875;2.58999999346088;260;100 mA
71.0884438205189;-0.99945068359375;-0.06585693359375;2.59999999343563;261;100 mA
71.0984438204937;-0.999755859375;-0.065643310546875;2.60999999341038;262;100 mA
71.1084438204684;-0.999755859375;-0.06549072265625;2.61999999338514;263;100 mA
71.1184438204432;-0.99945068359375;-0.066070556640625;2.62999999335989;264;100 mA
71.1284438204179;-0.9991455078125;-0.06585693359375;2.63999999333464;265;100 mA
71.1384438203927;-0.99945068359375;-0.065521240234375;2.64999999330939;266;100 mA
71.1484438203674;-0.9991455078125;-0.06610107421875;2.65999999328415;267;100 mA
71.1584438203422;-0.9991455078125;-0.065826416015625;2.6699999932589;268;100 mA
71.168443820317;-0.9991455078125;-0.06536865234375;2.67999999323365;269;100 mA
71.1784438202917;-0.999755859375;-0.065765380859375;2.6899999932084;270;100 mA
71.1884438202665;-0.99884033203125;-0.0653076171875;2.69999999318316;271;100 mA
71.1984438202412;-0.9991455078125;-0.064971923828125;2.70999999315791;272;100 mA
71.208443820216;-0.99884033203125;-0.065338134765625;2.71999999313266;273;100 mA
71.2184438201907;-0.99853515625;-0.065093994140625;2.72999999310741;274;100 mA
71.2284438201655;-0.9991455078125;-0.064666748046875;2.73999999308217;275;100 mA
71.2384438201402;-0.9991455078125;-0.0653076171875;2.74999999305692;276;100 mA
71.248443820115;-0.99945068359375;-0.065093994140625;2.75999999303167;277;100 mA
71.2584438200897;-0.999755859375;-0.064971923828125;2.76999999300642;278;100 mA
71.2684438200645;-0.9991455078125;-0.065673828125;2.77999999298117;279;100 mA
71.2784438200392;-0.999755859375;-0.065460205078125;2.78999999295593;280;100 mA
71.288443820014;-0.99945068359375;-0.0653076171875;2.79999999293068;281;100 mA
71.2984438199887;-0.999755859375;-0.06597900390625;2.80999999290543;282;100 mA
71.3084438199635;-0.9991455078125;-0.065887451171875;2.81999999288018;283;100 mA
71.3184438199382;-0.999755859375;-0.065704345703125;2.82999999285494;284;100 mA
71.328443819913;-0.9991455078125;-0.066436767578125;2.83999999282969;285;100 mA
71.3384438198877;-0.99945068359375;-0.06634521484375;2.84999999280444;286;100 mA
71.3484438198625;-0.99945068359375;-0.0662841796875;2.85999999277919;287;100 mA
71.3584438198372;-0.99884033203125;-0.066925048828125;2.86999999275395;288;100 mA
71.368443819812;-0.99884033203125;-0.066802978515625;2.8799999927287;289;100 mA
71.3784438197868;-0.99884033203125;-0.066558837890625;2.88999999270345;290;100 mA
71.3884438197615;-0.9991455078125;-0.0672607421875;2.8999999926782;291;100 mA
71.3984438197363;-0.99945068359375;-0.067047119140625;2.90999999265296;292;100 mA
71.408443819711;-0.99945068359375;-0.06671142578125;2.91999999262771;293;100 mA
71.4184438196858;-0.9991455078125;-0.0672607421875;2.92999999260246;294;100 mA
71.4284438196605;-1.00006103515625;-0.066864013671875;2.93999999257721;295;100 mA
71.4384438196353;-0.9991455078125;-0.066650390625;2.94999999255197;296;100 mA
71.44844381961;-0.999755859375;-0.067169189453125;2.95999999252672;297;100 mA
71.4584438195848;-0.9991455078125;-0.06695556640625;2.96999999250147;298;100 mA
71.4684438195595;-0.999755859375;-0.066619873046875;2.97999999247622;299;100 mA
71.4784438195343;-1.00006103515625;-0.067169189453125;2.98999999245098;300;100 mA
71.488443819509;-0.99945068359375;-0.066741943359375;2.99999999242573;301;100 mA
71.4984438194838;-0.9991455078125;-0.066375732421875;3.00999999240048;302;100 mA
71.5084438194585;-1.0003662109375;-0.0667724609375;3.01999999237523;303;100 mA
71.5184438194333;-0.99945068359375;-0.06634521484375;3.02999999234999;304;100 mA
71.528443819408;-0.99884033203125;-0.06585693359375;3.03999999232474;305;100 mA
71.5384438193828;-0.99945068359375;-0.066314697265625;3.04999999229949;306;100 mA
71.5484438193575;-0.99945068359375;-0.06597900390625;3.05999999227424;307;100 mA
71.5584438193323;-0.9991455078125;-0.0654296875;3.069999992249;308;100 mA
71.568443819307;-0.999755859375;-0.065887451171875;3.07999999222375;309;100 mA
71.5784438192818;-0.99945068359375;-0.065399169921875;3.0899999921985;310;100 mA
71.5884438192566;-0.99945068359375;-0.06500244140625;3.09999999217325;311;100 mA
71.5984438192313;-0.99945068359375;-0.0653076171875;3.109999992148;312;100 mA
71.6084438192061;-0.9991455078125;-0.064910888671875;3.11999999212276;313;100 mA
71.6184438191808;-0.99945068359375;-0.064422607421875;3.12999999209751;314;100 mA
71.6284438191556;-0.999755859375;-0.06494140625;3.13999999207226;315;100 mA
71.6384438191303;-0.99945068359375;-0.06463623046875;3.14999999204701;316;100 mA
71.6484438191051;-0.99884033203125;-0.06427001953125;3.15999999202177;317;100 mA
71.6584438190798;-0.999755859375;-0.064727783203125;3.16999999199652;318;100 mA
71.6684438190546;-0.99945068359375;-0.064300537109375;3.17999999197127;319;100 mA
71.6784438190293;-0.9991455078125;-0.063934326171875;3.18999999194602;320;100 mA
71.6884438190041;-0.99945068359375;-0.064483642578125;3.19999999192078;321;100 mA
71.6984438189788;-0.99945068359375;-0.064239501953125;3.20999999189553;322;100 mA
71.7084438189536;-0.99945068359375;-0.063812255859375;3.21999999187028;323;100 mA
71.7184438189283;-0.99945068359375;-0.0643310546875;3.22999999184503;324;100 mA
71.7284438189031;-0.9991455078125;-0.06390380859375;3.23999999181979;325;100 mA
71.7384438188778;-0.9991455078125;-0.063629150390625;3.24999999179454;326;100 mA
71.7484438188526;-0.99945068359375;-0.064117431640625;3.25999999176929;327;100 mA
71.7584438188273;-0.999755859375;-0.06396484375;3.26999999174404;328;100 mA
71.7684438188021;-0.99945068359375;-0.06365966796875;3.2799999917188;329;100 mA
71.7784438187769;-1.00006103515625;-0.064117431640625;3.28999999169355;330;100 mA
71.7884438187516;-0.999755859375;-0.063690185546875;3.2999999916683;331;100 mA
71.7984438187264;-0.99945068359375;-0.063201904296875;3.30999999164305;332;100 mA
71.8084438187011;-0.9991455078125;-0.06341552734375;3.31999999161781;333;100 mA
71.8184438186759;-0.999755859375;-0.062957763671875;3.32999999159256;334;100 mA
71.8284438186506;-0.99945068359375;-0.06256103515625;3.33999999156731;335;100 mA
71.8384438186254;-0.99945068359375;-0.06292724609375;3.34999999154206;336;100 mA
71.8484438186001;-0.99945068359375;-0.062744140625;3.35999999151682;337;100 mA
71.8584438185749;-0.99945068359375;-0.062347412109375;3.36999999149157;338;100 mA
71.8684438185496;-0.99884033203125;-0.06304931640625;3.37999999146632;339;100 mA
71.8784438185244;-0.999755859375;-0.062896728515625;3.38999999144107;340;100 mA
71.8884438184991;-0.99945068359375;-0.06280517578125;3.39999999141583;341;100 mA
71.8984438184739;-0.9991455078125;-0.0634765625;3.40999999139058;342;100 mA
71.9084438184486;-0.999755859375;-0.06329345703125;3.41999999136533;343;100 mA
71.9184438184234;-1.00006103515625;-0.06304931640625;3.42999999134008;344;100 mA
71.9284438183981;-0.9991455078125;-0.063751220703125;3.43999999131483;345;100 mA
71.9384438183729;-0.99945068359375;-0.063690185546875;3.44999999128959;346;100 mA
71.9484438183476;-0.99945068359375;-0.063385009765625;3.45999999126434;347;100 mA
71.9584438183224;-0.99945068359375;-0.064056396484375;3.46999999123909;348;100 mA
71.9684438182971;-1.00006103515625;-0.06390380859375;3.47999999121384;349;100 mA
71.9784438182719;-0.99945068359375;-0.063812255859375;3.4899999911886;350;100 mA
71.9884438182467;-0.99945068359375;-0.064361572265625;3.49999999116335;351;100 mA
71.9984438182214;-0.99945068359375;-0.06427001953125;3.5099999911381;352;100 mA
72.0084438181962;-0.99884033203125;-0.063934326171875;3.51999999111285;353;100 mA
72.0184438181709;-0.99884033203125;-0.064666748046875;3.52999999108761;354;100 mA
72.0284438181457;-0.99945068359375;-0.0645751953125;3.53999999106236;355;100 mA
72.0384438181204;-0.99945068359375;-0.064422607421875;3.54999999103711;356;100 mA
72.0484438180952;-0.999755859375;-0.064910888671875;3.55999999101186;357;100 mA
72.0584438180699;-0.9991455078125;-0.06451416015625;3.56999999098662;358;100 mA
72.0684438180447;-0.999755859375;-0.064117431640625;3.57999999096137;359;100 mA
72.0784438180194;-0.999755859375;-0.06463623046875;3.58999999093612;360;100 mA
72.0884438179942;-1.00006103515625;-0.064483642578125;3.59999999091087;361;100 mA
72.0984438179689;-0.99945068359375;-0.06414794921875;3.60999999088563;362;100 mA
72.1084438179437;-0.9991455078125;-0.064788818359375;3.61999999086038;363;100 mA
72.1184438179184;-0.9991455078125;-0.0645751953125;3.62999999083513;364;100 mA
72.1284438178932;-0.999755859375;-0.064422607421875;3.63999999080988;365;100 mA
72.1384438178679;-0.99945068359375;-0.06488037109375;3.64999999078464;366;100 mA
72.1484438178427;-0.9991455078125;-0.064849853515625;3.65999999075939;367;100 mA
72.1584438178174;-0.99945068359375;-0.0645751953125;3.66999999073414;368;100 mA
72.1684438177922;-0.9991455078125;-0.06536865234375;3.67999999070889;369;100 mA
72.1784438177669;-0.99945068359375;-0.0653076171875;3.68999999068365;370;100 mA
72.1884438177417;-0.9991455078125;-0.065155029296875;3.6999999906584;371;100 mA
72.1984438177165;-0.99884033203125;-0.065826416015625;3.70999999063315;372;100 mA
72.2084438176912;-0.999755859375;-0.065673828125;3.7199999906079;373;100 mA
72.218443817666;-0.99945068359375;-0.065643310546875;3.72999999058266;374;100 mA
72.2284438176407;-0.99945068359375;-0.06622314453125;3.73999999055741;375;100 mA
72.2384438176155;-0.99945068359375;-0.0660400390625;3.74999999053216;376;100 mA
72.2484438175902;-0.9991455078125;-0.065582275390625;3.75999999050691;377;100 mA
72.258443817565;-0.999755859375;-0.066162109375;3.76999999048167;378;100 mA
72.2684438175397;-0.999755859375;-0.065887451171875;3.77999999045642;379;100 mA
72.2784438175145;-0.99884033203125;-0.065673828125;3.78999999043117;380;100 mA
72.2884438174892;-0.999755859375;-0.066253662109375;3.79999999040592;381;100 mA
72.298443817464;-0.999755859375;-0.06591796875;3.80999999038067;382;100 mA
72.3084438174387;-0.9991455078125;-0.06549072265625;3.81999999035543;383;100 mA
72.3184438174135;-0.999755859375;-0.066070556640625;3.82999999033018;384;100 mA
72.3284438173882;-1.00006103515625;-0.065826416015625;3.83999999030493;385;100 mA
72.338443817363;-0.99945068359375;-0.0654296875;3.84999999027968;386;100 mA
72.3484438173377;-0.999755859375;-0.0660400390625;3.85999999025444;387;100 mA
72.3584438173125;-0.999755859375;-0.065673828125;3.86999999022919;388;100 mA
72.3684438172872;-0.99884033203125;-0.065521240234375;3.87999999020394;389;100 mA
72.378443817262;-0.999755859375;-0.066009521484375;3.88999999017869;390;100 mA
72.3884438172367;-0.99945068359375;-0.065765380859375;3.89999999015345;391;100 mA
72.3984438172115;-0.9991455078125;-0.065338134765625;3.9099999901282;392;100 mA
72.4084438171863;-0.999755859375;-0.06585693359375;3.91999999010295;393;100 mA
72.418443817161;-0.99945068359375;-0.065521240234375;3.9299999900777;394;100 mA
72.4284438171358;-0.99945068359375;-0.06512451171875;3.93999999005246;395;100 mA
72.4384438171105;-0.99945068359375;-0.065460205078125;3.94999999002721;396;100 mA
72.4484438170853;-0.99945068359375;-0.06500244140625;3.95999999000196;397;100 mA
72.45844381706;-0.9991455078125;-0.064697265625;3.96999998997671;398;100 mA
72.4684438170348;-0.99945068359375;-0.06524658203125;3.97999998995147;399;100 mA
72.4784438170095;-0.99945068359375;-0.06488037109375;3.98999998992622;400;100 mA
72.4884438169843;-0.999755859375;-0.064422607421875;3.99999998990097;401;100 mA
72.498443816959;-0.99945068359375;-0.06500244140625;4.00999998987572;402;100 mA
72.5084438169338;-0.99884033203125;-0.0645751953125;4.01999998985048;403;100 mA
72.5184438169085;-0.9991455078125;-0.064453125;4.02999998982523;404;100 mA
72.5284438168833;-0.99884033203125;-0.064971923828125;4.03999998979998;405;100 mA
72.538443816858;-0.99945068359375;-0.064666748046875;4.04999998977473;406;100 mA
72.5484438168328;-0.99945068359375;-0.064178466796875;4.05999998974949;407;100 mA
72.5584438168075;-0.99945068359375;-0.064727783203125;4.06999998972424;408;100 mA
72.5684438167823;-0.999755859375;-0.064483642578125;4.07999998969899;409;100 mA
72.578443816757;-0.9991455078125;-0.064178466796875;4.08999998967374;410;100 mA
72.5884438167318;-0.9991455078125;-0.064910888671875;4.0999999896485;411;100 mA
72.5984438167065;-0.99945068359375;-0.06463623046875;4.10999998962325;412;100 mA
72.6084438166813;-0.99945068359375;-0.0643310546875;4.119999989598;413;100 mA
72.6184438166561;-0.999755859375;-0.064788818359375;4.12999998957275;414;100 mA
72.6284438166308;-0.9991455078125;-0.064483642578125;4.1399999895475;415;100 mA
72.6384438166056;-0.9991455078125;-0.063995361328125;4.14999998952226;416;100 mA
72.6484438165803;-0.99945068359375;-0.06463623046875;4.15999998949701;417;100 mA
72.6584438165551;-0.999755859375;-0.06427001953125;4.16999998947176;418;100 mA
72.6684438165298;-0.99945068359375;-0.064056396484375;4.17999998944651;419;100 mA
72.6784438165046;-0.99945068359375;-0.064605712890625;4.18999998942127;420;100 mA
72.6884438164793;-0.99945068359375;-0.06439208984375;4.19999998939602;421;100 mA
72.6984438164541;-0.9991455078125;-0.064178466796875;4.20999998937077;422;100 mA
72.7084438164288;-0.999755859375;-0.06488037109375;4.21999998934552;423;100 mA
72.7184438164036;-0.9991455078125;-0.06475830078125;4.22999998932028;424;100 mA
72.7284438163783;-0.9991455078125;-0.064361572265625;4.23999998929503;425;100 mA
72.7384438163531;-0.99945068359375;-0.064971923828125;4.24999998926978;426;100 mA
72.7484438163278;-0.99945068359375;-0.064544677734375;4.25999998924453;427;100 mA
72.7584438163026;-0.99884033203125;-0.064208984375;4.26999998921929;428;100 mA
72.7684438162773;-0.99945068359375;-0.064788818359375;4.27999998919404;429;100 mA
72.7784438162521;-0.999755859375;-0.064453125;4.28999998916879;430;100 mA
72.7884438162268;-0.99945068359375;-0.06402587890625;4.29999998914354;431;100 mA
72.7984438162016;-0.999755859375;-0.064697265625;4.3099999891183;432;100 mA
72.8084438161764;-0.99945068359375;-0.064453125;4.31999998909305;433;100 mA
72.8184438161511;-0.9991455078125;-0.064117431640625;4.3299999890678;434;100 mA
72.8284438161259;-0.99945068359375;-0.064544677734375;4.33999998904255;435;100 mA
72.8384438161006;-0.9991455078125;-0.064056396484375;4.34999998901731;436;100 mA
72.8484438160754;-0.99945068359375;-0.063629150390625;4.35999998899206;437;100 mA
72.8584438160501;-0.999755859375;-0.064056396484375;4.36999998896681;438;100 mA
72.8684438160249;-0.99945068359375;-0.063690185546875;4.37999998894156;439;100 mA
72.8784438159996;-0.999755859375;-0.0631103515625;4.38999998891632;440;100 mA
72.8884438159744;-0.99945068359375;-0.06365966796875;4.39999998889107;441;100 mA
72.8984438159491;-0.9991455078125;-0.063140869140625;4.40999998886582;442;100 mA
72.9084438159239;-0.99945068359375;-0.062774658203125;4.41999998884057;443;100 mA
72.9184438158986;-0.99945068359375;-0.0633544921875;4.42999998881533;444;100 mA
72.9284438158734;-0.99945068359375;-0.062957763671875;4.43999998879008;445;100 mA
72.9384438158481;-0.999755859375;-0.0625;4.44999998876483;446;100 mA
72.9484438158229;-0.9991455078125;-0.063140869140625;4.45999998873958;447;100 mA
72.9584438157976;-0.999755859375;-0.062896728515625;4.46999998871433;448;100 mA
72.9684438157724;-0.99945068359375;-0.062591552734375;4.47999998868909;449;100 mA
72.9784438157471;-0.9991455078125;-0.063232421875;4.48999998866384;450;100 mA
72.9884438157219;-0.999755859375;-0.062835693359375;4.49999998863859;451;100 mA
72.9984438156966;-0.99945068359375;-0.062591552734375;4.50999998861334;452;100 mA
73.0084438156714;-0.99884033203125;-0.063201904296875;4.5199999885881;453;100 mA
73.0184438156462;-0.99945068359375;-0.062957763671875;4.52999998856285;454;100 mA
73.0284438156209;-0.99945068359375;-0.062469482421875;4.5399999885376;455;100 mA
73.0384438155957;-0.99945068359375;-0.063232421875;4.54999998851235;456;100 mA
73.0484438155704;-0.99945068359375;-0.062835693359375;4.55999998848711;457;100 mA
73.0584438155452;-0.99945068359375;-0.06231689453125;4.56999998846186;458;100 mA
73.0684438155199;-0.99945068359375;-0.062744140625;4.57999998843661;459;100 mA
73.0784438154947;-0.999755859375;-0.06243896484375;4.58999998841136;460;100 mA
73.0884438154694;-0.9991455078125;-0.062225341796875;4.59999998838612;461;100 mA
73.0984438154442;-0.999755859375;-0.0631103515625;4.60999998836087;462;100 mA
73.1084438154189;-0.99945068359375;-0.0631103515625;4.61999998833562;463;100 mA
73.1184438153937;-0.9991455078125;-0.062835693359375;4.62999998831037;464;100 mA
73.1284438153684;-0.99945068359375;-0.063568115234375;4.63999998828513;465;100 mA
73.1384438153432;-0.999755859375;-0.06317138671875;4.64999998825988;466;100 mA
73.1484438153179;-0.9991455078125;-0.062896728515625;4.65999998823463;467;100 mA
73.1584438152927;-0.99945068359375;-0.063385009765625;4.66999998820938;468;100 mA
73.1684438152674;-0.999755859375;-0.06304931640625;4.67999998818414;469;100 mA
73.1784438152422;-0.99884033203125;-0.06256103515625;4.68999998815889;470;100 mA
73.1884438152169;-0.99945068359375;-0.063232421875;4.69999998813364;471;100 mA
73.1984438151917;-1.0003662109375;-0.062957763671875;4.70999998810839;472;100 mA
73.2084438151664;-0.99945068359375;-0.062530517578125;4.71999998808315;473;100 mA
73.2184438151412;-0.999755859375;-0.06317138671875;4.7299999880579;474;100 mA
73.228443815116;-0.9991455078125;-0.062774658203125;4.73999998803265;475;100 mA
73.2384438150907;-0.9991455078125;-0.062469482421875;4.7499999880074;476;100 mA
73.2484438150655;-0.99945068359375;-0.06298828125;4.75999998798216;477;100 mA
73.2584438150402;-0.99945068359375;-0.06280517578125;4.76999998795691;478;100 mA
73.268443815015;-0.999755859375;-0.062347412109375;4.77999998793166;479;100 mA
73.2784438149897;-0.999755859375;-0.06292724609375;4.78999998790641;480;100 mA
73.2884438149645;-0.99884033203125;-0.0625;4.79999998788116;481;100 mA
73.2984438149392;-0.9991455078125;-0.062286376953125;4.80999998785592;482;100 mA
73.308443814914;-0.9991455078125;-0.062744140625;4.81999998783067;483;100 mA
73.3184438148887;-0.99884033203125;-0.062469482421875;4.82999998780542;484;100 mA
73.3284438148635;-0.99945068359375;-0.062255859375;4.83999998778017;485;100 mA
73.3384438148382;-0.9991455078125;-0.063018798828125;4.84999998775493;486;100 mA
73.348443814813;-0.99945068359375;-0.063079833984375;4.85999998772968;487;100 mA
73.3584438147877;-0.99945068359375;-0.06298828125;4.86999998770443;488;100 mA
73.3684438147625;-0.99945068359375;-0.0638427734375;4.87999998767918;489;100 mA
73.3784438147372;-0.99945068359375;-0.06378173828125;4.88999998765394;490;100 mA
73.388443814712;-0.9991455078125;-0.063995361328125;4.89999998762869;491;100 mA
73.3984438146867;-0.999755859375;-0.064788818359375;4.90999998760344;492;100 mA
73.4084438146615;-0.999755859375;-0.064788818359375;4.91999998757819;493;100 mA
73.4184438146362;-0.9991455078125;-0.064605712890625;4.92999998755295;494;100 mA
73.428443814611;-0.99945068359375;-0.0653076171875;4.9399999875277;495;100 mA
73.4384438145858;-0.999755859375;-0.065093994140625;4.94999998750245;496;100 mA
73.4484438145605;-0.99945068359375;-0.064910888671875;4.9599999874772;497;100 mA
73.4584438145353;-0.99945068359375;-0.065338134765625;4.96999998745196;498;100 mA
73.46844381451;-0.99945068359375;-0.064910888671875;4.97999998742671;499;100 mA
73.4784438144848;-0.99884033203125;-0.064605712890625;4.98999998740146;500;100 mA
73.4884438144595;-0.99945068359375;-0.0650634765625;4.99999998737621;501;100 mA
73.4984438144343;-0.99945068359375;-0.06475830078125;5.00999998735097;502;100 mA
73.508443814409;-0.999755859375;-0.064300537109375;5.01999998732572;503;100 mA
73.5184438143838;-0.99884033203125;-0.06488037109375;5.02999998730047;504;100 mA
73.5284438143585;-0.999755859375;-0.064666748046875;5.03999998727522;505;100 mA
73.5384438143333;-0.99884033203125;-0.064605712890625;5.04999998724998;506;100 mA
73.548443814308;-0.99945068359375;-0.06512451171875;5.05999998722473;507;100 mA
73.5584438142828;-0.99945068359375;-0.065093994140625;5.06999998719948;508;100 mA
73.5684438142575;-0.99945068359375;-0.064971923828125;5.07999998717423;509;100 mA
73.5784438142323;-0.99945068359375;-0.065704345703125;5.08999998714899;510;100 mA
73.588443814207;-0.999755859375;-0.065673828125;5.09999998712374;511;100 mA
73.5984438141818;-0.99853515625;-0.065643310546875;5.10999998709849;512;100 mA
73.6084438141565;-0.999755859375;-0.066497802734375;5.11999998707324;513;100 mA
73.6184438141313;-0.999755859375;-0.06634521484375;5.129999987048;514;100 mA
73.628443814106;-0.9991455078125;-0.06622314453125;5.13999998702275;515;100 mA
73.6384438140808;-0.99945068359375;-0.066741943359375;5.1499999869975;516;100 mA
73.6484438140556;-0.99945068359375;-0.066558837890625;5.15999998697225;517;100 mA
73.6584438140303;-0.9991455078125;-0.066009521484375;5.169999986947;518;100 mA
73.6684438140051;-0.999755859375;-0.066558837890625;5.17999998692176;519;100 mA
73.6784438139798;-0.999755859375;-0.066192626953125;5.18999998689651;520;100 mA
73.6884438139546;-0.999755859375;-0.065765380859375;5.19999998687126;521;100 mA
73.6984438139293;-0.999755859375;-0.06610107421875;5.20999998684601;522;100 mA
73.7084438139041;-0.99945068359375;-0.065582275390625;5.21999998682077;523;100 mA
73.7184438138788;-0.9991455078125;-0.065032958984375;5.22999998679552;524;100 mA
73.7284438138536;-0.999755859375;-0.065399169921875;5.23999998677027;525;100 mA
73.7384438138283;-0.99945068359375;-0.06512451171875;5.24999998674502;526;100 mA
73.7484438138031;-0.999755859375;-0.064727783203125;5.25999998671978;527;100 mA
73.7584438137778;-0.999755859375;-0.06524658203125;5.26999998669453;528;100 mA
73.7684438137526;-0.9991455078125;-0.06500244140625;5.27999998666928;529;100 mA
73.7784438137273;-0.9991455078125;-0.064727783203125;5.28999998664403;530;100 mA
73.7884438137021;-0.99945068359375;-0.065277099609375;5.29999998661879;531;100 mA
73.7984438136768;-0.9991455078125;-0.065185546875;5.30999998659354;532;100 mA
73.8084438136516;-0.99884033203125;-0.0648193359375;5.31999998656829;533;100 mA
73.8184438136263;-1.00006103515625;-0.06549072265625;5.32999998654304;534;100 mA
73.8284438136011;-0.99945068359375;-0.065216064453125;5.3399999865178;535;100 mA
73.8384438135759;-1.00006103515625;-0.064910888671875;5.34999998649255;536;100 mA
73.8484438135506;-0.999755859375;-0.0655517578125;5.3599999864673;537;100 mA
73.8584438135254;-0.99945068359375;-0.06524658203125;5.36999998644205;538;100 mA
73.8684438135001;-0.9991455078125;-0.065032958984375;5.37999998641681;539;100 mA
73.8784438134749;-0.999755859375;-0.065582275390625;5.38999998639156;540;100 mA
73.8884438134496;-0.999755859375;-0.06549072265625;5.39999998636631;541;100 mA
73.8984438134244;-0.99945068359375;-0.0650634765625;5.40999998634106;542;100 mA
73.9084438133991;-0.99853515625;-0.0655517578125;5.41999998631582;543;100 mA
73.9184438133739;-1.00006103515625;-0.065216064453125;5.42999998629057;544;100 mA
73.9284438133486;-1.00006103515625;-0.06500244140625;5.43999998626532;545;100 mA
73.9384438133234;-0.99945068359375;-0.065338134765625;5.44999998624007;546;100 mA
73.9484438132981;-0.9991455078125;-0.064971923828125;5.45999998621483;547;100 mA
73.9584438132729;-0.99884033203125;-0.064453125;5.46999998618958;548;100 mA
73.9684438132476;-0.99945068359375;-0.064971923828125;5.47999998616433;549;100 mA
73.9784438132224;-0.99945068359375;-0.064666748046875;5.48999998613908;550;100 mA
73.9884438131971;-0.99945068359375;-0.0643310546875;5.49999998611383;551;100 mA
73.9984438131719;-0.99945068359375;-0.064971923828125;5.50999998608859;552;100 mA
74.0084438131466;-0.99945068359375;-0.064666748046875;5.51999998606334;553;100 mA
74.0184438131214;-0.99945068359375;-0.064422607421875;5.52999998603809;554;100 mA
74.0284438130961;-0.99945068359375;-0.06494140625;5.53999998601284;555;100 mA
74.0384438130709;-0.99945068359375;-0.0648193359375;5.5499999859876;556;100 mA
74.0484438130457;-0.99945068359375;-0.064453125;5.55999998596235;557;100 mA
74.0584438130204;-0.999755859375;-0.065032958984375;5.5699999859371;558;100 mA
74.0684438129952;-1.00006103515625;-0.064605712890625;5.57999998591185;559;100 mA
74.0784438129699;-0.99884033203125;-0.06427001953125;5.58999998588661;560;100 mA
74.0884438129447;-0.99945068359375;-0.064788818359375;5.59999998586136;561;100 mA
74.0984438129194;-0.99945068359375;-0.06439208984375;5.60999998583611;562;100 mA
74.1084438128942;-0.99945068359375;-0.064056396484375;5.61999998581086;563;100 mA
74.1184438128689;-0.99945068359375;-0.064788818359375;5.62999998578562;564;100 mA
74.1284438128437;-0.9991455078125;-0.06451416015625;5.63999998576037;565;100 mA
74.1384438128184;-0.99945068359375;-0.06402587890625;5.64999998573512;566;100 mA
74.1484438127932;-0.99945068359375;-0.064605712890625;5.65999998570987;567;100 mA
74.1584438127679;-0.999755859375;-0.064208984375;5.66999998568463;568;100 mA
74.1684438127427;-0.9991455078125;-0.063995361328125;5.67999998565938;569;100 mA
74.1784438127174;-0.999755859375;-0.0645751953125;5.68999998563413;570;100 mA
74.1884438126922;-0.999755859375;-0.064483642578125;5.69999998560888;571;100 mA
74.1984438126669;-0.9991455078125;-0.064239501953125;5.70999998558364;572;100 mA
74.2084438126417;-0.99945068359375;-0.06512451171875;5.71999998555839;573;100 mA
74.2184438126164;-0.99945068359375;-0.065032958984375;5.72999998553314;574;100 mA
74.2284438125912;-0.9991455078125;-0.064849853515625;5.73999998550789;575;100 mA
74.2384438125659;-0.99945068359375;-0.06561279296875;5.74999998548265;576;100 mA
74.2484438125407;-0.99945068359375;-0.065338134765625;5.7599999854574;577;100 mA
74.2584438125155;-0.9991455078125;-0.065032958984375;5.76999998543215;578;100 mA
74.2684438124902;-0.9991455078125;-0.06561279296875;5.7799999854069;579;100 mA
74.278443812465;-0.9991455078125;-0.065399169921875;5.78999998538166;580;100 mA
74.2884438124397;-0.99945068359375;-0.06488037109375;5.79999998535641;581;100 mA
74.2984438124145;-0.999755859375;-0.06549072265625;5.80999998533116;582;100 mA
74.3084438123892;-0.99945068359375;-0.065155029296875;5.81999998530591;583;100 mA
74.318443812364;-0.999755859375;-0.06500244140625;5.82999998528066;584;100 mA
74.3284438123387;-0.99884033203125;-0.0655517578125;5.83999998525542;585;100 mA
74.3384438123135;-0.99945068359375;-0.065216064453125;5.84999998523017;586;100 mA
74.3484438122882;-0.99884033203125;-0.064788818359375;5.85999998520492;587;100 mA
74.358443812263;-0.9991455078125;-0.0654296875;5.86999998517967;588;100 mA
74.3684438122377;-0.99945068359375;-0.065185546875;5.87999998515443;589;100 mA
74.3784438122125;-0.9991455078125;-0.06494140625;5.88999998512918;590;100 mA
74.3884438121872;-0.99945068359375;-0.065673828125;5.89999998510393;591;100 mA
74.398443812162;-0.99945068359375;-0.06549072265625;5.90999998507868;592;100 mA
74.4084438121367;-0.99945068359375;-0.065399169921875;5.91999998505344;593;100 mA
74.4184438121115;-0.999755859375;-0.066192626953125;5.92999998502819;594;100 mA
74.4284438120862;-0.999755859375;-0.066192626953125;5.93999998500294;595;100 mA
74.438443812061;-0.9991455078125;-0.065948486328125;5.94999998497769;596;100 mA
74.4484438120357;-0.9991455078125;-0.066802978515625;5.95999998495245;597;100 mA
74.4584438120105;-0.999755859375;-0.066680908203125;5.9699999849272;598;100 mA
74.4684438119853;-0.9991455078125;-0.066650390625;5.97999998490195;599;100 mA
74.47844381196;-1.00006103515625;-0.067291259765625;5.9899999848767;600;100 mA
74.4884438119348;-0.9991455078125;-0.06707763671875;5.99999998485146;601;100 mA
74.4984438119095;-0.9991455078125;-0.066741943359375;6.00999998482621;602;100 mA
74.5084438118843;-0.999755859375;-0.0673828125;6.01999998480096;603;100 mA
74.518443811859;-0.999755859375;-0.06707763671875;6.02999998477571;604;100 mA
74.5284438118338;-0.9991455078125;-0.06658935546875;6.03999998475047;605;100 mA
74.5384438118085;-0.9991455078125;-0.067169189453125;6.04999998472522;606;100 mA
74.5484438117833;-0.99945068359375;-0.06671142578125;6.05999998469997;607;100 mA
74.558443811758;-0.9991455078125;-0.06646728515625;6.06999998467472;608;100 mA
74.5684438117328;-0.9991455078125;-0.06689453125;6.07999998464948;609;100 mA
74.5784438117075;-0.99945068359375;-0.066650390625;6.08999998462423;610;100 mA
74.5884438116823;-0.9991455078125;-0.06622314453125;6.09999998459898;611;100 mA
74.598443811657;-0.99945068359375;-0.066864013671875;6.10999998457373;612;100 mA
74.6084438116318;-0.99945068359375;-0.066497802734375;6.11999998454849;613;100 mA
74.6184438116065;-0.999755859375;-0.0662841796875;6.12999998452324;614;100 mA
74.6284438115813;-0.99945068359375;-0.06689453125;6.13999998449799;615;100 mA
74.638443811556;-0.99945068359375;-0.066558837890625;6.14999998447274;616;100 mA
74.6484438115308;-0.99945068359375;-0.0662841796875;6.1599999844475;617;100 mA
74.6584438115055;-0.99945068359375;-0.066925048828125;6.16999998442225;618;100 mA
74.6684438114803;-0.9991455078125;-0.066650390625;6.179999984397;619;100 mA
74.6784438114551;-0.999755859375;-0.06622314453125;6.18999998437175;620;100 mA
74.6884438114298;-0.999755859375;-0.06683349609375;6.1999999843465;621;100 mA
74.6984438114046;-0.9991455078125;-0.066436767578125;6.20999998432126;622;100 mA
74.7084438113793;-0.9991455078125;-0.066131591796875;6.21999998429601;623;100 mA
74.7184438113541;-0.999755859375;-0.066497802734375;6.22999998427076;624;100 mA
74.7284438113288;-0.9991455078125;-0.066162109375;6.23999998424551;625;100 mA
74.7384438113036;-0.9991455078125;-0.06561279296875;6.24999998422027;626;100 mA
74.7484438112783;-0.999755859375;-0.06622314453125;6.25999998419502;627;100 mA
74.7584438112531;-0.99945068359375;-0.06585693359375;6.26999998416977;628;100 mA
74.7684438112278;-0.99945068359375;-0.06536865234375;6.27999998414452;629;100 mA
74.7784438112026;-0.99945068359375;-0.06573486328125;6.28999998411928;630;100 mA
74.7884438111773;-0.999755859375;-0.065155029296875;6.29999998409403;631;100 mA
74.7984438111521;-0.9991455078125;-0.064727783203125;6.30999998406878;632;100 mA
74.8084438111268;-0.99945068359375;-0.065155029296875;6.31999998404353;633;100 mA
74.8184438111016;-0.99945068359375;-0.0648193359375;6.32999998401829;634;100 mA
74.8284438110763;-0.9991455078125;-0.064239501953125;6.33999998399304;635;100 mA
74.8384438110511;-0.99945068359375;-0.064849853515625;6.34999998396779;636;100 mA
74.8484438110258;-0.99945068359375;-0.064544677734375;6.35999998394254;637;100 mA
74.8584438110006;-0.99945068359375;-0.0643310546875;6.3699999839173;638;100 mA
74.8684438109754;-0.99884033203125;-0.0648193359375;6.37999998389205;639;100 mA
74.8784438109501;-0.99945068359375;-0.064544677734375;6.3899999838668;640;100 mA
74.8884438109249;-0.9991455078125;-0.064239501953125;6.39999998384155;641;100 mA
74.8984438108996;-0.999755859375;-0.064910888671875;6.40999998381631;642;100 mA
74.9084438108744;-0.999755859375;-0.064697265625;6.41999998379106;643;100 mA
74.9184438108491;-0.999755859375;-0.064361572265625;6.42999998376581;644;100 mA
74.9284438108239;-0.99945068359375;-0.0650634765625;6.43999998374056;645;100 mA
74.9384438107986;-0.999755859375;-0.064697265625;6.44999998371532;646;100 mA
74.9484438107734;-0.99945068359375;-0.064544677734375;6.45999998369007;647;100 mA
74.9584438107481;-0.99945068359375;-0.06512451171875;6.46999998366482;648;100 mA
74.9684438107229;-1.00006103515625;-0.064910888671875;6.47999998363957;649;100 mA
74.9784438106976;-0.999755859375;-0.064453125;6.48999998361433;650;100 mA
74.9884438106724;-0.99945068359375;-0.065093994140625;6.49999998358908;651;100 mA
74.9984438106471;-0.999755859375;-0.064666748046875;6.50999998356383;652;100 mA
75.0084438106219;-0.99945068359375;-0.06427001953125;6.51999998353858;653;100 mA
75.0184438105966;-0.99945068359375;-0.0648193359375;6.52999998351333;654;100 mA
75.0284438105714;-0.99945068359375;-0.064544677734375;6.53999998348809;655;100 mA
75.0384438105461;-0.9991455078125;-0.0643310546875;6.54999998346284;656;100 mA
75.0484438105209;-0.99945068359375;-0.06512451171875;6.55999998343759;657;100 mA
75.0584438104956;-0.9991455078125;-0.0650634765625;6.56999998341234;658;100 mA
75.0684438104704;-0.99884033203125;-0.064727783203125;6.5799999833871;659;100 mA
75.0784438104452;-0.999755859375;-0.0653076171875;6.58999998336185;660;100 mA
75.0884438104199;-0.99884033203125;-0.064971923828125;6.5999999833366;661;100 mA
75.0984438103947;-0.9991455078125;-0.0648193359375;6.60999998331135;662;100 mA
75.1084438103694;-0.99945068359375;-0.065277099609375;6.61999998328611;663;100 mA
75.1184438103442;-0.99945068359375;-0.065032958984375;6.62999998326086;664;100 mA
75.1284438103189;-0.999755859375;-0.064727783203125;6.63999998323561;665;100 mA
75.1384438102937;-0.99945068359375;-0.06536865234375;6.64999998321036;666;100 mA
75.1484438102684;-1.00006103515625;-0.06512451171875;6.65999998318512;667;100 mA
75.1584438102432;-0.99945068359375;-0.064788818359375;6.66999998315987;668;100 mA
75.1684438102179;-0.999755859375;-0.06549072265625;6.67999998313462;669;100 mA
75.1784438101927;-0.99945068359375;-0.065216064453125;6.68999998310937;670;100 mA
75.1884438101674;-0.99884033203125;-0.06500244140625;6.69999998308413;671;100 mA
75.1984438101422;-0.9991455078125;-0.0654296875;6.70999998305888;672;100 mA
75.2084438101169;-0.99945068359375;-0.06512451171875;6.71999998303363;673;100 mA
75.2184438100917;-0.9991455078125;-0.064483642578125;6.72999998300838;674;100 mA
75.2284438100664;-0.99945068359375;-0.06500244140625;6.73999998298314;675;100 mA
75.2384438100412;-0.99945068359375;-0.064666748046875;6.74999998295789;676;100 mA
75.2484438100159;-0.9991455078125;-0.06439208984375;6.75999998293264;677;100 mA
75.2584438099907;-0.9991455078125;-0.064727783203125;6.76999998290739;678;100 mA
75.2684438099654;-0.9991455078125;-0.0643310546875;6.77999998288215;679;100 mA
75.2784438099402;-0.99884033203125;-0.0638427734375;6.7899999828569;680;100 mA
75.288443809915;-0.99945068359375;-0.064483642578125;6.79999998283165;681;100 mA
75.2984438098897;-0.99945068359375;-0.064300537109375;6.8099999828064;682;100 mA
75.3084438098645;-0.99884033203125;-0.063995361328125;6.81999998278116;683;100 mA
75.3184438098392;-0.999755859375;-0.06463623046875;6.82999998275591;684;100 mA
75.328443809814;-0.999755859375;-0.06439208984375;6.83999998273066;685;100 mA
75.3384438097887;-0.99945068359375;-0.06427001953125;6.84999998270541;686;100 mA
75.3484438097635;-0.999755859375;-0.064788818359375;6.85999998268016;687;100 mA
75.3584438097382;-1.00006103515625;-0.064666748046875;6.86999998265492;688;100 mA
75.368443809713;-0.99945068359375;-0.06427001953125;6.87999998262967;689;100 mA
75.3784438096877;-0.99945068359375;-0.0648193359375;6.88999998260442;690;100 mA
75.3884438096625;-0.99945068359375;-0.0643310546875;6.89999998257917;691;100 mA
75.3984438096372;-1.00006103515625;-0.063995361328125;6.90999998255393;692;100 mA
75.408443809612;-0.9991455078125;-0.06439208984375;6.91999998252868;693;100 mA
75.4184438095867;-0.99945068359375;-0.064056396484375;6.92999998250343;694;100 mA
75.4284438095615;-0.9991455078125;-0.063812255859375;6.93999998247818;695;100 mA
75.4384438095362;-0.99945068359375;-0.064483642578125;6.94999998245294;696;100 mA
75.448443809511;-0.9991455078125;-0.064422607421875;6.95999998242769;697;100 mA
75.4584438094857;-0.999755859375;-0.06414794921875;6.96999998240244;698;100 mA
75.4684438094605;-0.999755859375;-0.064971923828125;6.97999998237719;699;100 mA
75.4784438094352;-0.9991455078125;-0.0648193359375;6.98999998235195;700;100 mA
