Time (s);WE(1).Potential (V);WE(1).Current (A);Corrected time (s);Index;Current range
2.39526199395254;0.399688720703125;0.0119415283203125;0;1;100 mA
2.4052619939273;0.399688720703125;0.0084869384765625;0.00999999997475243;2;100 mA
2.41526199390205;0.39959716796875;0.00687255859375;0.0199999999495049;3;100 mA
2.4252619938768;0.399688720703125;0.005908203125;0.0299999999242573;4;100 mA
2.43526199385155;0.399658203125;0.00523681640625;0.0399999998990097;5;100 mA
2.44526199382631;0.39971923828125;0.00473388671875;0.0499999998737621;6;100 mA
2.45526199380106;0.399810791015625;0.0043682861328125;0.0599999998485146;7;100 mA
2.46526199377581;0.3997802734375;0.0040728759765625;0.069999999823267;8;100 mA
2.47526199375056;0.399810791015625;0.0038214111328125;0.0799999997980194;9;100 mA
2.48526199372532;0.3997802734375;0.003592529296875;0.0899999997727718;10;100 mA
2.49526199370007;0.39984130859375;0.00340789794921875;0.0999999997475243;11;100 mA
2.50526199367482;0.3997802734375;0.00325927734375;0.109999999722277;12;100 mA
2.51526199364957;0.399810791015625;0.003134765625;0.119999999697029;13;100 mA
2.52526199362433;0.3997802734375;0.00302032470703125;0.129999999671782;14;100 mA
2.53526199359908;0.399810791015625;0.00292572021484375;0.139999999646534;15;100 mA
2.54526199357383;0.3997802734375;0.00285186767578125;0.149999999621286;16;100 mA
2.55526199354858;0.399749755859375;0.00276519775390625;0.159999999596039;17;100 mA
2.56526199352334;0.39971923828125;0.0026837158203125;0.169999999570791;18;100 mA
2.57526199349809;0.39984130859375;0.0026165771484375;0.179999999545544;19;100 mA
2.58526199347284;0.3997802734375;0.00255706787109375;0.189999999520296;20;100 mA
2.59526199344759;0.3997802734375;0.0025042724609375;0.199999999495049;21;100 mA
2.60526199342235;0.3997802734375;0.00245697021484375;0.209999999469801;22;100 mA
2.6152619933971;0.399749755859375;0.00241302490234375;0.219999999444553;23;100 mA
2.62526199337185;0.3997802734375;0.00237945556640625;0.229999999419306;24;100 mA
2.6352619933466;0.3997802734375;0.00232818603515625;0.239999999394058;25;100 mA
2.64526199332136;0.399749755859375;0.00227752685546875;0.249999999368811;26;100 mA
2.65526199329611;0.399749755859375;0.00223968505859375;0.259999999343563;27;100 mA
2.66526199327086;0.3997802734375;0.00221466064453125;0.269999999318316;28;100 mA
2.67526199324561;0.399749755859375;0.00218475341796875;0.279999999293068;29;100 mA
2.68526199322037;0.39971923828125;0.00216033935546875;0.28999999926782;30;100 mA
2.69526199319512;0.3997802734375;0.00214752197265625;0.299999999242573;31;100 mA
2.70526199316987;0.3997802734375;0.002127685546875;0.309999999217325;32;100 mA
2.71526199314462;0.3997802734375;0.00210205078125;0.319999999192078;33;100 mA
2.72526199311937;0.3997802734375;0.0020697021484375;0.32999999916683;34;100 mA
2.73526199309413;0.39971923828125;0.00204620361328125;0.339999999141583;35;100 mA
2.74526199306888;0.3997802734375;0.00203399658203125;0.349999999116335;36;100 mA
2.75526199304363;0.399749755859375;0.00203033447265625;0.359999999091087;37;100 mA
2.76526199301838;0.3997802734375;0.0020123291015625;0.36999999906584;38;100 mA
2.77526199299314;0.39971923828125;0.00201446533203125;0.379999999040592;39;100 mA
2.78526199296789;0.3997802734375;0.0019989013671875;0.389999999015345;40;100 mA
2.79526199294264;0.3997802734375;0.0019879150390625;0.399999998990097;41;100 mA
2.80526199291739;0.399688720703125;0.00195709228515625;0.40999999896485;42;100 mA
2.81526199289215;0.399810791015625;0.00194610595703125;0.419999998939602;43;100 mA
2.8252619928669;0.399810791015625;0.0019366455078125;0.429999998914354;44;100 mA
2.83526199284165;0.39971923828125;0.00193511962890625;0.439999998889107;45;100 mA
2.8452619928164;0.3997802734375;0.0019219970703125;0.449999998863859;46;100 mA
2.85526199279116;0.399688720703125;0.0019219970703125;0.459999998838612;47;100 mA
2.86526199276591;0.39971923828125;0.0019158935546875;0.469999998813364;48;100 mA
2.87526199274066;0.3997802734375;0.0019049072265625;0.479999998788116;49;100 mA
2.88526199271541;0.399749755859375;0.00188385009765625;0.489999998762869;50;100 mA
2.89526199269017;0.3997802734375;0.00187469482421875;0.499999998737621;51;100 mA
2.90526199266492;0.399749755859375;0.00187774658203125;0.509999998712374;52;100 mA
2.91526199263967;0.399749755859375;0.001866455078125;0.519999998687126;53;100 mA
2.92526199261442;0.399749755859375;0.00185638427734375;0.529999998661879;54;100 mA
2.93526199258918;0.399749755859375;0.0018548583984375;0.539999998636631;55;100 mA
2.94526199256393;0.3997802734375;0.00186065673828125;0.549999998611383;56;100 mA
2.95526199253868;0.399688720703125;0.0018524169921875;0.559999998586136;57;100 mA
2.96526199251343;0.3997802734375;0.00183013916015625;0.569999998560888;58;100 mA
2.97526199248819;0.39971923828125;0.00182373046875;0.579999998535641;59;100 mA
2.98526199246294;0.3997802734375;0.00181854248046875;0.589999998510393;60;100 mA
2.99526199243769;0.399810791015625;0.00181549072265625;0.599999998485146;61;100 mA
3.00526199241244;0.399749755859375;0.00180938720703125;0.609999998459898;62;100 mA
3.0152619923872;0.39971923828125;0.00180450439453125;0.61999999843465;63;100 mA
3.02526199236195;0.399749755859375;0.00179901123046875;0.629999998409403;64;100 mA
3.0352619923367;0.3997802734375;0.001785888671875;0.639999998384155;65;100 mA
3.04526199231145;0.399749755859375;0.00176483154296875;0.649999998358908;66;100 mA
3.0552619922862;0.3997802734375;0.00175994873046875;0.65999999833366;67;100 mA
3.06526199226096;0.3997802734375;0.00175323486328125;0.669999998308413;68;100 mA
3.07526199223571;0.39971923828125;0.0017498779296875;0.679999998283165;69;100 mA
3.08526199221046;0.39971923828125;0.00174468994140625;0.689999998257917;70;100 mA
3.09526199218521;0.39971923828125;0.00175018310546875;0.69999999823267;71;100 mA
3.10526199215997;0.399810791015625;0.00174652099609375;0.709999998207422;72;100 mA
3.11526199213472;0.3997802734375;0.001737060546875;0.719999998182175;73;100 mA
3.12526199210947;0.399749755859375;0.001719970703125;0.729999998156927;74;100 mA
3.13526199208422;0.3997802734375;0.0017132568359375;0.73999999813168;75;100 mA
3.14526199205898;0.3997802734375;0.00171630859375;0.749999998106432;76;100 mA
3.15526199203373;0.399810791015625;0.0017242431640625;0.759999998081184;77;100 mA
3.16526199200848;0.399810791015625;0.0017138671875;0.769999998055937;78;100 mA
3.17526199198323;0.399749755859375;0.001722412109375;0.779999998030689;79;100 mA
3.18526199195799;0.3997802734375;0.001715087890625;0.789999998005442;80;100 mA
3.19526199193274;0.39971923828125;0.0017156982421875;0.799999997980194;81;100 mA
3.20526199190749;0.3997802734375;0.00169586181640625;0.809999997954947;82;100 mA
3.21526199188224;0.39971923828125;0.00169464111328125;0.819999997929699;83;100 mA
3.225261991857;0.3997802734375;0.00169403076171875;0.829999997904451;84;100 mA
3.23526199183175;0.399749755859375;0.00169921875;0.839999997879204;85;100 mA
3.2452619918065;0.3997802734375;0.0016937255859375;0.849999997853956;86;100 mA
3.25526199178125;0.3997802734375;0.00170074462890625;0.859999997828709;87;100 mA
3.26526199175601;0.39984130859375;0.001700439453125;0.869999997803461;88;100 mA
3.27526199173076;0.399810791015625;0.0016949462890625;0.879999997778214;89;100 mA
3.28526199170551;0.3997802734375;0.0016815185546875;0.889999997752966;90;100 mA
3.29526199168026;0.399749755859375;0.0016778564453125;0.899999997727718;91;100 mA
3.30526199165502;0.3997802734375;0.0016827392578125;0.909999997702471;92;100 mA
3.31526199162977;0.3997802734375;0.00168670654296875;0.919999997677223;93;100 mA
3.32526199160452;0.399749755859375;0.001685791015625;0.929999997651976;94;100 mA
3.33526199157927;0.3997802734375;0.00168853759765625;0.939999997626728;95;100 mA
3.34526199155403;0.3997802734375;0.001700439453125;0.949999997601481;96;100 mA
3.35526199152878;0.39971923828125;0.001693115234375;0.959999997576233;97;100 mA
3.36526199150353;0.3997802734375;0.00167388916015625;0.969999997550985;98;100 mA
3.37526199147828;0.399749755859375;0.00166473388671875;0.979999997525738;99;100 mA
3.38526199145304;0.39971923828125;0.0016619873046875;0.98999999750049;100;100 mA
3.39526199142779;0.3997802734375;0.0016650390625;0.999999997475243;101;100 mA
3.40526199140254;0.39971923828125;0.0016668701171875;1.00999999745;102;100 mA
3.41526199137729;0.399749755859375;0.0016668701171875;1.01999999742475;103;100 mA
3.42526199135204;0.3997802734375;0.001669921875;1.0299999973995;104;100 mA
3.4352619913268;0.399749755859375;0.00166351318359375;1.03999999737425;105;100 mA
3.44526199130155;0.3997802734375;0.00165069580078125;1.049999997349;106;100 mA
3.4552619912763;0.399749755859375;0.00165252685546875;1.05999999732376;107;100 mA
3.46526199125105;0.39971923828125;0.0016546630859375;1.06999999729851;108;100 mA
3.47526199122581;0.3997802734375;0.001658935546875;1.07999999727326;109;100 mA
3.48526199120056;0.3997802734375;0.00165771484375;1.08999999724801;110;100 mA
3.49526199117531;0.39984130859375;0.0016748046875;1.09999999722277;111;100 mA
3.50526199115006;0.39971923828125;0.0016748046875;1.10999999719752;112;100 mA
3.51526199112482;0.3997802734375;0.00167510986328125;1.11999999717227;113;100 mA
3.52526199109957;0.399810791015625;0.001661376953125;1.12999999714702;114;100 mA
3.53526199107432;0.399810791015625;0.00165924072265625;1.13999999712178;115;100 mA
3.54526199104907;0.3997802734375;0.00166412353515625;1.14999999709653;116;100 mA
3.55526199102383;0.3997802734375;0.00167816162109375;1.15999999707128;117;100 mA
3.56526199099858;0.399749755859375;0.00167266845703125;1.16999999704603;118;100 mA
3.57526199097333;0.399749755859375;0.00168487548828125;1.17999999702079;119;100 mA
3.58526199094808;0.399810791015625;0.00168304443359375;1.18999999699554;120;100 mA
3.59526199092284;0.399749755859375;0.00168487548828125;1.19999999697029;121;100 mA
3.60526199089759;0.399749755859375;0.001668701171875;1.20999999694504;122;100 mA
3.61526199087234;0.399749755859375;0.00166656494140625;1.2199999969198;123;100 mA
3.62526199084709;0.399749755859375;0.00166259765625;1.22999999689455;124;100 mA
3.63526199082185;0.3997802734375;0.00167022705078125;1.2399999968693;125;100 mA
3.6452619907966;0.39971923828125;0.00166900634765625;1.24999999684405;126;100 mA
3.65526199077135;0.399749755859375;0.00168121337890625;1.25999999681881;127;100 mA
3.6652619907461;0.39971923828125;0.0016876220703125;1.26999999679356;128;100 mA
3.67526199072086;0.3997802734375;0.0016796875;1.27999999676831;129;100 mA
3.68526199069561;0.39971923828125;0.00166412353515625;1.28999999674306;130;100 mA
3.69526199067036;0.39971923828125;0.00165863037109375;1.29999999671782;131;100 mA
3.70526199064511;0.3997802734375;0.0016583251953125;1.30999999669257;132;100 mA
3.71526199061987;0.399810791015625;0.00165802001953125;1.31999999666732;133;100 mA
3.72526199059462;0.3997802734375;0.0016534423828125;1.32999999664207;134;100 mA
3.73526199056937;0.399749755859375;0.00165435791015625;1.33999999661683;135;100 mA
3.74526199054412;0.3997802734375;0.00166046142578125;1.34999999659158;136;100 mA
3.75526199051887;0.39971923828125;0.001654052734375;1.35999999656633;137;100 mA
3.76526199049363;0.399810791015625;0.00163818359375;1.36999999654108;138;100 mA
3.77526199046838;0.399688720703125;0.00163116455078125;1.37999999651583;139;100 mA
3.78526199044313;0.399749755859375;0.00162689208984375;1.38999999649059;140;100 mA
3.79526199041788;0.3997802734375;0.0016290283203125;1.39999999646534;141;100 mA
3.80526199039264;0.3997802734375;0.00162872314453125;1.40999999644009;142;100 mA
3.81526199036739;0.399749755859375;0.00163238525390625;1.41999999641484;143;100 mA
3.82526199034214;0.399810791015625;0.0016326904296875;1.4299999963896;144;100 mA
3.83526199031689;0.39984130859375;0.001629638671875;1.43999999636435;145;100 mA
3.84526199029165;0.3997802734375;0.0016168212890625;1.4499999963391;146;100 mA
3.8552619902664;0.399749755859375;0.00161773681640625;1.45999999631385;147;100 mA
3.86526199024115;0.3997802734375;0.0016162109375;1.46999999628861;148;100 mA
3.8752619902159;0.3997802734375;0.00162139892578125;1.47999999626336;149;100 mA
3.88526199019066;0.399749755859375;0.00161956787109375;1.48999999623811;150;100 mA
3.89526199016541;0.399749755859375;0.00163360595703125;1.49999999621286;151;100 mA
3.90526199014016;0.3997802734375;0.00162994384765625;1.50999999618762;152;100 mA
3.91526199011491;0.3997802734375;0.00163421630859375;1.51999999616237;153;100 mA
3.92526199008967;0.3997802734375;0.001619873046875;1.52999999613712;154;100 mA
3.93526199006442;0.399749755859375;0.001614990234375;1.53999999611187;155;100 mA
3.94526199003917;0.39971923828125;0.0016180419921875;1.54999999608663;156;100 mA
3.95526199001392;0.3997802734375;0.001629638671875;1.55999999606138;157;100 mA
3.96526198998868;0.399749755859375;0.00162109375;1.56999999603613;158;100 mA
3.97526198996343;0.399749755859375;0.00163330078125;1.57999999601088;159;100 mA
3.98526198993818;0.3997802734375;0.00162841796875;1.58999999598564;160;100 mA
3.99526198991293;0.399688720703125;0.0016302490234375;1.59999999596039;161;100 mA
4.00526198988769;0.3997802734375;0.00161224365234375;1.60999999593514;162;100 mA
4.01526198986244;0.399749755859375;0.00161163330078125;1.61999999590989;163;100 mA
4.02526198983719;0.3997802734375;0.00160614013671875;1.62999999588465;164;100 mA
4.03526198981194;0.399688720703125;0.0016119384765625;1.6399999958594;165;100 mA
4.0452619897867;0.399749755859375;0.00160736083984375;1.64999999583415;166;100 mA
4.05526198976145;0.399810791015625;0.00161346435546875;1.6599999958089;167;100 mA
4.0652619897362;0.3997802734375;0.00161468505859375;1.66999999578366;168;100 mA
4.07526198971095;0.3997802734375;0.0016107177734375;1.67999999575841;169;100 mA
4.0852619896857;0.399749755859375;0.0015960693359375;1.68999999573316;170;100 mA
4.09526198966046;0.399749755859375;0.00159393310546875;1.69999999570791;171;100 mA
4.10526198963521;0.3997802734375;0.001593017578125;1.70999999568267;172;100 mA
4.11526198960996;0.39971923828125;0.00159423828125;1.71999999565742;173;100 mA
4.12526198958471;0.399688720703125;0.00159088134765625;1.72999999563217;174;100 mA
4.13526198955947;0.3997802734375;0.00159576416015625;1.73999999560692;175;100 mA
4.14526198953422;0.3997802734375;0.001602783203125;1.74999999558167;176;100 mA
4.15526198950897;0.399810791015625;0.00159698486328125;1.75999999555643;177;100 mA
4.16526198948372;0.399810791015625;0.00157806396484375;1.76999999553118;178;100 mA
4.17526198945848;0.399749755859375;0.00157379150390625;1.77999999550593;179;100 mA
4.18526198943323;0.3997802734375;0.00157196044921875;1.78999999548068;180;100 mA
4.19526198940798;0.399749755859375;0.00157928466796875;1.79999999545544;181;100 mA
4.20526198938273;0.3997802734375;0.00157928466796875;1.80999999543019;182;100 mA
4.21526198935749;0.39971923828125;0.001585693359375;1.81999999540494;183;100 mA
4.22526198933224;0.39971923828125;0.00158416748046875;1.82999999537969;184;100 mA
4.23526198930699;0.3997802734375;0.00157989501953125;1.83999999535445;185;100 mA
4.24526198928174;0.399749755859375;0.0015673828125;1.8499999953292;186;100 mA
4.2552619892565;0.3997802734375;0.00156707763671875;1.85999999530395;187;100 mA
4.26526198923125;0.3997802734375;0.0015673828125;1.8699999952787;188;100 mA
4.275261989206;0.3997802734375;0.001575927734375;1.87999999525346;189;100 mA
4.28526198918075;0.39971923828125;0.00157501220703125;1.88999999522821;190;100 mA
4.29526198915551;0.399749755859375;0.001593017578125;1.89999999520296;191;100 mA
4.30526198913026;0.399749755859375;0.0015869140625;1.90999999517771;192;100 mA
4.31526198910501;0.3997802734375;0.00158843994140625;1.91999999515247;193;100 mA
4.32526198907976;0.399749755859375;0.00157501220703125;1.92999999512722;194;100 mA
4.33526198905452;0.3997802734375;0.0015728759765625;1.93999999510197;195;100 mA
4.34526198902927;0.39971923828125;0.001580810546875;1.94999999507672;196;100 mA
4.35526198900402;0.399749755859375;0.00159423828125;1.95999999505148;197;100 mA
4.36526198897877;0.3997802734375;0.00158721923828125;1.96999999502623;198;100 mA
4.37526198895353;0.399810791015625;0.00159820556640625;1.97999999500098;199;100 mA
4.38526198892828;0.3997802734375;0.00159515380859375;1.98999999497573;200;100 mA
4.39526198890303;0.399749755859375;0.001593017578125;1.99999999495049;201;100 mA
4.40526198887778;0.3997802734375;0.00157745361328125;2.00999999492524;202;100 mA
4.41526198885254;0.39971923828125;0.0015716552734375;2.01999999489999;203;100 mA
4.42526198882729;0.3997802734375;0.001566162109375;2.02999999487474;204;100 mA
4.43526198880204;0.399749755859375;0.00157318115234375;2.0399999948495;205;100 mA
4.44526198877679;0.39984130859375;0.001572265625;2.04999999482425;206;100 mA
4.45526198875154;0.399810791015625;0.001580810546875;2.059999994799;207;100 mA
4.4652619887263;0.399810791015625;0.0015869140625;2.06999999477375;208;100 mA
4.47526198870105;0.39971923828125;0.0015802001953125;2.0799999947485;209;100 mA
4.4852619886758;0.399749755859375;0.00156890869140625;2.08999999472326;210;100 mA
4.49526198865055;0.399810791015625;0.00156463623046875;2.09999999469801;211;100 mA
4.50526198862531;0.3997802734375;0.0015631103515625;2.10999999467276;212;100 mA
4.51526198860006;0.399749755859375;0.00156097412109375;2.11999999464751;213;100 mA
4.52526198857481;0.399749755859375;0.00156005859375;2.12999999462227;214;100 mA
4.53526198854956;0.39971923828125;0.00156494140625;2.13999999459702;215;100 mA
4.54526198852432;0.3997802734375;0.0015716552734375;2.14999999457177;216;100 mA
4.55526198849907;0.3997802734375;0.0015679931640625;2.15999999454652;217;100 mA
4.56526198847382;0.3997802734375;0.001553955078125;2.16999999452128;218;100 mA
4.57526198844857;0.399749755859375;0.0015509033203125;2.17999999449603;219;100 mA
4.58526198842333;0.3997802734375;0.00155364990234375;2.18999999447078;220;100 mA
4.59526198839808;0.3997802734375;0.00156158447265625;2.19999999444553;221;100 mA
4.60526198837283;0.3997802734375;0.001561279296875;2.20999999442029;222;100 mA
4.61526198834758;0.399810791015625;0.0015692138671875;2.21999999439504;223;100 mA
4.62526198832234;0.399749755859375;0.0015692138671875;2.22999999436979;224;100 mA
4.63526198829709;0.3997802734375;0.00157135009765625;2.23999999434454;225;100 mA
4.64526198827184;0.3997802734375;0.001558837890625;2.2499999943193;226;100 mA
4.65526198824659;0.399749755859375;0.0015618896484375;2.25999999429405;227;100 mA
4.66526198822135;0.39971923828125;0.0015618896484375;2.2699999942688;228;100 mA
4.6752619881961;0.399688720703125;0.00157073974609375;2.27999999424355;229;100 mA
4.68526198817085;0.399749755859375;0.00156646728515625;2.28999999421831;230;100 mA
4.6952619881456;0.3997802734375;0.00158111572265625;2.29999999419306;231;100 mA
4.70526198812036;0.3997802734375;0.00157379150390625;2.30999999416781;232;100 mA
4.71526198809511;0.3997802734375;0.0015777587890625;2.31999999414256;233;100 mA
4.72526198806986;0.399749755859375;0.00156402587890625;2.32999999411732;234;100 mA
4.73526198804461;0.399749755859375;0.00156097412109375;2.33999999409207;235;100 mA
4.74526198801937;0.3997802734375;0.00156402587890625;2.34999999406682;236;100 mA
4.75526198799412;0.39971923828125;0.00157684326171875;2.35999999404157;237;100 mA
4.76526198796887;0.3997802734375;0.0015716552734375;2.36999999401633;238;100 mA
4.77526198794362;0.399749755859375;0.0015838623046875;2.37999999399108;239;100 mA
4.78526198791837;0.3997802734375;0.00158447265625;2.38999999396583;240;100 mA
4.79526198789313;0.399810791015625;0.0015875244140625;2.39999999394058;241;100 mA
4.80526198786788;0.39971923828125;0.001575927734375;2.40999999391533;242;100 mA
4.81526198784263;0.399749755859375;0.00157501220703125;2.41999999389009;243;100 mA
4.82526198781738;0.39971923828125;0.001571044921875;2.42999999386484;244;100 mA
4.83526198779214;0.39971923828125;0.001578369140625;2.43999999383959;245;100 mA
4.84526198776689;0.399810791015625;0.001575927734375;2.44999999381434;246;100 mA
4.85526198774164;0.399749755859375;0.001585693359375;2.4599999937891;247;100 mA
4.86526198771639;0.3997802734375;0.00159027099609375;2.46999999376385;248;100 mA
4.87526198769115;0.39971923828125;0.00158905029296875;2.4799999937386;249;100 mA
4.8852619876659;0.399810791015625;0.00157867431640625;2.48999999371335;250;100 mA
4.89526198764065;0.39971923828125;0.00157745361328125;2.49999999368811;251;100 mA
4.9052619876154;0.39971923828125;0.00158203125;2.50999999366286;252;100 mA
4.91526198759016;0.399749755859375;0.001583251953125;2.51999999363761;253;100 mA
4.92526198756491;0.39971923828125;0.001585693359375;2.52999999361236;254;100 mA
4.93526198753966;0.399810791015625;0.0015911865234375;2.53999999358712;255;100 mA
4.94526198751441;0.399749755859375;0.00160247802734375;2.54999999356187;256;100 mA
4.95526198748917;0.399749755859375;0.00160308837890625;2.55999999353662;257;100 mA
4.96526198746392;0.399810791015625;0.00158782958984375;2.56999999351137;258;100 mA
4.97526198743867;0.399749755859375;0.00158447265625;2.57999999348613;259;100 mA
4.98526198741342;0.399810791015625;0.00158447265625;2.58999999346088;260;100 mA
4.99526198738818;0.399749755859375;0.00158660888671875;2.59999999343563;261;100 mA
5.00526198736293;0.39984130859375;0.00158203125;2.60999999341038;262;100 mA
5.01526198733768;0.39971923828125;0.001585693359375;2.61999999338514;263;100 mA
5.02526198731243;0.399749755859375;0.0015753173828125;2.62999999335989;264;100 mA
5.03526198728719;0.399749755859375;0.00157073974609375;2.63999999333464;265;100 mA
5.04526198726194;0.399810791015625;0.0015545654296875;2.64999999330939;266;100 mA
5.05526198723669;0.399749755859375;0.0015557861328125;2.65999999328415;267;100 mA
5.06526198721144;0.399749755859375;0.00155609130859375;2.6699999932589;268;100 mA
5.0752619871862;0.399749755859375;0.00156768798828125;2.67999999323365;269;100 mA
5.08526198716095;0.39971923828125;0.0015673828125;2.6899999932084;270;100 mA
5.0952619871357;0.399749755859375;0.0015863037109375;2.69999999318316;271;100 mA
5.10526198711045;0.3997802734375;0.00158050537109375;2.70999999315791;272;100 mA
5.1152619870852;0.399688720703125;0.00158416748046875;2.71999999313266;273;100 mA
5.12526198705996;0.3997802734375;0.0015716552734375;2.72999999310741;274;100 mA
5.13526198703471;0.3997802734375;0.001568603515625;2.73999999308217;275;100 mA
5.14526198700946;0.399749755859375;0.00157135009765625;2.74999999305692;276;100 mA
5.15526198698421;0.399749755859375;0.00158355712890625;2.75999999303167;277;100 mA
5.16526198695897;0.3997802734375;0.0015789794921875;2.76999999300642;278;100 mA
5.17526198693372;0.3997802734375;0.001591796875;2.77999999298117;279;100 mA
5.18526198690847;0.3997802734375;0.0015899658203125;2.78999999295593;280;100 mA
5.19526198688322;0.3997802734375;0.0015936279296875;2.79999999293068;281;100 mA
5.20526198685798;0.3997802734375;0.00158050537109375;2.80999999290543;282;100 mA
5.21526198683273;0.399810791015625;0.0015753173828125;2.81999999288018;283;100 mA
5.22526198680748;0.3997802734375;0.0015740966796875;2.82999999285494;284;100 mA
5.23526198678223;0.3997802734375;0.00157684326171875;2.83999999282969;285;100 mA
5.24526198675699;0.3997802734375;0.00157684326171875;2.84999999280444;286;100 mA
5.25526198673174;0.399749755859375;0.0015826416015625;2.85999999277919;287;100 mA
5.26526198670649;0.3997802734375;0.00158477783203125;2.86999999275395;288;100 mA
5.27526198668124;0.3997802734375;0.0015777587890625;2.8799999927287;289;100 mA
5.285261986656;0.399749755859375;0.00156524658203125;2.88999999270345;290;100 mA
5.29526198663075;0.399749755859375;0.00155914306640625;2.8999999926782;291;100 mA
5.3052619866055;0.39971923828125;0.00156036376953125;2.90999999265296;292;100 mA
5.31526198658025;0.399749755859375;0.001558837890625;2.91999999262771;293;100 mA
5.32526198655501;0.399749755859375;0.00156219482421875;2.92999999260246;294;100 mA
5.33526198652976;0.39971923828125;0.00156890869140625;2.93999999257721;295;100 mA
5.34526198650451;0.399749755859375;0.00157867431640625;2.94999999255197;296;100 mA
5.35526198647926;0.3997802734375;0.00157623291015625;2.95999999252672;297;100 mA
5.36526198645402;0.39971923828125;0.00156005859375;2.96999999250147;298;100 mA
5.37526198642877;0.3997802734375;0.00155609130859375;2.97999999247622;299;100 mA
5.38526198640352;0.399749755859375;0.00155609130859375;2.98999999245098;300;100 mA
5.39526198637827;0.399749755859375;0.001563720703125;2.99999999242573;301;100 mA
5.40526198635303;0.399749755859375;0.00156036376953125;3.00999999240048;302;100 mA
5.41526198632778;0.3997802734375;0.00156768798828125;3.01999999237523;303;100 mA
5.42526198630253;0.399749755859375;0.00156005859375;3.02999999234999;304;100 mA
5.43526198627728;0.3997802734375;0.00155853271484375;3.03999999232474;305;100 mA
5.44526198625204;0.39984130859375;0.001541748046875;3.04999999229949;306;100 mA
5.45526198622679;0.39971923828125;0.001541748046875;3.05999999227424;307;100 mA
5.46526198620154;0.39971923828125;0.00153656005859375;3.069999992249;308;100 mA
5.47526198617629;0.399749755859375;0.0015447998046875;3.07999999222375;309;100 mA
5.48526198615104;0.399749755859375;0.00154266357421875;3.0899999921985;310;100 mA
5.4952619861258;0.399749755859375;0.00156158447265625;3.09999999217325;311;100 mA
5.50526198610055;0.399749755859375;0.0015557861328125;3.109999992148;312;100 mA
5.5152619860753;0.399749755859375;0.00156219482421875;3.11999999212276;313;100 mA
5.52526198605005;0.3997802734375;0.0015509033203125;3.12999999209751;314;100 mA
5.53526198602481;0.39984130859375;0.0015472412109375;3.13999999207226;315;100 mA
5.54526198599956;0.3997802734375;0.0015496826171875;3.14999999204701;316;100 mA
5.55526198597431;0.399810791015625;0.00156158447265625;3.15999999202177;317;100 mA
5.56526198594906;0.399749755859375;0.0015545654296875;3.16999999199652;318;100 mA
5.57526198592382;0.399810791015625;0.0015643310546875;3.17999999197127;319;100 mA
5.58526198589857;0.399871826171875;0.0015631103515625;3.18999999194602;320;100 mA
5.59526198587332;0.399749755859375;0.0015667724609375;3.19999999192078;321;100 mA
5.60526198584807;0.3997802734375;0.00156005859375;3.20999999189553;322;100 mA
5.61526198582283;0.3997802734375;0.00155487060546875;3.21999999187028;323;100 mA
5.62526198579758;0.3997802734375;0.00155242919921875;3.22999999184503;324;100 mA
5.63526198577233;0.399810791015625;0.0015582275390625;3.23999999181979;325;100 mA
5.64526198574708;0.399749755859375;0.00155792236328125;3.24999999179454;326;100 mA
5.65526198572184;0.399749755859375;0.00156402587890625;3.25999999176929;327;100 mA
5.66526198569659;0.3997802734375;0.00156341552734375;3.26999999174404;328;100 mA
5.67526198567134;0.399810791015625;0.00155670166015625;3.2799999917188;329;100 mA
5.68526198564609;0.3997802734375;0.0015411376953125;3.28999999169355;330;100 mA
5.69526198562085;0.399749755859375;0.00153472900390625;3.2999999916683;331;100 mA
5.7052619855956;0.399749755859375;0.001533203125;3.30999999164305;332;100 mA
5.71526198557035;0.399749755859375;0.001529541015625;3.31999999161781;333;100 mA
5.7252619855451;0.399749755859375;0.0015289306640625;3.32999999159256;334;100 mA
5.73526198551986;0.399749755859375;0.0015362548828125;3.33999999156731;335;100 mA
5.74526198549461;0.3997802734375;0.00154083251953125;3.34999999154206;336;100 mA
5.75526198546936;0.3997802734375;0.001536865234375;3.35999999151682;337;100 mA
5.76526198544411;0.39971923828125;0.00151519775390625;3.36999999149157;338;100 mA
5.77526198541887;0.3997802734375;0.001510009765625;3.37999999146632;339;100 mA
5.78526198539362;0.3997802734375;0.0015081787109375;3.38999999144107;340;100 mA
5.79526198536837;0.399749755859375;0.00151519775390625;3.39999999141583;341;100 mA
5.80526198534312;0.399749755859375;0.00151611328125;3.40999999139058;342;100 mA
5.81526198531787;0.39971923828125;0.00152740478515625;3.41999999136533;343;100 mA
5.82526198529263;0.3997802734375;0.0015277099609375;3.42999999134008;344;100 mA
5.83526198526738;0.399810791015625;0.00152862548828125;3.43999999131483;345;100 mA
5.84526198524213;0.3997802734375;0.00151458740234375;3.44999999128959;346;100 mA
5.85526198521688;0.399810791015625;0.00151458740234375;3.45999999126434;347;100 mA
5.86526198519164;0.3997802734375;0.0015118408203125;3.46999999123909;348;100 mA
5.87526198516639;0.39971923828125;0.00152252197265625;3.47999999121384;349;100 mA
5.88526198514114;0.399749755859375;0.00152069091796875;3.4899999911886;350;100 mA
5.89526198511589;0.399749755859375;0.00153961181640625;3.49999999116335;351;100 mA
5.90526198509065;0.3997802734375;0.0015362548828125;3.5099999911381;352;100 mA
5.9152619850654;0.399749755859375;0.001546630859375;3.51999999111285;353;100 mA
5.92526198504015;0.3997802734375;0.00153350830078125;3.52999999108761;354;100 mA
5.9352619850149;0.39971923828125;0.00152679443359375;3.53999999106236;355;100 mA
5.94526198498966;0.399749755859375;0.00152740478515625;3.54999999103711;356;100 mA
5.95526198496441;0.39971923828125;0.00153533935546875;3.55999999101186;357;100 mA
5.96526198493916;0.399749755859375;0.001527099609375;3.56999999098662;358;100 mA
5.97526198491391;0.399810791015625;0.0015386962890625;3.57999999096137;359;100 mA
5.98526198488867;0.399810791015625;0.00153564453125;3.58999999093612;360;100 mA
5.99526198486342;0.3997802734375;0.00154022216796875;3.59999999091087;361;100 mA
6.00526198483817;0.399749755859375;0.001531982421875;3.60999999088563;362;100 mA
6.01526198481292;0.399749755859375;0.00153289794921875;3.61999999086038;363;100 mA
6.02526198478768;0.39971923828125;0.001533203125;3.62999999083513;364;100 mA
6.03526198476243;0.399749755859375;0.0015423583984375;3.63999999080988;365;100 mA
6.04526198473718;0.399810791015625;0.0015411376953125;3.64999999078464;366;100 mA
6.05526198471193;0.39971923828125;0.0015509033203125;3.65999999075939;367;100 mA
6.06526198468669;0.39971923828125;0.0015545654296875;3.66999999073414;368;100 mA
6.07526198466144;0.399810791015625;0.00155181884765625;3.67999999070889;369;100 mA
6.08526198463619;0.3997802734375;0.001539306640625;3.68999999068365;370;100 mA
6.09526198461094;0.39971923828125;0.0015350341796875;3.6999999906584;371;100 mA
6.1052619845857;0.3997802734375;0.00153350830078125;3.70999999063315;372;100 mA
6.11526198456045;0.399749755859375;0.0015289306640625;3.7199999906079;373;100 mA
6.1252619845352;0.3997802734375;0.0015289306640625;3.72999999058266;374;100 mA
6.13526198450995;0.399749755859375;0.0015338134765625;3.73999999055741;375;100 mA
6.1452619844847;0.399749755859375;0.0015411376953125;3.74999999053216;376;100 mA
6.15526198445946;0.39971923828125;0.0015399169921875;3.75999999050691;377;100 mA
6.16526198443421;0.3997802734375;0.0015252685546875;3.76999999048167;378;100 mA
6.17526198440896;0.39971923828125;0.00152557373046875;3.77999999045642;379;100 mA
6.18526198438371;0.399749755859375;0.0015264892578125;3.78999999043117;380;100 mA
6.19526198435847;0.399749755859375;0.00153472900390625;3.79999999040592;381;100 mA
6.20526198433322;0.39971923828125;0.00153106689453125;3.80999999038067;382;100 mA
6.21526198430797;0.399749755859375;0.001536865234375;3.81999999035543;383;100 mA
6.22526198428272;0.399749755859375;0.001534423828125;3.82999999033018;384;100 mA
6.23526198425748;0.39971923828125;0.00153472900390625;3.83999999030493;385;100 mA
6.24526198423223;0.39971923828125;0.0015216064453125;3.84999999027968;386;100 mA
6.25526198420698;0.3997802734375;0.0015240478515625;3.85999999025444;387;100 mA
6.26526198418173;0.3997802734375;0.00152435302734375;3.86999999022919;388;100 mA
6.27526198415649;0.399688720703125;0.00153594970703125;3.87999999020394;389;100 mA
6.28526198413124;0.39971923828125;0.0015325927734375;3.88999999017869;390;100 mA
6.29526198410599;0.399749755859375;0.0015478515625;3.89999999015345;391;100 mA
6.30526198408074;0.39971923828125;0.0015435791015625;3.9099999901282;392;100 mA
6.3152619840555;0.39971923828125;0.0015509033203125;3.91999999010295;393;100 mA
6.32526198403025;0.3997802734375;0.0015399169921875;3.9299999900777;394;100 mA
6.335261984005;0.3997802734375;0.00154022216796875;3.93999999005246;395;100 mA
6.34526198397975;0.399749755859375;0.00154541015625;3.94999999002721;396;100 mA
6.35526198395451;0.39971923828125;0.0015594482421875;3.95999999000196;397;100 mA
6.36526198392926;0.39971923828125;0.001553955078125;3.96999998997671;398;100 mA
6.37526198390401;0.399749755859375;0.0015625;3.97999998995147;399;100 mA
6.38526198387876;0.39971923828125;0.00156402587890625;3.98999998992622;400;100 mA
6.39526198385352;0.399749755859375;0.00156463623046875;3.99999998990097;401;100 mA
6.40526198382827;0.3997802734375;0.00155242919921875;4.00999998987572;402;100 mA
6.41526198380302;0.399810791015625;0.00154876708984375;4.01999998985048;403;100 mA
6.42526198377777;0.39971923828125;0.001546630859375;4.02999998982523;404;100 mA
6.43526198375253;0.39971923828125;0.0015521240234375;4.03999998979998;405;100 mA
6.44526198372728;0.3997802734375;0.00155303955078125;4.04999998977473;406;100 mA
6.45526198370203;0.399810791015625;0.0015594482421875;4.05999998974949;407;100 mA
6.46526198367678;0.3997802734375;0.00156219482421875;4.06999998972424;408;100 mA
6.47526198365154;0.399749755859375;0.00155609130859375;4.07999998969899;409;100 mA
6.48526198362629;0.3997802734375;0.0015447998046875;4.08999998967374;410;100 mA
6.49526198360104;0.399749755859375;0.0015399169921875;4.0999999896485;411;100 mA
6.50526198357579;0.39971923828125;0.00153961181640625;4.10999998962325;412;100 mA
6.51526198355054;0.399749755859375;0.00153472900390625;4.119999989598;413;100 mA
6.5252619835253;0.3997802734375;0.0015350341796875;4.12999998957275;414;100 mA
6.53526198350005;0.3997802734375;0.001539306640625;4.1399999895475;415;100 mA
6.5452619834748;0.399688720703125;0.00154388427734375;4.14999998952226;416;100 mA
6.55526198344955;0.399810791015625;0.00154052734375;4.15999998949701;417;100 mA
6.56526198342431;0.3997802734375;0.0015252685546875;4.16999998947176;418;100 mA
6.57526198339906;0.399749755859375;0.00152252197265625;4.17999998944651;419;100 mA
6.58526198337381;0.399810791015625;0.00152313232421875;4.18999998942127;420;100 mA
6.59526198334856;0.3997802734375;0.0015325927734375;4.19999998939602;421;100 mA
6.60526198332332;0.399749755859375;0.00152923583984375;4.20999998937077;422;100 mA
6.61526198329807;0.399810791015625;0.001536865234375;4.21999998934552;423;100 mA
6.62526198327282;0.3997802734375;0.001529541015625;4.22999998932028;424;100 mA
6.63526198324757;0.399749755859375;0.001529541015625;4.23999998929503;425;100 mA
6.64526198322233;0.39984130859375;0.001513671875;4.24999998926978;426;100 mA
6.65526198319708;0.399688720703125;0.00151824951171875;4.25999998924453;427;100 mA
6.66526198317183;0.39971923828125;0.001512451171875;4.26999998921929;428;100 mA
6.67526198314658;0.399749755859375;0.00152191162109375;4.27999998919404;429;100 mA
6.68526198312134;0.3997802734375;0.00151611328125;4.28999998916879;430;100 mA
6.69526198309609;0.39971923828125;0.00153106689453125;4.29999998914354;431;100 mA
6.70526198307084;0.399810791015625;0.0015185546875;4.3099999891183;432;100 mA
6.71526198304559;0.3997802734375;0.00152069091796875;4.31999998909305;433;100 mA
6.72526198302035;0.399749755859375;0.00150634765625;4.3299999890678;434;100 mA
6.7352619829951;0.39971923828125;0.00150390625;4.33999998904255;435;100 mA
6.74526198296985;0.3997802734375;0.0015081787109375;4.34999998901731;436;100 mA
6.7552619829446;0.399749755859375;0.00152130126953125;4.35999998899206;437;100 mA
6.76526198291936;0.399749755859375;0.00152130126953125;4.36999998896681;438;100 mA
6.77526198289411;0.3997802734375;0.00153594970703125;4.37999998894156;439;100 mA
6.78526198286886;0.3997802734375;0.00154083251953125;4.38999998891632;440;100 mA
6.79526198284361;0.39971923828125;0.001544189453125;4.39999998889107;441;100 mA
6.80526198281837;0.399749755859375;0.00153076171875;4.40999998886582;442;100 mA
6.81526198279312;0.399749755859375;0.001524658203125;4.41999998884057;443;100 mA
6.82526198276787;0.399749755859375;0.00151947021484375;4.42999998881533;444;100 mA
6.83526198274262;0.3997802734375;0.00152069091796875;4.43999998879008;445;100 mA
6.84526198271737;0.39971923828125;0.00151824951171875;4.44999998876483;446;100 mA
6.85526198269213;0.3997802734375;0.00152008056640625;4.45999998873958;447;100 mA
6.86526198266688;0.39984130859375;0.00152313232421875;4.46999998871433;448;100 mA
6.87526198264163;0.399810791015625;0.00151611328125;4.47999998868909;449;100 mA
6.88526198261638;0.399749755859375;0.0015045166015625;4.48999998866384;450;100 mA
6.89526198259114;0.3997802734375;0.00150054931640625;4.49999998863859;451;100 mA
6.90526198256589;0.3997802734375;0.00149993896484375;4.50999998861334;452;100 mA
6.91526198254064;0.3997802734375;0.00149749755859375;4.5199999885881;453;100 mA
6.92526198251539;0.3997802734375;0.00149932861328125;4.52999998856285;454;100 mA
6.93526198249015;0.39971923828125;0.0015069580078125;4.5399999885376;455;100 mA
6.9452619824649;0.3997802734375;0.00150970458984375;4.54999998851235;456;100 mA
6.95526198243965;0.399749755859375;0.00150726318359375;4.55999998848711;457;100 mA
6.9652619824144;0.399749755859375;0.0014892578125;4.56999998846186;458;100 mA
6.97526198238916;0.399810791015625;0.001484375;4.57999998843661;459;100 mA
6.98526198236391;0.399810791015625;0.00148223876953125;4.58999998841136;460;100 mA
6.99526198233866;0.399810791015625;0.0014910888671875;4.59999998838612;461;100 mA
7.00526198231341;0.3997802734375;0.0014862060546875;4.60999998836087;462;100 mA
7.01526198228817;0.399749755859375;0.00149261474609375;4.61999998833562;463;100 mA
7.02526198226292;0.399749755859375;0.00148956298828125;4.62999998831037;464;100 mA
7.03526198223767;0.399810791015625;0.00149017333984375;4.63999998828513;465;100 mA
7.04526198221242;0.39971923828125;0.001478271484375;4.64999998825988;466;100 mA
7.05526198218718;0.399871826171875;0.001480712890625;4.65999998823463;467;100 mA
7.06526198216193;0.399749755859375;0.00148162841796875;4.66999998820938;468;100 mA
7.07526198213668;0.3997802734375;0.00149383544921875;4.67999998818414;469;100 mA
7.08526198211143;0.399749755859375;0.00149261474609375;4.68999998815889;470;100 mA
7.09526198208619;0.39971923828125;0.0015087890625;4.69999998813364;471;100 mA
7.10526198206094;0.399810791015625;0.00150787353515625;4.70999998810839;472;100 mA
7.11526198203569;0.399749755859375;0.00151519775390625;4.71999998808315;473;100 mA
7.12526198201044;0.399810791015625;0.00150665283203125;4.7299999880579;474;100 mA
7.1352619819852;0.399749755859375;0.00150482177734375;4.73999998803265;475;100 mA
7.14526198195995;0.3997802734375;0.0015081787109375;4.7499999880074;476;100 mA
7.1552619819347;0.39971923828125;0.00151947021484375;4.75999998798216;477;100 mA
7.16526198190945;0.3997802734375;0.00151458740234375;4.76999998795691;478;100 mA
7.1752619818842;0.399749755859375;0.0015240478515625;4.77999998793166;479;100 mA
7.18526198185896;0.3997802734375;0.001527099609375;4.78999998790641;480;100 mA
7.19526198183371;0.399749755859375;0.0015277099609375;4.79999998788116;481;100 mA
7.20526198180846;0.399810791015625;0.0015167236328125;4.80999998785592;482;100 mA
7.21526198178321;0.399749755859375;0.001510009765625;4.81999998783067;483;100 mA
7.22526198175797;0.3997802734375;0.0015081787109375;4.82999998780542;484;100 mA
7.23526198173272;0.3997802734375;0.0015087890625;4.83999998778017;485;100 mA
7.24526198170747;0.3997802734375;0.00150787353515625;4.84999998775493;486;100 mA
7.25526198168222;0.399749755859375;0.00151092529296875;4.85999998772968;487;100 mA
7.26526198165698;0.399749755859375;0.00151336669921875;4.86999998770443;488;100 mA
7.27526198163173;0.399810791015625;0.0015057373046875;4.87999998767918;489;100 mA
7.28526198160648;0.399749755859375;0.00149383544921875;4.88999998765394;490;100 mA
7.29526198158123;0.39971923828125;0.0014886474609375;4.89999998762869;491;100 mA
7.30526198155599;0.3997802734375;0.001488037109375;4.90999998760344;492;100 mA
7.31526198153074;0.3997802734375;0.0014862060546875;4.91999998757819;493;100 mA
7.32526198150549;0.3997802734375;0.00148956298828125;4.92999998755295;494;100 mA
7.33526198148024;0.3997802734375;0.00149658203125;4.9399999875277;495;100 mA
7.345261981455;0.399749755859375;0.00150146484375;4.94999998750245;496;100 mA
7.35526198142975;0.399810791015625;0.00149993896484375;4.9599999874772;497;100 mA
7.3652619814045;0.399688720703125;0.001485595703125;4.96999998745196;498;100 mA
7.37526198137925;0.399749755859375;0.0014837646484375;4.97999998742671;499;100 mA
7.38526198135401;0.399749755859375;0.00148284912109375;4.98999998740146;500;100 mA
7.39526198132876;0.3997802734375;0.00149078369140625;4.99999998737621;501;100 mA
7.40526198130351;0.399810791015625;0.00148590087890625;5.00999998735097;502;100 mA
7.41526198127826;0.3997802734375;0.00149688720703125;5.01999998732572;503;100 mA
7.42526198125302;0.399749755859375;0.001492919921875;5.02999998730047;504;100 mA
7.43526198122777;0.39971923828125;0.00149169921875;5.03999998727522;505;100 mA
7.44526198120252;0.3997802734375;0.001478271484375;5.04999998724998;506;100 mA
7.45526198117727;0.399749755859375;0.00147979736328125;5.05999998722473;507;100 mA
7.46526198115203;0.3997802734375;0.00147918701171875;5.06999998719948;508;100 mA
7.47526198112678;0.399749755859375;0.00148956298828125;5.07999998717423;509;100 mA
7.48526198110153;0.399749755859375;0.00148468017578125;5.08999998714899;510;100 mA
7.49526198107628;0.399688720703125;0.00149566650390625;5.09999998712374;511;100 mA
7.50526198105104;0.3997802734375;0.001494140625;5.10999998709849;512;100 mA
7.51526198102579;0.3997802734375;0.00149749755859375;5.11999998707324;513;100 mA
7.52526198100054;0.3997802734375;0.001484375;5.129999987048;514;100 mA
7.53526198097529;0.3997802734375;0.001480712890625;5.13999998702275;515;100 mA
7.54526198095004;0.39971923828125;0.00148406982421875;5.1499999869975;516;100 mA
7.5552619809248;0.399749755859375;0.00148956298828125;5.15999998697225;517;100 mA
7.56526198089955;0.3997802734375;0.0014825439453125;5.169999986947;518;100 mA
7.5752619808743;0.399749755859375;0.00148895263671875;5.17999998692176;519;100 mA
7.58526198084905;0.3997802734375;0.00149139404296875;5.18999998689651;520;100 mA
7.59526198082381;0.399749755859375;0.0014892578125;5.19999998687126;521;100 mA
7.60526198079856;0.399749755859375;0.00147735595703125;5.20999998684601;522;100 mA
7.61526198077331;0.399749755859375;0.0014691162109375;5.21999998682077;523;100 mA
7.62526198074806;0.39971923828125;0.00146942138671875;5.22999998679552;524;100 mA
7.63526198072282;0.399749755859375;0.00147430419921875;5.23999998677027;525;100 mA
7.64526198069757;0.399810791015625;0.00147613525390625;5.24999998674502;526;100 mA
7.65526198067232;0.39971923828125;0.00148590087890625;5.25999998671978;527;100 mA
7.66526198064707;0.3997802734375;0.00149017333984375;5.26999998669453;528;100 mA
7.67526198062183;0.39971923828125;0.00148712158203125;5.27999998666928;529;100 mA
7.68526198059658;0.399749755859375;0.00147857666015625;5.28999998664403;530;100 mA
7.69526198057133;0.39971923828125;0.0014739990234375;5.29999998661879;531;100 mA
7.70526198054608;0.3997802734375;0.001473388671875;5.30999998659354;532;100 mA
7.71526198052084;0.3997802734375;0.00147308349609375;5.31999998656829;533;100 mA
7.72526198049559;0.39971923828125;0.00147308349609375;5.32999998654304;534;100 mA
7.73526198047034;0.3997802734375;0.00148406982421875;5.3399999865178;535;100 mA
7.74526198044509;0.399749755859375;0.0014794921875;5.34999998649255;536;100 mA
7.75526198041985;0.399749755859375;0.0014801025390625;5.3599999864673;537;100 mA
7.7652619803946;0.39971923828125;0.00146087646484375;5.36999998644205;538;100 mA
7.77526198036935;0.3997802734375;0.00145904541015625;5.37999998641681;539;100 mA
7.7852619803441;0.399688720703125;0.00146026611328125;5.38999998639156;540;100 mA
7.79526198031886;0.399688720703125;0.0014739990234375;5.39999998636631;541;100 mA
7.80526198029361;0.39971923828125;0.0014715576171875;5.40999998634106;542;100 mA
7.81526198026836;0.399810791015625;0.00148406982421875;5.41999998631582;543;100 mA
7.82526198024311;0.39971923828125;0.00148529052734375;5.42999998629057;544;100 mA
7.83526198021787;0.3997802734375;0.0014898681640625;5.43999998626532;545;100 mA
7.84526198019262;0.39971923828125;0.0014788818359375;5.44999998624007;546;100 mA
7.85526198016737;0.39971923828125;0.0014813232421875;5.45999998621483;547;100 mA
7.86526198014212;0.3997802734375;0.00147918701171875;5.46999998618958;548;100 mA
7.87526198011687;0.39971923828125;0.00149017333984375;5.47999998616433;549;100 mA
7.88526198009163;0.3997802734375;0.00148345947265625;5.48999998613908;550;100 mA
7.89526198006638;0.39971923828125;0.00149627685546875;5.49999998611383;551;100 mA
7.90526198004113;0.39984130859375;0.0014935302734375;5.50999998608859;552;100 mA
7.91526198001588;0.399749755859375;0.0014971923828125;5.51999998606334;553;100 mA
7.92526197999064;0.399810791015625;0.00148406982421875;5.52999998603809;554;100 mA
7.93526197996539;0.399810791015625;0.0014801025390625;5.53999998601284;555;100 mA
7.94526197994014;0.3997802734375;0.00148162841796875;5.5499999859876;556;100 mA
7.95526197991489;0.39971923828125;0.001490478515625;5.55999998596235;557;100 mA
7.96526197988965;0.3997802734375;0.00148406982421875;5.5699999859371;558;100 mA
7.9752619798644;0.3997802734375;0.001495361328125;5.57999998591185;559;100 mA
7.98526197983915;0.399688720703125;0.00150146484375;5.58999998588661;560;100 mA
7.9952619798139;0.399810791015625;0.00150421142578125;5.59999998586136;561;100 mA
8.00526197978866;0.39971923828125;0.0014959716796875;5.60999998583611;562;100 mA
8.01526197976341;0.3997802734375;0.001490478515625;5.61999998581086;563;100 mA
8.02526197973816;0.399749755859375;0.0014898681640625;5.62999998578562;564;100 mA
8.03526197971291;0.3997802734375;0.00149505615234375;5.63999998576037;565;100 mA
8.04526197968767;0.39971923828125;0.00149261474609375;5.64999998573512;566;100 mA
8.05526197966242;0.399749755859375;0.0014971923828125;5.65999998570987;567;100 mA
8.06526197963717;0.399749755859375;0.001497802734375;5.66999998568463;568;100 mA
8.07526197961192;0.399749755859375;0.00149444580078125;5.67999998565938;569;100 mA
8.08526197958668;0.399749755859375;0.00148101806640625;5.68999998563413;570;100 mA
8.09526197956143;0.399749755859375;0.00147979736328125;5.69999998560888;571;100 mA
8.10526197953618;0.39971923828125;0.001480712890625;5.70999998558364;572;100 mA
8.11526197951093;0.39971923828125;0.0014813232421875;5.71999998555839;573;100 mA
8.12526197948569;0.3997802734375;0.0014813232421875;5.72999998553314;574;100 mA
8.13526197946044;0.3997802734375;0.0014886474609375;5.73999998550789;575;100 mA
8.14526197943519;0.3997802734375;0.00148773193359375;5.74999998548265;576;100 mA
8.15526197940994;0.399810791015625;0.00149139404296875;5.7599999854574;577;100 mA
8.1652619793847;0.399810791015625;0.0014739990234375;5.76999998543215;578;100 mA
8.17526197935945;0.399749755859375;0.0014739990234375;5.7799999854069;579;100 mA
8.1852619793342;0.3997802734375;0.0014752197265625;5.78999998538166;580;100 mA
8.19526197930895;0.3997802734375;0.00148651123046875;5.79999998535641;581;100 mA
8.2052619792837;0.3997802734375;0.001480712890625;5.80999998533116;582;100 mA
8.21526197925846;0.399749755859375;0.00148956298828125;5.81999998530591;583;100 mA
8.22526197923321;0.3997802734375;0.00148773193359375;5.82999998528066;584;100 mA
8.23526197920796;0.399810791015625;0.0014898681640625;5.83999998525542;585;100 mA
8.24526197918271;0.3997802734375;0.0014794921875;5.84999998523017;586;100 mA
8.25526197915747;0.399749755859375;0.0014874267578125;5.85999998520492;587;100 mA
8.26526197913222;0.399749755859375;0.0014892578125;5.86999998517967;588;100 mA
8.27526197910697;0.399749755859375;0.00150543212890625;5.87999998515443;589;100 mA
8.28526197908172;0.399688720703125;0.00150238037109375;5.88999998512918;590;100 mA
8.29526197905648;0.39971923828125;0.00151397705078125;5.89999998510393;591;100 mA
8.30526197903123;0.399749755859375;0.00151092529296875;5.90999998507868;592;100 mA
8.31526197900598;0.399749755859375;0.001512451171875;5.91999998505344;593;100 mA
8.32526197898073;0.39984130859375;0.00149932861328125;5.92999998502819;594;100 mA
8.33526197895549;0.399749755859375;0.00149688720703125;5.93999998500294;595;100 mA
8.34526197893024;0.399810791015625;0.00149993896484375;5.94999998497769;596;100 mA
8.35526197890499;0.399749755859375;0.00150970458984375;5.95999998495245;597;100 mA
8.36526197887974;0.399810791015625;0.001507568359375;5.9699999849272;598;100 mA
8.3752619788545;0.39971923828125;0.0015185546875;5.97999998490195;599;100 mA
8.38526197882925;0.399749755859375;0.00152679443359375;5.9899999848767;600;100 mA
8.395261978804;0.399688720703125;0.00152740478515625;5.99999998485146;601;100 mA
8.40526197877875;0.3997802734375;0.001519775390625;6.00999998482621;602;100 mA
8.41526197875351;0.399749755859375;0.00151336669921875;6.01999998480096;603;100 mA
8.42526197872826;0.3997802734375;0.001513671875;6.02999998477571;604;100 mA
8.43526197870301;0.3997802734375;0.00151580810546875;6.03999998475047;605;100 mA
8.44526197867776;0.3997802734375;0.001517333984375;6.04999998472522;606;100 mA
8.45526197865252;0.3997802734375;0.00152496337890625;6.05999998469997;607;100 mA
8.46526197862727;0.39971923828125;0.001524658203125;6.06999998467472;608;100 mA
8.47526197860202;0.399810791015625;0.00152374267578125;6.07999998464948;609;100 mA
8.48526197857677;0.399810791015625;0.0015087890625;6.08999998462423;610;100 mA
8.49526197855153;0.3997802734375;0.0015032958984375;6.09999998459898;611;100 mA
8.50526197852628;0.399810791015625;0.00150238037109375;6.10999998457373;612;100 mA
8.51526197850103;0.39971923828125;0.001502685546875;6.11999998454849;613;100 mA
8.52526197847578;0.399749755859375;0.00150238037109375;6.12999998452324;614;100 mA
8.53526197845054;0.399749755859375;0.00151275634765625;6.13999998449799;615;100 mA
8.54526197842529;0.399810791015625;0.00150909423828125;6.14999998447274;616;100 mA
8.55526197840004;0.3997802734375;0.0015118408203125;6.1599999844475;617;100 mA
8.56526197837479;0.39971923828125;0.0014971923828125;6.16999998442225;618;100 mA
8.57526197834954;0.399810791015625;0.00149810791015625;6.179999984397;619;100 mA
8.5852619783243;0.399749755859375;0.0014990234375;6.18999998437175;620;100 mA
8.59526197829905;0.399810791015625;0.00150726318359375;6.1999999843465;621;100 mA
8.6052619782738;0.399749755859375;0.00150115966796875;6.20999998432126;622;100 mA
8.61526197824855;0.399749755859375;0.00151031494140625;6.21999998429601;623;100 mA
8.62526197822331;0.399749755859375;0.00150726318359375;6.22999998427076;624;100 mA
8.63526197819806;0.3997802734375;0.00151214599609375;6.23999998424551;625;100 mA
8.64526197817281;0.399688720703125;0.00150543212890625;6.24999998422027;626;100 mA
8.65526197814756;0.399749755859375;0.0015106201171875;6.25999998419502;627;100 mA
8.66526197812232;0.399749755859375;0.00151336669921875;6.26999998416977;628;100 mA
8.67526197809707;0.3997802734375;0.0015289306640625;6.27999998414452;629;100 mA
8.68526197807182;0.39971923828125;0.00152679443359375;6.28999998411928;630;100 mA
8.69526197804657;0.399810791015625;0.00154083251953125;6.29999998409403;631;100 mA
8.70526197802133;0.399749755859375;0.0015399169921875;6.30999998406878;632;100 mA
8.71526197799608;0.399810791015625;0.00154144287109375;6.31999998404353;633;100 mA
8.72526197797083;0.3997802734375;0.00153228759765625;6.32999998401829;634;100 mA
8.73526197794558;0.3997802734375;0.001529541015625;6.33999998399304;635;100 mA
8.74526197792034;0.399749755859375;0.0015313720703125;6.34999998396779;636;100 mA
8.75526197789509;0.399749755859375;0.0015380859375;6.35999998394254;637;100 mA
8.76526197786984;0.3997802734375;0.00153472900390625;6.3699999839173;638;100 mA
8.77526197784459;0.399810791015625;0.00154449462890625;6.37999998389205;639;100 mA
8.78526197781935;0.399749755859375;0.00154815673828125;6.3899999838668;640;100 mA
8.7952619777941;0.3997802734375;0.0015472412109375;6.39999998384155;641;100 mA
8.80526197776885;0.3997802734375;0.0015362548828125;6.40999998381631;642;100 mA
8.8152619777436;0.399749755859375;0.00152984619140625;6.41999998379106;643;100 mA
8.82526197771836;0.399749755859375;0.0015277099609375;6.42999998376581;644;100 mA
8.83526197769311;0.3997802734375;0.0015283203125;6.43999998374056;645;100 mA
8.84526197766786;0.399810791015625;0.001529541015625;6.44999998371532;646;100 mA
8.85526197764261;0.399749755859375;0.00153289794921875;6.45999998369007;647;100 mA
8.86526197761737;0.39984130859375;0.0015289306640625;6.46999998366482;648;100 mA
8.87526197759212;0.39971923828125;0.00152618408203125;6.47999998363957;649;100 mA
8.88526197756687;0.399688720703125;0.0015106201171875;6.48999998361433;650;100 mA
8.89526197754162;0.399749755859375;0.0015093994140625;6.49999998358908;651;100 mA
8.90526197751637;0.399749755859375;0.00150634765625;6.50999998356383;652;100 mA
8.91526197749113;0.399749755859375;0.00150909423828125;6.51999998353858;653;100 mA
8.92526197746588;0.399810791015625;0.00151031494140625;6.52999998351333;654;100 mA
8.93526197744063;0.399749755859375;0.00152496337890625;6.53999998348809;655;100 mA
8.94526197741538;0.399749755859375;0.001522216796875;6.54999998346284;656;100 mA
8.95526197739014;0.39971923828125;0.00152587890625;6.55999998343759;657;100 mA
8.96526197736489;0.399810791015625;0.00151092529296875;6.56999998341234;658;100 mA
8.97526197733964;0.39971923828125;0.001512451171875;6.5799999833871;659;100 mA
8.98526197731439;0.399810791015625;0.00151336669921875;6.58999998336185;660;100 mA
8.99526197728915;0.39971923828125;0.00152191162109375;6.5999999833366;661;100 mA
9.0052619772639;0.3997802734375;0.00151885986328125;6.60999998331135;662;100 mA
9.01526197723865;0.3997802734375;0.00152923583984375;6.61999998328611;663;100 mA
9.0252619772134;0.39971923828125;0.00152496337890625;6.62999998326086;664;100 mA
9.03526197718816;0.399810791015625;0.0015301513671875;6.63999998323561;665;100 mA
9.04526197716291;0.3997802734375;0.00151641845703125;6.64999998321036;666;100 mA
9.05526197713766;0.3997802734375;0.00151824951171875;6.65999998318512;667;100 mA
9.06526197711241;0.3997802734375;0.0015167236328125;6.66999998315987;668;100 mA
9.07526197708717;0.3997802734375;0.0015301513671875;6.67999998313462;669;100 mA
9.08526197706192;0.399749755859375;0.001527099609375;6.68999998310937;670;100 mA
9.09526197703667;0.399810791015625;0.001539306640625;6.69999998308413;671;100 mA
9.10526197701142;0.39971923828125;0.00154205322265625;6.70999998305888;672;100 mA
9.11526197698618;0.399749755859375;0.00154022216796875;6.71999998303363;673;100 mA
9.12526197696093;0.39971923828125;0.00152923583984375;6.72999998300838;674;100 mA
9.13526197693568;0.399749755859375;0.00152587890625;6.73999998298314;675;100 mA
9.14526197691043;0.3997802734375;0.00152618408203125;6.74999998295789;676;100 mA
9.15526197688519;0.3997802734375;0.00152862548828125;6.75999998293264;677;100 mA
9.16526197685994;0.399810791015625;0.00152252197265625;6.76999998290739;678;100 mA
9.17526197683469;0.3997802734375;0.00153167724609375;6.77999998288215;679;100 mA
9.18526197680944;0.399749755859375;0.00153839111328125;6.7899999828569;680;100 mA
9.1952619767842;0.399749755859375;0.00154052734375;6.79999998283165;681;100 mA
9.20526197675895;0.3997802734375;0.0015277099609375;6.8099999828064;682;100 mA
9.2152619767337;0.3997802734375;0.0015228271484375;6.81999998278116;683;100 mA
9.22526197670845;0.3997802734375;0.00152496337890625;6.82999998275591;684;100 mA
9.2352619766832;0.3997802734375;0.00152801513671875;6.83999998273066;685;100 mA
9.24526197665796;0.3997802734375;0.00153045654296875;6.84999998270541;686;100 mA
9.25526197663271;0.3997802734375;0.0015380859375;6.85999998268016;687;100 mA
9.26526197660746;0.39971923828125;0.001536865234375;6.86999998265492;688;100 mA
9.27526197658221;0.399749755859375;0.00153106689453125;6.87999998262967;689;100 mA
9.28526197655697;0.3997802734375;0.0015155029296875;6.88999998260442;690;100 mA
9.29526197653172;0.399749755859375;0.001514892578125;6.89999998257917;691;100 mA
9.30526197650647;0.399810791015625;0.001514892578125;6.90999998255393;692;100 mA
9.31526197648122;0.399749755859375;0.0015191650390625;6.91999998252868;693;100 mA
9.32526197645598;0.39971923828125;0.00152252197265625;6.92999998250343;694;100 mA
9.33526197643073;0.399749755859375;0.0015374755859375;6.93999998247818;695;100 mA
9.34526197640548;0.3997802734375;0.00153564453125;6.94999998245294;696;100 mA
9.35526197638023;0.3997802734375;0.00154266357421875;6.95999998242769;697;100 mA
9.36526197635499;0.399749755859375;0.00152923583984375;6.96999998240244;698;100 mA
9.37526197632974;0.399749755859375;0.00152557373046875;6.97999998237719;699;100 mA
9.38526197630449;0.399810791015625;0.001527099609375;6.98999998235195;700;100 mA
9.39526197627924;0.399749755859375;0.00153778076171875;6.9999999823267;701;100 mA
9.405261976254;0.39984130859375;0.0015325927734375;7.00999998230145;702;100 mA
9.41526197622875;0.399749755859375;0.0015423583984375;7.0199999822762;703;100 mA
9.4252619762035;0.399749755859375;0.00154022216796875;7.02999998225096;704;100 mA
9.43526197617825;0.3997802734375;0.0015435791015625;7.03999998222571;705;100 mA
9.44526197615301;0.399749755859375;0.00153594970703125;7.04999998220046;706;100 mA
9.45526197612776;0.3997802734375;0.00153717041015625;7.05999998217521;707;100 mA
9.46526197610251;0.399810791015625;0.0015313720703125;7.06999998214997;708;100 mA
9.47526197607726;0.399810791015625;0.00153961181640625;7.07999998212472;709;100 mA
9.48526197605202;0.39971923828125;0.001534423828125;7.08999998209947;710;100 mA
9.49526197602677;0.39971923828125;0.00154327392578125;7.09999998207422;711;100 mA
9.50526197600152;0.399810791015625;0.00154541015625;7.10999998204898;712;100 mA
9.51526197597627;0.399749755859375;0.00154052734375;7.11999998202373;713;100 mA
9.52526197595103;0.39984130859375;0.001529541015625;7.12999998199848;714;100 mA
9.53526197592578;0.399810791015625;0.00152496337890625;7.13999998197323;715;100 mA
9.54526197590053;0.399749755859375;0.00152740478515625;7.14999998194799;716;100 mA
9.55526197587528;0.399688720703125;0.0015313720703125;7.15999998192274;717;100 mA
9.56526197585004;0.3997802734375;0.00152679443359375;7.16999998189749;718;100 mA
9.57526197582479;0.399749755859375;0.0015338134765625;7.17999998187224;719;100 mA
9.58526197579954;0.3997802734375;0.00153656005859375;7.189999981847;720;100 mA
9.59526197577429;0.39971923828125;0.001534423828125;7.19999998182175;721;100 mA
9.60526197574904;0.3997802734375;0.00152191162109375;7.2099999817965;722;100 mA
9.6152619757238;0.3997802734375;0.00151336669921875;7.21999998177125;723;100 mA
9.62526197569855;0.399810791015625;0.00151123046875;7.229999981746;724;100 mA
9.6352619756733;0.3997802734375;0.0015106201171875;7.23999998172076;725;100 mA
9.64526197564805;0.399749755859375;0.0015081787109375;7.24999998169551;726;100 mA
9.65526197562281;0.3997802734375;0.00151214599609375;7.25999998167026;727;100 mA
9.66526197559756;0.39971923828125;0.0015069580078125;7.26999998164501;728;100 mA
9.67526197557231;0.399749755859375;0.00150665283203125;7.27999998161977;729;100 mA
9.68526197554706;0.3997802734375;0.00149078369140625;7.28999998159452;730;100 mA
9.69526197552182;0.3997802734375;0.0014892578125;7.29999998156927;731;100 mA
9.70526197549657;0.399749755859375;0.00148681640625;7.30999998154402;732;100 mA
9.71526197547132;0.3997802734375;0.0014898681640625;7.31999998151878;733;100 mA
9.72526197544607;0.3997802734375;0.00149017333984375;7.32999998149353;734;100 mA
9.73526197542083;0.399749755859375;0.00149932861328125;7.33999998146828;735;100 mA
9.74526197539558;0.3997802734375;0.00149444580078125;7.34999998144303;736;100 mA
9.75526197537033;0.399749755859375;0.00150238037109375;7.35999998141779;737;100 mA
9.76526197534508;0.399810791015625;0.00148590087890625;7.36999998139254;738;100 mA
9.77526197531984;0.39971923828125;0.0014862060546875;7.37999998136729;739;100 mA
9.78526197529459;0.399749755859375;0.0014874267578125;7.38999998134204;740;100 mA
9.79526197526934;0.399749755859375;0.00149932861328125;7.3999999813168;741;100 mA
9.80526197524409;0.39971923828125;0.00149444580078125;7.40999998129155;742;100 mA
9.81526197521885;0.399810791015625;0.00150390625;7.4199999812663;743;100 mA
9.8252619751936;0.399749755859375;0.00150360107421875;7.42999998124105;744;100 mA
9.83526197516835;0.39971923828125;0.0015045166015625;7.43999998121581;745;100 mA
9.8452619751431;0.399688720703125;0.00149322509765625;7.44999998119056;746;100 mA
9.85526197511786;0.39971923828125;0.00149383544921875;7.45999998116531;747;100 mA
9.86526197509261;0.3997802734375;0.0014892578125;7.46999998114006;748;100 mA
9.87526197506736;0.39971923828125;0.0014990234375;7.47999998111482;749;100 mA
9.88526197504211;0.399749755859375;0.00149383544921875;7.48999998108957;750;100 mA
9.89526197501687;0.39984130859375;0.00150360107421875;7.49999998106432;751;100 mA
9.90526197499162;0.3997802734375;0.001507568359375;7.50999998103907;752;100 mA
9.91526197496637;0.399749755859375;0.00151123046875;7.51999998101383;753;100 mA
9.92526197494112;0.3997802734375;0.0015069580078125;7.52999998098858;754;100 mA
9.93526197491587;0.399810791015625;0.00150726318359375;7.53999998096333;755;100 mA
9.94526197489063;0.39971923828125;0.001512451171875;7.54999998093808;756;100 mA
9.95526197486538;0.399688720703125;0.00151580810546875;7.55999998091283;757;100 mA
9.96526197484013;0.3997802734375;0.00151336669921875;7.56999998088759;758;100 mA
9.97526197481488;0.3997802734375;0.00152008056640625;7.57999998086234;759;100 mA
9.98526197478964;0.399749755859375;0.001527099609375;7.58999998083709;760;100 mA
9.99526197476439;0.3997802734375;0.00152435302734375;7.59999998081184;761;100 mA
10.0052619747391;0.39971923828125;0.00151336669921875;7.6099999807866;762;100 mA
10.0152619747139;0.399749755859375;0.00150634765625;7.61999998076135;763;100 mA
10.0252619746886;0.3997802734375;0.00150390625;7.6299999807361;764;100 mA
10.0352619746634;0.3997802734375;0.00150482177734375;7.63999998071085;765;100 mA
10.0452619746382;0.3997802734375;0.001502685546875;7.64999998068561;766;100 mA
10.0552619746129;0.399749755859375;0.001507568359375;7.65999998066036;767;100 mA
10.0652619745877;0.399810791015625;0.0015057373046875;7.66999998063511;768;100 mA
10.0752619745624;0.399749755859375;0.0015057373046875;7.67999998060986;769;100 mA
10.0852619745372;0.399749755859375;0.0014935302734375;7.68999998058462;770;100 mA
10.0952619745119;0.3997802734375;0.0014959716796875;7.69999998055937;771;100 mA
10.1052619744867;0.39984130859375;0.0014959716796875;7.70999998053412;772;100 mA
10.1152619744614;0.3997802734375;0.00149871826171875;7.71999998050887;773;100 mA
10.1252619744362;0.3997802734375;0.00149749755859375;7.72999998048363;774;100 mA
10.1352619744109;0.399749755859375;0.001505126953125;7.73999998045838;775;100 mA
10.1452619743857;0.39971923828125;0.00149566650390625;7.74999998043313;776;100 mA
10.1552619743604;0.399688720703125;0.001495361328125;7.75999998040788;777;100 mA
10.1652619743352;0.3997802734375;0.0014794921875;7.76999998038264;778;100 mA
10.1752619743099;0.39984130859375;0.00148040771484375;7.77999998035739;779;100 mA
10.1852619742847;0.3997802734375;0.001484375;7.78999998033214;780;100 mA
10.1952619742594;0.39971923828125;0.00149505615234375;7.79999998030689;781;100 mA
10.2052619742342;0.399688720703125;0.00148590087890625;7.80999998028165;782;100 mA
10.2152619742089;0.399749755859375;0.0014947509765625;7.8199999802564;783;100 mA
10.2252619741837;0.399749755859375;0.0014935302734375;7.82999998023115;784;100 mA
10.2352619741584;0.39971923828125;0.00149658203125;7.8399999802059;785;100 mA
10.2452619741332;0.3997802734375;0.00148468017578125;7.84999998018066;786;100 mA
10.255261974108;0.3997802734375;0.001485595703125;7.85999998015541;787;100 mA
10.2652619740827;0.399749755859375;0.001483154296875;7.86999998013016;788;100 mA
10.2752619740575;0.3997802734375;0.0014935302734375;7.87999998010491;789;100 mA
10.2852619740322;0.399749755859375;0.0014898681640625;7.88999998007966;790;100 mA
10.295261974007;0.3997802734375;0.00149444580078125;7.89999998005442;791;100 mA
10.3052619739817;0.399810791015625;0.0014935302734375;7.90999998002917;792;100 mA
10.3152619739565;0.3997802734375;0.0014837646484375;7.91999998000392;793;100 mA
10.3252619739312;0.399749755859375;0.0014697265625;7.92999997997867;794;100 mA
10.335261973906;0.399749755859375;0.00146453857421875;7.93999997995343;795;100 mA
10.3452619738807;0.3997802734375;0.00146484375;7.94999997992818;796;100 mA
10.3552619738555;0.399749755859375;0.0014642333984375;7.95999997990293;797;100 mA
10.3652619738302;0.399749755859375;0.001458740234375;7.96999997987768;798;100 mA
10.375261973805;0.399749755859375;0.00146484375;7.97999997985244;799;100 mA
10.3852619737797;0.399749755859375;0.00147003173828125;7.98999997982719;800;100 mA
10.3952619737545;0.399749755859375;0.00146575927734375;7.99999997980194;801;100 mA
10.4052619737292;0.3997802734375;0.0014501953125;8.00999997977669;802;100 mA
10.415261973704;0.399749755859375;0.00144561767578125;8.01999997975145;803;100 mA
10.4252619736787;0.399810791015625;0.0014483642578125;8.0299999797262;804;100 mA
10.4352619736535;0.3997802734375;0.00145538330078125;8.03999997970095;805;100 mA
10.4452619736282;0.399749755859375;0.00145477294921875;8.0499999796757;806;100 mA
10.455261973603;0.399749755859375;0.001458740234375;8.05999997965046;807;100 mA
10.4652619735778;0.3997802734375;0.0014544677734375;8.06999997962521;808;100 mA
10.4752619735525;0.3997802734375;0.001455078125;8.07999997959996;809;100 mA
10.4852619735273;0.39971923828125;0.00143951416015625;8.08999997957471;810;100 mA
10.495261973502;0.39971923828125;0.00144012451171875;8.09999997954947;811;100 mA
10.5052619734768;0.399749755859375;0.0014373779296875;8.10999997952422;812;100 mA
10.5152619734515;0.399810791015625;0.0014434814453125;8.11999997949897;813;100 mA
10.5252619734263;0.3997802734375;0.00144378662109375;8.12999997947372;814;100 mA
10.535261973401;0.3997802734375;0.00145599365234375;8.13999997944848;815;100 mA
10.5452619733758;0.39984130859375;0.00145172119140625;8.14999997942323;816;100 mA
10.5552619733505;0.3997802734375;0.0014581298828125;8.15999997939798;817;100 mA
10.5652619733253;0.399810791015625;0.0014422607421875;8.16999997937273;818;100 mA
10.5752619733;0.399749755859375;0.00144287109375;8.17999997934749;819;100 mA
10.5852619732748;0.3997802734375;0.00144775390625;8.18999997932224;820;100 mA
10.5952619732495;0.39971923828125;0.00146148681640625;8.19999997929699;821;100 mA
10.6052619732243;0.399749755859375;0.0014569091796875;8.20999997927174;822;100 mA
10.615261973199;0.3997802734375;0.001466064453125;8.2199999792465;823;100 mA
10.6252619731738;0.3997802734375;0.00146636962890625;8.22999997922125;824;100 mA
10.6352619731485;0.39971923828125;0.0014715576171875;8.239999979196;825;100 mA
10.6452619731233;0.399749755859375;0.00145751953125;8.24999997917075;826;100 mA
10.655261973098;0.3997802734375;0.0014569091796875;8.2599999791455;827;100 mA
10.6652619730728;0.399749755859375;0.00145477294921875;8.26999997912026;828;100 mA
10.6752619730476;0.399810791015625;0.0014617919921875;8.27999997909501;829;100 mA
10.6852619730223;0.399749755859375;0.00146148681640625;8.28999997906976;830;100 mA
10.6952619729971;0.399688720703125;0.00147125244140625;8.29999997904451;831;100 mA
10.7052619729718;0.3997802734375;0.00147430419921875;8.30999997901927;832;100 mA
10.7152619729466;0.399749755859375;0.001466064453125;8.31999997899402;833;100 mA
10.7252619729213;0.3997802734375;0.00145660400390625;8.32999997896877;834;100 mA
10.7352619728961;0.39971923828125;0.001453857421875;8.33999997894352;835;100 mA
10.7452619728708;0.3997802734375;0.0014532470703125;8.34999997891828;836;100 mA
10.7552619728456;0.399749755859375;0.00145477294921875;8.35999997889303;837;100 mA
10.7652619728203;0.3997802734375;0.00145294189453125;8.36999997886778;838;100 mA
10.7752619727951;0.399749755859375;0.00146270751953125;8.37999997884253;839;100 mA
10.7852619727698;0.3997802734375;0.001468505859375;8.38999997881729;840;100 mA
10.7952619727446;0.3997802734375;0.00146820068359375;8.39999997879204;841;100 mA
10.8052619727193;0.39971923828125;0.0014556884765625;8.40999997876679;842;100 mA
10.8152619726941;0.3997802734375;0.00145263671875;8.41999997874154;843;100 mA
10.8252619726688;0.3997802734375;0.00145751953125;8.4299999787163;844;100 mA
10.8352619726436;0.399749755859375;0.0014654541015625;8.43999997869105;845;100 mA
10.8452619726183;0.3997802734375;0.00146636962890625;8.4499999786658;846;100 mA
10.8552619725931;0.399749755859375;0.0014776611328125;8.45999997864055;847;100 mA
10.8652619725679;0.3997802734375;0.00147247314453125;8.46999997861531;848;100 mA
10.8752619725426;0.3997802734375;0.001474609375;8.47999997859006;849;100 mA
10.8852619725174;0.39971923828125;0.00145843505859375;8.48999997856481;850;100 mA
10.8952619724921;0.39984130859375;0.00145904541015625;8.49999997853956;851;100 mA
10.9052619724669;0.39984130859375;0.00145843505859375;8.50999997851432;852;100 mA
10.9152619724416;0.399810791015625;0.00146514892578125;8.51999997848907;853;100 mA
10.9252619724164;0.399810791015625;0.00146514892578125;8.52999997846382;854;100 mA
10.9352619723911;0.399688720703125;0.00147735595703125;8.53999997843857;855;100 mA
10.9452619723659;0.399749755859375;0.00147247314453125;8.54999997841333;856;100 mA
10.9552619723406;0.399810791015625;0.00147857666015625;8.55999997838808;857;100 mA
10.9652619723154;0.3997802734375;0.0014666748046875;8.56999997836283;858;100 mA
10.9752619722901;0.399810791015625;0.00146759033203125;8.57999997833758;859;100 mA
10.9852619722649;0.3997802734375;0.00147064208984375;8.58999997831233;860;100 mA
10.9952619722396;0.399749755859375;0.00148284912109375;8.59999997828709;861;100 mA
11.0052619722144;0.399749755859375;0.00147735595703125;8.60999997826184;862;100 mA
11.0152619721891;0.399749755859375;0.001485595703125;8.61999997823659;863;100 mA
11.0252619721639;0.399749755859375;0.001485595703125;8.62999997821134;864;100 mA
11.0352619721386;0.399749755859375;0.00148681640625;8.6399999781861;865;100 mA
11.0452619721134;0.399749755859375;0.0014801025390625;8.64999997816085;866;100 mA
11.0552619720881;0.39971923828125;0.00148223876953125;8.6599999781356;867;100 mA
11.0652619720629;0.3997802734375;0.00148101806640625;8.66999997811035;868;100 mA
11.0752619720377;0.399749755859375;0.00148895263671875;8.67999997808511;869;100 mA
11.0852619720124;0.39971923828125;0.00148590087890625;8.68999997805986;870;100 mA
11.0952619719872;0.3997802734375;0.0014910888671875;8.69999997803461;871;100 mA
11.1052619719619;0.39971923828125;0.0014959716796875;8.70999997800936;872;100 mA
11.1152619719367;0.39971923828125;0.0014886474609375;8.71999997798412;873;100 mA
11.1252619719114;0.3997802734375;0.0014801025390625;8.72999997795887;874;100 mA
11.1352619718862;0.3997802734375;0.0014788818359375;8.73999997793362;875;100 mA
11.1452619718609;0.39971923828125;0.00148040771484375;8.74999997790837;876;100 mA
11.1552619718357;0.3997802734375;0.00148284912109375;8.75999997788313;877;100 mA
11.1652619718104;0.399810791015625;0.00148406982421875;8.76999997785788;878;100 mA
11.1752619717852;0.39971923828125;0.00149261474609375;8.77999997783263;879;100 mA
11.1852619717599;0.399688720703125;0.00149658203125;8.78999997780738;880;100 mA
11.1952619717347;0.399749755859375;0.0014910888671875;8.79999997778214;881;100 mA
11.2052619717094;0.39984130859375;0.001475830078125;8.80999997775689;882;100 mA
11.2152619716842;0.3997802734375;0.001470947265625;8.81999997773164;883;100 mA
11.2252619716589;0.39971923828125;0.0014739990234375;8.82999997770639;884;100 mA
11.2352619716337;0.399810791015625;0.0014788818359375;8.83999997768115;885;100 mA
11.2452619716084;0.399749755859375;0.0014813232421875;8.8499999776559;886;100 mA
11.2552619715832;0.3997802734375;0.0014898681640625;8.85999997763065;887;100 mA
11.2652619715579;0.39971923828125;0.00148956298828125;8.8699999776054;888;100 mA
11.2752619715327;0.399749755859375;0.00149078369140625;8.87999997758016;889;100 mA
11.2852619715075;0.39971923828125;0.0014739990234375;8.88999997755491;890;100 mA
11.2952619714822;0.399810791015625;0.00148040771484375;8.89999997752966;891;100 mA
11.305261971457;0.39971923828125;0.00147857666015625;8.90999997750441;892;100 mA
11.3152619714317;0.399749755859375;0.00148712158203125;8.91999997747916;893;100 mA
11.3252619714065;0.39984130859375;0.00148712158203125;8.92999997745392;894;100 mA
11.3352619713812;0.3997802734375;0.001497802734375;8.93999997742867;895;100 mA
11.345261971356;0.39971923828125;0.00148712158203125;8.94999997740342;896;100 mA
11.3552619713307;0.399810791015625;0.00149017333984375;8.95999997737817;897;100 mA
11.3652619713055;0.3997802734375;0.001474609375;8.96999997735293;898;100 mA
11.3752619712802;0.39971923828125;0.00147247314453125;8.97999997732768;899;100 mA
11.385261971255;0.3997802734375;0.00147064208984375;8.98999997730243;900;100 mA
11.3952619712297;0.39984130859375;0.00147918701171875;8.99999997727718;901;100 mA
11.4052619712045;0.3997802734375;0.00147125244140625;9.00999997725194;902;100 mA
11.4152619711792;0.399810791015625;0.00147918701171875;9.01999997722669;903;100 mA
11.425261971154;0.3997802734375;0.00147735595703125;9.02999997720144;904;100 mA
11.4352619711287;0.399810791015625;0.001478271484375;9.03999997717619;905;100 mA
11.4452619711035;0.399810791015625;0.0014666748046875;9.04999997715095;906;100 mA
11.4552619710782;0.3997802734375;0.001466064453125;9.0599999771257;907;100 mA
11.465261971053;0.39971923828125;0.001463623046875;9.06999997710045;908;100 mA
11.4752619710277;0.3997802734375;0.00146820068359375;9.0799999770752;909;100 mA
11.4852619710025;0.3997802734375;0.00146514892578125;9.08999997704996;910;100 mA
11.4952619709773;0.399749755859375;0.00147125244140625;9.09999997702471;911;100 mA
11.505261970952;0.39971923828125;0.00147125244140625;9.10999997699946;912;100 mA
11.5152619709268;0.39984130859375;0.00146240234375;9.11999997697421;913;100 mA
11.5252619709015;0.39984130859375;0.00145233154296875;9.12999997694897;914;100 mA
11.5352619708763;0.399749755859375;0.0014483642578125;9.13999997692372;915;100 mA
11.545261970851;0.399749755859375;0.00145111083984375;9.14999997689847;916;100 mA
11.5552619708258;0.3997802734375;0.0014544677734375;9.15999997687322;917;100 mA
11.5652619708005;0.39971923828125;0.00145721435546875;9.16999997684798;918;100 mA
11.5752619707753;0.3997802734375;0.00146636962890625;9.17999997682273;919;100 mA
11.58526197075;0.399810791015625;0.0014703369140625;9.18999997679748;920;100 mA
11.5952619707248;0.399749755859375;0.001466064453125;9.19999997677223;921;100 mA
11.6052619706995;0.39971923828125;0.0014483642578125;9.20999997674699;922;100 mA
11.6152619706743;0.399749755859375;0.0014459228515625;9.21999997672174;923;100 mA
11.625261970649;0.39971923828125;0.00144927978515625;9.22999997669649;924;100 mA
11.6352619706238;0.3997802734375;0.00145660400390625;9.23999997667124;925;100 mA
11.6452619705985;0.399810791015625;0.00145660400390625;9.249999976646;926;100 mA
11.6552619705733;0.399749755859375;0.00146453857421875;9.25999997662075;927;100 mA
11.665261970548;0.3997802734375;0.00146392822265625;9.2699999765955;928;100 mA
11.6752619705228;0.399749755859375;0.00146514892578125;9.27999997657025;929;100 mA
11.6852619704975;0.399810791015625;0.001448974609375;9.289999976545;930;100 mA
11.6952619704723;0.399749755859375;0.00145294189453125;9.29999997651976;931;100 mA
11.7052619704471;0.39971923828125;0.00145263671875;9.30999997649451;932;100 mA
11.7152619704218;0.399749755859375;0.00146209716796875;9.31999997646926;933;100 mA
11.7252619703966;0.399749755859375;0.00146148681640625;9.32999997644401;934;100 mA
11.7352619703713;0.399810791015625;0.00147705078125;9.33999997641877;935;100 mA
11.7452619703461;0.399749755859375;0.00147064208984375;9.34999997639352;936;100 mA
11.7552619703208;0.3997802734375;0.00147674560546875;9.35999997636827;937;100 mA
11.7652619702956;0.399749755859375;0.00146392822265625;9.36999997634302;938;100 mA
11.7752619702703;0.399749755859375;0.00146392822265625;9.37999997631778;939;100 mA
11.7852619702451;0.3997802734375;0.00146759033203125;9.38999997629253;940;100 mA
11.7952619702198;0.399749755859375;0.00147979736328125;9.39999997626728;941;100 mA
11.8052619701946;0.399749755859375;0.001475830078125;9.40999997624203;942;100 mA
11.8152619701693;0.3997802734375;0.0014862060546875;9.41999997621679;943;100 mA
11.8252619701441;0.399749755859375;0.001488037109375;9.42999997619154;944;100 mA
11.8352619701188;0.399749755859375;0.00149017333984375;9.43999997616629;945;100 mA
11.8452619700936;0.39971923828125;0.0014794921875;9.44999997614104;946;100 mA
11.8552619700683;0.3997802734375;0.001475830078125;9.4599999761158;947;100 mA
11.8652619700431;0.399749755859375;0.0014752197265625;9.46999997609055;948;100 mA
11.8752619700178;0.3997802734375;0.00148406982421875;9.4799999760653;949;100 mA
11.8852619699926;0.3997802734375;0.00148681640625;9.48999997604005;950;100 mA
11.8952619699674;0.399749755859375;0.00149383544921875;9.49999997601481;951;100 mA
11.9052619699421;0.399810791015625;0.0014996337890625;9.50999997598956;952;100 mA
11.9152619699169;0.399749755859375;0.00149383544921875;9.51999997596431;953;100 mA
11.9252619698916;0.399749755859375;0.00148712158203125;9.52999997593906;954;100 mA
11.9352619698664;0.399810791015625;0.00148284912109375;9.53999997591382;955;100 mA
11.9452619698411;0.399749755859375;0.00148651123046875;9.54999997588857;956;100 mA
11.9552619698159;0.399810791015625;0.00148834228515625;9.55999997586332;957;100 mA
11.9652619697906;0.3997802734375;0.00148895263671875;9.56999997583807;958;100 mA
11.9752619697654;0.399810791015625;0.00149810791015625;9.57999997581283;959;100 mA
11.9852619697401;0.399810791015625;0.00150146484375;9.58999997578758;960;100 mA
11.9952619697149;0.399749755859375;0.00150146484375;9.59999997576233;961;100 mA
12.0052619696896;0.399810791015625;0.0014849853515625;9.60999997573708;962;100 mA
12.0152619696644;0.399749755859375;0.001480712890625;9.61999997571183;963;100 mA
12.0252619696391;0.39984130859375;0.0014825439453125;9.62999997568659;964;100 mA
12.0352619696139;0.399749755859375;0.0014898681640625;9.63999997566134;965;100 mA
12.0452619695886;0.39971923828125;0.00148834228515625;9.64999997563609;966;100 mA
12.0552619695634;0.399810791015625;0.00149627685546875;9.65999997561084;967;100 mA
12.0652619695381;0.399810791015625;0.00149078369140625;9.6699999755856;968;100 mA
12.0752619695129;0.3997802734375;0.00149169921875;9.67999997556035;969;100 mA
12.0852619694876;0.3997802734375;0.001474609375;9.6899999755351;970;100 mA
12.0952619694624;0.39971923828125;0.00147979736328125;9.69999997550985;971;100 mA
12.1052619694372;0.3997802734375;0.00147796630859375;9.70999997548461;972;100 mA
12.1152619694119;0.399810791015625;0.0014862060546875;9.71999997545936;973;100 mA
12.1252619693867;0.3997802734375;0.0014849853515625;9.72999997543411;974;100 mA
12.1352619693614;0.399749755859375;0.00149871826171875;9.73999997540886;975;100 mA
12.1452619693362;0.399749755859375;0.00149658203125;9.74999997538362;976;100 mA
12.1552619693109;0.39971923828125;0.00150604248046875;9.75999997535837;977;100 mA
12.1652619692857;0.399749755859375;0.0014935302734375;9.76999997533312;978;100 mA
12.1752619692604;0.399749755859375;0.00149169921875;9.77999997530787;979;100 mA
12.1852619692352;0.39984130859375;0.001494140625;9.78999997528263;980;100 mA
12.1952619692099;0.3997802734375;0.00150543212890625;9.79999997525738;981;100 mA
12.2052619691847;0.3997802734375;0.00150054931640625;9.80999997523213;982;100 mA
12.2152619691594;0.3997802734375;0.00150909423828125;9.81999997520688;983;100 mA
12.2252619691342;0.399749755859375;0.0015118408203125;9.82999997518164;984;100 mA
12.2352619691089;0.399810791015625;0.0015130615234375;9.83999997515639;985;100 mA
12.2452619690837;0.399749755859375;0.00150787353515625;9.84999997513114;986;100 mA
12.2552619690584;0.399749755859375;0.00150787353515625;9.85999997510589;987;100 mA
12.2652619690332;0.3997802734375;0.0015081787109375;9.86999997508065;988;100 mA
12.2752619690079;0.3997802734375;0.00151763916015625;9.8799999750554;989;100 mA
12.2852619689827;0.3997802734375;0.00151885986328125;9.88999997503015;990;100 mA
12.2952619689574;0.399749755859375;0.00152923583984375;9.8999999750049;991;100 mA
12.3052619689322;0.399810791015625;0.00153533935546875;9.90999997497966;992;100 mA
12.315261968907;0.399810791015625;0.00153411865234375;9.91999997495441;993;100 mA
12.3252619688817;0.399749755859375;0.00152435302734375;9.92999997492916;994;100 mA
12.3352619688565;0.3997802734375;0.0015203857421875;9.93999997490391;995;100 mA
12.3452619688312;0.399749755859375;0.00151947021484375;9.94999997487866;996;100 mA
12.355261968806;0.399810791015625;0.00152130126953125;9.95999997485342;997;100 mA
12.3652619687807;0.399749755859375;0.00152008056640625;9.96999997482817;998;100 mA
12.3752619687555;0.3997802734375;0.0015325927734375;9.97999997480292;999;100 mA
12.3852619687302;0.3997802734375;0.00153656005859375;9.98999997477767;1000;100 mA
