Time (s);WE(1).Potential (V);WE(1).Current (A);Corrected time (s);Index;Current range
12.8614609675279;0.2999267578125;0.00066192626953125;0;1;100 mA
12.8714609675027;0.299835205078125;0.00090484619140625;0.00999999997475243;2;100 mA
12.8814609674774;0.299835205078125;0.00101104736328125;0.0199999999495049;3;100 mA
12.8914609674522;0.299835205078125;0.00107635498046875;0.0299999999242573;4;100 mA
12.9014609674269;0.29986572265625;0.00112823486328125;0.0399999998990097;5;100 mA
12.9114609674017;0.2999267578125;0.0011614990234375;0.0499999998737621;6;100 mA
12.9214609673764;0.299835205078125;0.001197509765625;0.0599999998485146;7;100 mA
12.9314609673512;0.2999267578125;0.0012225341796875;0.069999999823267;8;100 mA
12.941460967326;0.299835205078125;0.0012347412109375;0.0799999997980194;9;100 mA
12.9514609673007;0.2998046875;0.00124847412109375;0.0899999997727718;10;100 mA
12.9614609672755;0.299835205078125;0.001251220703125;0.0999999997475243;11;100 mA
12.9714609672502;0.299835205078125;0.00126373291015625;0.109999999722277;12;100 mA
12.981460967225;0.29986572265625;0.0012823486328125;0.119999999697029;13;100 mA
12.9914609671997;0.299835205078125;0.00128662109375;0.129999999671782;14;100 mA
13.0014609671745;0.29986572265625;0.00130157470703125;0.139999999646534;15;100 mA
13.0114609671492;0.29986572265625;0.00130828857421875;0.149999999621286;16;100 mA
13.021460967124;0.29986572265625;0.001312255859375;0.159999999596039;17;100 mA
13.0314609670987;0.299835205078125;0.0013165283203125;0.169999999570791;18;100 mA
13.0414609670735;0.299896240234375;0.00131072998046875;0.179999999545544;19;100 mA
13.0514609670482;0.299896240234375;0.0013128662109375;0.189999999520296;20;100 mA
13.061460967023;0.29986572265625;0.00131744384765625;0.199999999495049;21;100 mA
13.0714609669977;0.29986572265625;0.001319580078125;0.209999999469801;22;100 mA
13.0814609669725;0.299835205078125;0.00132293701171875;0.219999999444553;23;100 mA
13.0914609669472;0.299835205078125;0.00132781982421875;0.229999999419306;24;100 mA
13.101460966922;0.299835205078125;0.001322021484375;0.239999999394058;25;100 mA
13.1114609668967;0.299896240234375;0.00131866455078125;0.249999999368811;26;100 mA
13.1214609668715;0.299774169921875;0.00131256103515625;0.259999999343563;27;100 mA
13.1314609668462;0.299835205078125;0.001317138671875;0.269999999318316;28;100 mA
13.141460966821;0.299835205078125;0.00131805419921875;0.279999999293068;29;100 mA
13.1514609667958;0.2999267578125;0.00132110595703125;0.28999999926782;30;100 mA
13.1614609667705;0.2999267578125;0.001322021484375;0.299999999242573;31;100 mA
13.1714609667453;0.299835205078125;0.0013311767578125;0.309999999217325;32;100 mA
13.18146096672;0.29986572265625;0.00132476806640625;0.319999999192078;33;100 mA
13.1914609666948;0.299896240234375;0.00132110595703125;0.32999999916683;34;100 mA
13.2014609666695;0.2999267578125;0.00131072998046875;0.339999999141583;35;100 mA
13.2114609666443;0.29986572265625;0.00131256103515625;0.349999999116335;36;100 mA
13.221460966619;0.299835205078125;0.00132354736328125;0.359999999091087;37;100 mA
13.2314609665938;0.29986572265625;0.00132965087890625;0.36999999906584;38;100 mA
13.2414609665685;0.29986572265625;0.00133392333984375;0.379999999040592;39;100 mA
13.2514609665433;0.29986572265625;0.00134368896484375;0.389999999015345;40;100 mA
13.261460966518;0.29986572265625;0.00133880615234375;0.399999998990097;41;100 mA
13.2714609664928;0.29986572265625;0.001337890625;0.40999999896485;42;100 mA
13.2814609664675;0.2999267578125;0.00133331298828125;0.419999998939602;43;100 mA
13.2914609664423;0.299835205078125;0.00133758544921875;0.429999998914354;44;100 mA
13.301460966417;0.299835205078125;0.0013482666015625;0.439999998889107;45;100 mA
13.3114609663918;0.299896240234375;0.00135223388671875;0.449999998863859;46;100 mA
13.3214609663665;0.299835205078125;0.00136444091796875;0.459999998838612;47;100 mA
13.3314609663413;0.299835205078125;0.00137542724609375;0.469999998813364;48;100 mA
13.341460966316;0.299835205078125;0.0013739013671875;0.479999998788116;49;100 mA
13.3514609662908;0.29986572265625;0.00137359619140625;0.489999998762869;50;100 mA
13.3614609662656;0.29986572265625;0.00136505126953125;0.499999998737621;51;100 mA
13.3714609662403;0.299835205078125;0.00136627197265625;0.509999998712374;52;100 mA
13.3814609662151;0.299835205078125;0.0013726806640625;0.519999998687126;53;100 mA
13.3914609661898;0.299835205078125;0.0013671875;0.529999998661879;54;100 mA
13.4014609661646;0.29986572265625;0.00137420654296875;0.539999998636631;55;100 mA
13.4114609661393;0.299896240234375;0.00137481689453125;0.549999998611383;56;100 mA
13.4214609661141;0.29986572265625;0.00137298583984375;0.559999998586136;57;100 mA
13.4314609660888;0.299835205078125;0.001370849609375;0.569999998560888;58;100 mA
13.4414609660636;0.2998046875;0.00136077880859375;0.579999998535641;59;100 mA
13.4514609660383;0.2998046875;0.00136016845703125;0.589999998510393;60;100 mA
13.4614609660131;0.299835205078125;0.0013629150390625;0.599999998485146;61;100 mA
13.4714609659878;0.2998046875;0.00136383056640625;0.609999998459898;62;100 mA
13.4814609659626;0.299896240234375;0.0013641357421875;0.61999999843465;63;100 mA
13.4914609659373;0.2998046875;0.0013714599609375;0.629999998409403;64;100 mA
13.5014609659121;0.299896240234375;0.0013641357421875;0.639999998384155;65;100 mA
13.5114609658868;0.299835205078125;0.0013555908203125;0.649999998358908;66;100 mA
13.5214609658616;0.29986572265625;0.00134521484375;0.65999999833366;67;100 mA
13.5314609658363;0.29986572265625;0.00134796142578125;0.669999998308413;68;100 mA
13.5414609658111;0.299835205078125;0.00134796142578125;0.679999998283165;69;100 mA
13.5514609657859;0.29986572265625;0.00134857177734375;0.689999998257917;70;100 mA
13.5614609657606;0.29986572265625;0.00135162353515625;0.69999999823267;71;100 mA
13.5714609657354;0.299835205078125;0.0013629150390625;0.709999998207422;72;100 mA
13.5814609657101;0.29986572265625;0.00135894775390625;0.719999998182175;73;100 mA
13.5914609656849;0.29986572265625;0.0013543701171875;0.729999998156927;74;100 mA
13.6014609656596;0.29986572265625;0.0013446044921875;0.73999999813168;75;100 mA
13.6114609656344;0.299835205078125;0.0013433837890625;0.749999998106432;76;100 mA
13.6214609656091;0.299835205078125;0.001351318359375;0.759999998081184;77;100 mA
13.6314609655839;0.29986572265625;0.0013507080078125;0.769999998055937;78;100 mA
13.6414609655586;0.29986572265625;0.0013494873046875;0.779999998030689;79;100 mA
13.6514609655334;0.29986572265625;0.0013507080078125;0.789999998005442;80;100 mA
13.6614609655081;0.2999267578125;0.0013446044921875;0.799999997980194;81;100 mA
13.6714609654829;0.29986572265625;0.0013397216796875;0.809999997954947;82;100 mA
13.6814609654576;0.299835205078125;0.00133392333984375;0.819999997929699;83;100 mA
13.6914609654324;0.299835205078125;0.00133697509765625;0.829999997904451;84;100 mA
13.7014609654071;0.299835205078125;0.0013482666015625;0.839999997879204;85;100 mA
13.7114609653819;0.29986572265625;0.00134796142578125;0.849999997853956;86;100 mA
13.7214609653566;0.29986572265625;0.001356201171875;0.859999997828709;87;100 mA
13.7314609653314;0.29986572265625;0.00136322021484375;0.869999997803461;88;100 mA
13.7414609653061;0.299896240234375;0.0013568115234375;0.879999997778214;89;100 mA
13.7514609652809;0.299896240234375;0.00135406494140625;0.889999997752966;90;100 mA
13.7614609652557;0.299896240234375;0.001343994140625;0.899999997727718;91;100 mA
13.7714609652304;0.29986572265625;0.00134429931640625;0.909999997702471;92;100 mA
13.7814609652052;0.299835205078125;0.001356201171875;0.919999997677223;93;100 mA
13.7914609651799;0.2998046875;0.00135284423828125;0.929999997651976;94;100 mA
13.8014609651547;0.299896240234375;0.001363525390625;0.939999997626728;95;100 mA
13.8114609651294;0.299835205078125;0.0013690185546875;0.949999997601481;96;100 mA
13.8214609651042;0.299835205078125;0.00136962890625;0.959999997576233;97;100 mA
13.8314609650789;0.299896240234375;0.00136627197265625;0.969999997550985;98;100 mA
13.8414609650537;0.29986572265625;0.0013592529296875;0.979999997525738;99;100 mA
13.8514609650284;0.29986572265625;0.00135955810546875;0.98999999750049;100;100 mA
13.8614609650032;0.299896240234375;0.001363525390625;0.999999997475243;101;100 mA
13.8714609649779;0.29986572265625;0.00136383056640625;1.00999999745;102;100 mA
13.8814609649527;0.2999267578125;0.0013623046875;1.01999999742475;103;100 mA
13.8914609649274;0.299835205078125;0.00137237548828125;1.0299999973995;104;100 mA
13.9014609649022;0.29986572265625;0.00136322021484375;1.03999999737425;105;100 mA
13.9114609648769;0.29986572265625;0.001357421875;1.049999997349;106;100 mA
13.9214609648517;0.299896240234375;0.00134490966796875;1.05999999732376;107;100 mA
13.9314609648264;0.299835205078125;0.00134735107421875;1.06999999729851;108;100 mA
13.9414609648012;0.299835205078125;0.00134613037109375;1.07999999727326;109;100 mA
13.9514609647759;0.29986572265625;0.0013446044921875;1.08999999724801;110;100 mA
13.9614609647507;0.299835205078125;0.00134552001953125;1.09999999722277;111;100 mA
13.9714609647255;0.299835205078125;0.0013507080078125;1.10999999719752;112;100 mA
13.9814609647002;0.29986572265625;0.0013421630859375;1.11999999717227;113;100 mA
13.991460964675;0.299896240234375;0.001336669921875;1.12999999714702;114;100 mA
14.0014609646497;0.29986572265625;0.0013250732421875;1.13999999712178;115;100 mA
14.0114609646245;0.299896240234375;0.0013250732421875;1.14999999709653;116;100 mA
14.0214609645992;0.299835205078125;0.001331787109375;1.15999999707128;117;100 mA
14.031460964574;0.299774169921875;0.001331787109375;1.16999999704603;118;100 mA
14.0414609645487;0.29986572265625;0.0013323974609375;1.17999999702079;119;100 mA
14.0514609645235;0.299835205078125;0.0013360595703125;1.18999999699554;120;100 mA
14.0614609644982;0.29986572265625;0.00133209228515625;1.19999999697029;121;100 mA
14.071460964473;0.299896240234375;0.00132537841796875;1.20999999694504;122;100 mA
14.0814609644477;0.299835205078125;0.0013177490234375;1.2199999969198;123;100 mA
14.0914609644225;0.299835205078125;0.00131561279296875;1.22999999689455;124;100 mA
14.1014609643972;0.299835205078125;0.00132232666015625;1.2399999968693;125;100 mA
14.111460964372;0.29986572265625;0.00131805419921875;1.24999999684405;126;100 mA
14.1214609643467;0.29986572265625;0.00132415771484375;1.25999999681881;127;100 mA
14.1314609643215;0.2998046875;0.00132720947265625;1.26999999679356;128;100 mA
14.1414609642962;0.299835205078125;0.00132476806640625;1.27999999676831;129;100 mA
14.151460964271;0.29986572265625;0.00132080078125;1.28999999674306;130;100 mA
14.1614609642457;0.2998046875;0.00131622314453125;1.29999999671782;131;100 mA
14.1714609642205;0.29986572265625;0.00131744384765625;1.30999999669257;132;100 mA
14.1814609641953;0.29986572265625;0.00132904052734375;1.31999999666732;133;100 mA
14.19146096417;0.29986572265625;0.0013214111328125;1.32999999664207;134;100 mA
14.2014609641448;0.29986572265625;0.00132781982421875;1.33999999661683;135;100 mA
14.2114609641195;0.299835205078125;0.00133270263671875;1.34999999659158;136;100 mA
14.2214609640943;0.299835205078125;0.00133209228515625;1.35999999656633;137;100 mA
14.231460964069;0.299835205078125;0.00132965087890625;1.36999999654108;138;100 mA
14.2414609640438;0.29986572265625;0.0013201904296875;1.37999999651583;139;100 mA
14.2514609640185;0.2998046875;0.001324462890625;1.38999999649059;140;100 mA
14.2614609639933;0.299896240234375;0.0013287353515625;1.39999999646534;141;100 mA
14.271460963968;0.29986572265625;0.00133392333984375;1.40999999644009;142;100 mA
14.2814609639428;0.299835205078125;0.00133392333984375;1.41999999641484;143;100 mA
14.2914609639175;0.2998046875;0.00134063720703125;1.4299999963896;144;100 mA
14.3014609638923;0.29986572265625;0.0013348388671875;1.43999999636435;145;100 mA
14.311460963867;0.299835205078125;0.001329345703125;1.4499999963391;146;100 mA
14.3214609638418;0.299835205078125;0.00131988525390625;1.45999999631385;147;100 mA
14.3314609638165;0.29986572265625;0.0013238525390625;1.46999999628861;148;100 mA
14.3414609637913;0.299835205078125;0.00132415771484375;1.47999999626336;149;100 mA
14.351460963766;0.299896240234375;0.0013262939453125;1.48999999623811;150;100 mA
14.3614609637408;0.29986572265625;0.001328125;1.49999999621286;151;100 mA
14.3714609637155;0.299835205078125;0.0013372802734375;1.50999999618762;152;100 mA
14.3814609636903;0.299835205078125;0.00133056640625;1.51999999616237;153;100 mA
14.3914609636651;0.2998046875;0.00132415771484375;1.52999999613712;154;100 mA
14.4014609636398;0.2999267578125;0.00131500244140625;1.53999999611187;155;100 mA
14.4114609636146;0.299896240234375;0.00131591796875;1.54999999608663;156;100 mA
14.4214609635893;0.29986572265625;0.0013250732421875;1.55999999606138;157;100 mA
14.4314609635641;0.29986572265625;0.00132537841796875;1.56999999603613;158;100 mA
14.4414609635388;0.299896240234375;0.001324462890625;1.57999999601088;159;100 mA
14.4514609635136;0.2999267578125;0.0013275146484375;1.58999999598564;160;100 mA
14.4614609634883;0.299835205078125;0.0013214111328125;1.59999999596039;161;100 mA
14.4714609634631;0.29986572265625;0.00131439208984375;1.60999999593514;162;100 mA
14.4814609634378;0.2999267578125;0.00130767822265625;1.61999999590989;163;100 mA
14.4914609634126;0.29986572265625;0.00130706787109375;1.62999999588465;164;100 mA
14.5014609633873;0.299835205078125;0.00131591796875;1.6399999958594;165;100 mA
14.5114609633621;0.29986572265625;0.0013140869140625;1.64999999583415;166;100 mA
14.5214609633368;0.29986572265625;0.00132415771484375;1.6599999958089;167;100 mA
14.5314609633116;0.29986572265625;0.0013311767578125;1.66999999578366;168;100 mA
14.5414609632863;0.299896240234375;0.0013287353515625;1.67999999575841;169;100 mA
14.5514609632611;0.29986572265625;0.00132598876953125;1.68999999573316;170;100 mA
14.5614609632358;0.299896240234375;0.0013214111328125;1.69999999570791;171;100 mA
14.5714609632106;0.299835205078125;0.0013250732421875;1.70999999568267;172;100 mA
14.5814609631854;0.2998046875;0.001336669921875;1.71999999565742;173;100 mA
14.5914609631601;0.299835205078125;0.00133148193359375;1.72999999563217;174;100 mA
14.6014609631349;0.2998046875;0.001337890625;1.73999999560692;175;100 mA
14.6114609631096;0.29986572265625;0.0013409423828125;1.74999999558167;176;100 mA
14.6214609630844;0.29986572265625;0.00133758544921875;1.75999999555643;177;100 mA
14.6314609630591;0.2999267578125;0.001331787109375;1.76999999553118;178;100 mA
14.6414609630339;0.299896240234375;0.0013201904296875;1.77999999550593;179;100 mA
14.6514609630086;0.299896240234375;0.0013189697265625;1.78999999548068;180;100 mA
14.6614609629834;0.29986572265625;0.001322021484375;1.79999999545544;181;100 mA
14.6714609629581;0.299835205078125;0.0013262939453125;1.80999999543019;182;100 mA
14.6814609629329;0.299835205078125;0.00132720947265625;1.81999999540494;183;100 mA
14.6914609629076;0.299835205078125;0.00133453369140625;1.82999999537969;184;100 mA
14.7014609628824;0.299835205078125;0.0013275146484375;1.83999999535445;185;100 mA
14.7114609628571;0.29986572265625;0.001322021484375;1.8499999953292;186;100 mA
14.7214609628319;0.29986572265625;0.00131439208984375;1.85999999530395;187;100 mA
14.7314609628066;0.29986572265625;0.00131744384765625;1.8699999952787;188;100 mA
14.7414609627814;0.299835205078125;0.001319580078125;1.87999999525346;189;100 mA
14.7514609627561;0.29986572265625;0.0013232421875;1.88999999522821;190;100 mA
14.7614609627309;0.29986572265625;0.00132720947265625;1.89999999520296;191;100 mA
14.7714609627056;0.29986572265625;0.00133453369140625;1.90999999517771;192;100 mA
14.7814609626804;0.299896240234375;0.00132781982421875;1.91999999515247;193;100 mA
14.7914609626552;0.29986572265625;0.00132293701171875;1.92999999512722;194;100 mA
14.8014609626299;0.2998046875;0.00131317138671875;1.93999999510197;195;100 mA
14.8114609626047;0.299835205078125;0.0013153076171875;1.94999999507672;196;100 mA
14.8214609625794;0.2998046875;0.001328125;1.95999999505148;197;100 mA
14.8314609625542;0.299835205078125;0.0013323974609375;1.96999999502623;198;100 mA
14.8414609625289;0.299774169921875;0.00133758544921875;1.97999999500098;199;100 mA
14.8514609625037;0.29986572265625;0.0013458251953125;1.98999999497573;200;100 mA
14.8614609624784;0.299896240234375;0.0013427734375;1.99999999495049;201;100 mA
14.8714609624532;0.299835205078125;0.0013385009765625;2.00999999492524;202;100 mA
14.8814609624279;0.2998046875;0.0013330078125;2.01999999489999;203;100 mA
14.8914609624027;0.299896240234375;0.00133056640625;2.02999999487474;204;100 mA
14.9014609623774;0.299835205078125;0.00133819580078125;2.0399999948495;205;100 mA
14.9114609623522;0.29986572265625;0.0013330078125;2.04999999482425;206;100 mA
14.9214609623269;0.299896240234375;0.00134033203125;2.059999994799;207;100 mA
14.9314609623017;0.29986572265625;0.00134490966796875;2.06999999477375;208;100 mA
14.9414609622764;0.2999267578125;0.00133819580078125;2.0799999947485;209;100 mA
14.9514609622512;0.299896240234375;0.00133544921875;2.08999999472326;210;100 mA
14.9614609622259;0.299774169921875;0.0013299560546875;2.09999999469801;211;100 mA
14.9714609622007;0.299896240234375;0.0013323974609375;2.10999999467276;212;100 mA
14.9814609621754;0.2998046875;0.00134185791015625;2.11999999464751;213;100 mA
14.9914609621502;0.299835205078125;0.00133636474609375;2.12999999462227;214;100 mA
15.001460962125;0.29986572265625;0.0013427734375;2.13999999459702;215;100 mA
15.0114609620997;0.29986572265625;0.00134979248046875;2.14999999457177;216;100 mA
15.0214609620745;0.299835205078125;0.00134613037109375;2.15999999454652;217;100 mA
15.0314609620492;0.29986572265625;0.00134063720703125;2.16999999452128;218;100 mA
15.041460962024;0.2998046875;0.001328125;2.17999999449603;219;100 mA
15.0514609619987;0.29986572265625;0.00132965087890625;2.18999999447078;220;100 mA
15.0614609619735;0.29986572265625;0.0013311767578125;2.19999999444553;221;100 mA
15.0714609619482;0.299835205078125;0.00133544921875;2.20999999442029;222;100 mA
15.081460961923;0.29986572265625;0.00133514404296875;2.21999999439504;223;100 mA
15.0914609618977;0.299896240234375;0.00134490966796875;2.22999999436979;224;100 mA
15.1014609618725;0.299896240234375;0.001339111328125;2.23999999434454;225;100 mA
15.1114609618472;0.299835205078125;0.0013360595703125;2.2499999943193;226;100 mA
15.121460961822;0.2998046875;0.0013287353515625;2.25999999429405;227;100 mA
15.1314609617967;0.29986572265625;0.0013330078125;2.2699999942688;228;100 mA
15.1414609617715;0.2998046875;0.00133636474609375;2.27999999424355;229;100 mA
15.1514609617462;0.2998046875;0.00134124755859375;2.28999999421831;230;100 mA
15.161460961721;0.29986572265625;0.00134490966796875;2.29999999419306;231;100 mA
15.1714609616957;0.299835205078125;0.0013519287109375;2.30999999416781;232;100 mA
15.1814609616705;0.29986572265625;0.00134246826171875;2.31999999414256;233;100 mA
15.1914609616452;0.29986572265625;0.00133453369140625;2.32999999411732;234;100 mA
15.20146096162;0.29986572265625;0.0013226318359375;2.33999999409207;235;100 mA
15.2114609615948;0.2999267578125;0.0013214111328125;2.34999999406682;236;100 mA
15.2214609615695;0.299835205078125;0.00133056640625;2.35999999404157;237;100 mA
15.2314609615443;0.299835205078125;0.00133148193359375;2.36999999401633;238;100 mA
15.241460961519;0.29986572265625;0.0013372802734375;2.37999999399108;239;100 mA
15.2514609614938;0.29986572265625;0.00134490966796875;2.38999999396583;240;100 mA
15.2614609614685;0.29986572265625;0.00134185791015625;2.39999999394058;241;100 mA
15.2714609614433;0.299835205078125;0.00133575439453125;2.40999999391533;242;100 mA
15.281460961418;0.29986572265625;0.00132781982421875;2.41999999389009;243;100 mA
15.2914609613928;0.299835205078125;0.00132598876953125;2.42999999386484;244;100 mA
15.3014609613675;0.299835205078125;0.00133544921875;2.43999999383959;245;100 mA
15.3114609613423;0.299835205078125;0.00133392333984375;2.44999999381434;246;100 mA
15.321460961317;0.299835205078125;0.00134368896484375;2.4599999937891;247;100 mA
15.3314609612918;0.29986572265625;0.0013525390625;2.46999999376385;248;100 mA
15.3414609612665;0.2998046875;0.0013519287109375;2.4799999937386;249;100 mA
15.3514609612413;0.299896240234375;0.00134918212890625;2.48999999371335;250;100 mA
15.361460961216;0.29986572265625;0.0013458251953125;2.49999999368811;251;100 mA
15.3714609611908;0.299835205078125;0.00134918212890625;2.50999999366286;252;100 mA
15.3814609611655;0.29986572265625;0.0013555908203125;2.51999999363761;253;100 mA
15.3914609611403;0.2998046875;0.0013531494140625;2.52999999361236;254;100 mA
15.401460961115;0.2998046875;0.00135833740234375;2.53999999358712;255;100 mA
15.4114609610898;0.29986572265625;0.0013653564453125;2.54999999356187;256;100 mA
15.4214609610646;0.29986572265625;0.0013592529296875;2.55999999353662;257;100 mA
15.4314609610393;0.29986572265625;0.00135162353515625;2.56999999351137;258;100 mA
15.4414609610141;0.299835205078125;0.001336669921875;2.57999999348613;259;100 mA
15.4514609609888;0.299835205078125;0.0013360595703125;2.58999999346088;260;100 mA
15.4614609609636;0.299835205078125;0.001337890625;2.59999999343563;261;100 mA
15.4714609609383;0.299835205078125;0.00134307861328125;2.60999999341038;262;100 mA
15.4814609609131;0.299896240234375;0.00134368896484375;2.61999999338514;263;100 mA
15.4914609608878;0.29986572265625;0.00135284423828125;2.62999999335989;264;100 mA
15.5014609608626;0.299896240234375;0.00134765625;2.63999999333464;265;100 mA
15.5114609608373;0.299835205078125;0.00134063720703125;2.64999999330939;266;100 mA
15.5214609608121;0.2998046875;0.00133209228515625;2.65999999328415;267;100 mA
15.5314609607868;0.299835205078125;0.0013360595703125;2.6699999932589;268;100 mA
15.5414609607616;0.29986572265625;0.001337890625;2.67999999323365;269;100 mA
15.5514609607363;0.2999267578125;0.00134246826171875;2.6899999932084;270;100 mA
15.5614609607111;0.299835205078125;0.00134674072265625;2.69999999318316;271;100 mA
15.5714609606858;0.29986572265625;0.0013543701171875;2.70999999315791;272;100 mA
15.5814609606606;0.299835205078125;0.00134613037109375;2.71999999313266;273;100 mA
15.5914609606353;0.29986572265625;0.0013397216796875;2.72999999310741;274;100 mA
15.6014609606101;0.299835205078125;0.0013311767578125;2.73999999308217;275;100 mA
15.6114609605848;0.299896240234375;0.00132965087890625;2.74999999305692;276;100 mA
15.6214609605596;0.29986572265625;0.00134124755859375;2.75999999303167;277;100 mA
15.6314609605344;0.29986572265625;0.00133880615234375;2.76999999300642;278;100 mA
15.6414609605091;0.299835205078125;0.0013427734375;2.77999999298117;279;100 mA
15.6514609604839;0.29986572265625;0.0013494873046875;2.78999999295593;280;100 mA
15.6614609604586;0.299835205078125;0.001343994140625;2.79999999293068;281;100 mA
15.6714609604334;0.299835205078125;0.0013372802734375;2.80999999290543;282;100 mA
15.6814609604081;0.29986572265625;0.0013311767578125;2.81999999288018;283;100 mA
15.6914609603829;0.299835205078125;0.00133026123046875;2.82999999285494;284;100 mA
15.7014609603576;0.299835205078125;0.00134307861328125;2.83999999282969;285;100 mA
15.7114609603324;0.29986572265625;0.00134490966796875;2.84999999280444;286;100 mA
15.7214609603071;0.29986572265625;0.0013555908203125;2.85999999277919;287;100 mA
15.7314609602819;0.29986572265625;0.0013641357421875;2.86999999275395;288;100 mA
15.7414609602566;0.299896240234375;0.00135772705078125;2.8799999927287;289;100 mA
15.7514609602314;0.299835205078125;0.001351318359375;2.88999999270345;290;100 mA
15.7614609602061;0.29986572265625;0.00134063720703125;2.8999999926782;291;100 mA
15.7714609601809;0.2998046875;0.00134033203125;2.90999999265296;292;100 mA
15.7814609601556;0.299835205078125;0.0013446044921875;2.91999999262771;293;100 mA
15.7914609601304;0.29986572265625;0.00133941650390625;2.92999999260246;294;100 mA
15.8014609601051;0.299835205078125;0.00134552001953125;2.93999999257721;295;100 mA
15.8114609600799;0.299896240234375;0.0013555908203125;2.94999999255197;296;100 mA
15.8214609600547;0.29986572265625;0.00135162353515625;2.95999999252672;297;100 mA
15.8314609600294;0.29986572265625;0.00134674072265625;2.96999999250147;298;100 mA
15.8414609600042;0.299835205078125;0.00133270263671875;2.97999999247622;299;100 mA
15.8514609599789;0.299896240234375;0.00133544921875;2.98999999245098;300;100 mA
15.8614609599537;0.299835205078125;0.0013385009765625;2.99999999242573;301;100 mA
15.8714609599284;0.299835205078125;0.00134674072265625;3.00999999240048;302;100 mA
15.8814609599032;0.299835205078125;0.00134490966796875;3.01999999237523;303;100 mA
15.8914609598779;0.299835205078125;0.0013525390625;3.02999999234999;304;100 mA
15.9014609598527;0.29986572265625;0.0013494873046875;3.03999999232474;305;100 mA
15.9114609598274;0.29986572265625;0.00134674072265625;3.04999999229949;306;100 mA
15.9214609598022;0.29986572265625;0.0013372802734375;3.05999999227424;307;100 mA
15.9314609597769;0.2998046875;0.00133941650390625;3.069999992249;308;100 mA
15.9414609597517;0.29986572265625;0.00134002685546875;3.07999999222375;309;100 mA
15.9514609597264;0.299835205078125;0.0013446044921875;3.0899999921985;310;100 mA
15.9614609597012;0.29986572265625;0.0013470458984375;3.09999999217325;311;100 mA
15.9714609596759;0.299835205078125;0.00135284423828125;3.109999992148;312;100 mA
15.9814609596507;0.299896240234375;0.00134490966796875;3.11999999212276;313;100 mA
15.9914609596254;0.2998046875;0.00133880615234375;3.12999999209751;314;100 mA
16.0014609596002;0.29986572265625;0.001329345703125;3.13999999207226;315;100 mA
16.0114609595749;0.299835205078125;0.001326904296875;3.14999999204701;316;100 mA
16.0214609595497;0.29986572265625;0.001336669921875;3.15999999202177;317;100 mA
16.0314609595245;0.299835205078125;0.00133544921875;3.16999999199652;318;100 mA
16.0414609594992;0.299835205078125;0.00134063720703125;3.17999999197127;319;100 mA
16.051460959474;0.299835205078125;0.00134857177734375;3.18999999194602;320;100 mA
16.0614609594487;0.29986572265625;0.00134490966796875;3.19999999192078;321;100 mA
16.0714609594235;0.299835205078125;0.00134002685546875;3.20999999189553;322;100 mA
16.0814609593982;0.29986572265625;0.00133575439453125;3.21999999187028;323;100 mA
16.091460959373;0.29986572265625;0.00133087158203125;3.22999999184503;324;100 mA
16.1014609593477;0.29986572265625;0.00134124755859375;3.23999999181979;325;100 mA
16.1114609593225;0.299896240234375;0.0013397216796875;3.24999999179454;326;100 mA
16.1214609592972;0.2998046875;0.00135101318359375;3.25999999176929;327;100 mA
16.131460959272;0.2998046875;0.00136016845703125;3.26999999174404;328;100 mA
16.1414609592467;0.299835205078125;0.00135498046875;3.2799999917188;329;100 mA
16.1514609592215;0.299835205078125;0.00135162353515625;3.28999999169355;330;100 mA
16.1614609591962;0.299896240234375;0.0013470458984375;3.2999999916683;331;100 mA
16.171460959171;0.29986572265625;0.0013482666015625;3.30999999164305;332;100 mA
16.1814609591457;0.29986572265625;0.00135650634765625;3.31999999161781;333;100 mA
16.1914609591205;0.299835205078125;0.00135498046875;3.32999999159256;334;100 mA
16.2014609590952;0.2998046875;0.00136322021484375;3.33999999156731;335;100 mA
16.21146095907;0.2999267578125;0.00137786865234375;3.34999999154206;336;100 mA
16.2214609590447;0.299835205078125;0.001375732421875;3.35999999151682;337;100 mA
16.2314609590195;0.29986572265625;0.00136962890625;3.36999999149157;338;100 mA
16.2414609589943;0.299896240234375;0.00135498046875;3.37999999146632;339;100 mA
16.251460958969;0.299835205078125;0.00135406494140625;3.38999999144107;340;100 mA
16.2614609589438;0.299896240234375;0.0013519287109375;3.39999999141583;341;100 mA
16.2714609589185;0.299835205078125;0.0013519287109375;3.40999999139058;342;100 mA
16.2814609588933;0.299896240234375;0.00134796142578125;3.41999999136533;343;100 mA
16.291460958868;0.29986572265625;0.0013519287109375;3.42999999134008;344;100 mA
16.3014609588428;0.299835205078125;0.001343994140625;3.43999999131483;345;100 mA
16.3114609588175;0.299896240234375;0.00133758544921875;3.44999999128959;346;100 mA
16.3214609587923;0.299896240234375;0.001328125;3.45999999126434;347;100 mA
16.331460958767;0.29986572265625;0.001331787109375;3.46999999123909;348;100 mA
16.3414609587418;0.299774169921875;0.00133636474609375;3.47999999121384;349;100 mA
16.3514609587165;0.29986572265625;0.0013409423828125;3.4899999911886;350;100 mA
16.3614609586913;0.29986572265625;0.00134674072265625;3.49999999116335;351;100 mA
16.371460958666;0.29986572265625;0.00135589599609375;3.5099999911381;352;100 mA
16.3814609586408;0.299835205078125;0.00134918212890625;3.51999999111285;353;100 mA
16.3914609586155;0.299896240234375;0.0013446044921875;3.52999999108761;354;100 mA
16.4014609585903;0.299835205078125;0.00133392333984375;3.53999999106236;355;100 mA
16.411460958565;0.2998046875;0.00133087158203125;3.54999999103711;356;100 mA
16.4214609585398;0.299835205078125;0.00134063720703125;3.55999999101186;357;100 mA
16.4314609585145;0.299896240234375;0.001341552734375;3.56999999098662;358;100 mA
16.4414609584893;0.29986572265625;0.001348876953125;3.57999999096137;359;100 mA
16.4514609584641;0.299835205078125;0.0013604736328125;3.58999999093612;360;100 mA
16.4614609584388;0.29986572265625;0.00135772705078125;3.59999999091087;361;100 mA
16.4714609584136;0.2998046875;0.0013568115234375;3.60999999088563;362;100 mA
16.4814609583883;0.299835205078125;0.0013531494140625;3.61999999086038;363;100 mA
16.4914609583631;0.299896240234375;0.0013525390625;3.62999999083513;364;100 mA
16.5014609583378;0.2998046875;0.00136474609375;3.63999999080988;365;100 mA
16.5114609583126;0.29986572265625;0.00136383056640625;3.64999999078464;366;100 mA
16.5214609582873;0.2998046875;0.001373291015625;3.65999999075939;367;100 mA
16.5314609582621;0.29986572265625;0.00138427734375;3.66999999073414;368;100 mA
16.5414609582368;0.29986572265625;0.00137847900390625;3.67999999070889;369;100 mA
16.5514609582116;0.299835205078125;0.00137054443359375;3.68999999068365;370;100 mA
16.5614609581863;0.299896240234375;0.0013623046875;3.6999999906584;371;100 mA
16.5714609581611;0.299835205078125;0.00136138916015625;3.70999999063315;372;100 mA
16.5814609581358;0.299835205078125;0.00136627197265625;3.7199999906079;373;100 mA
16.5914609581106;0.299835205078125;0.00136260986328125;3.72999999058266;374;100 mA
16.6014609580853;0.299896240234375;0.0013653564453125;3.73999999055741;375;100 mA
16.6114609580601;0.299835205078125;0.00137420654296875;3.74999999053216;376;100 mA
16.6214609580348;0.2998046875;0.0013677978515625;3.75999999050691;377;100 mA
16.6314609580096;0.29986572265625;0.00135986328125;3.76999999048167;378;100 mA
16.6414609579843;0.299835205078125;0.00134307861328125;3.77999999045642;379;100 mA
16.6514609579591;0.299774169921875;0.00134063720703125;3.78999999043117;380;100 mA
16.6614609579339;0.299835205078125;0.00134002685546875;3.79999999040592;381;100 mA
16.6714609579086;0.29986572265625;0.00134063720703125;3.80999999038067;382;100 mA
16.6814609578834;0.299835205078125;0.00133819580078125;3.81999999035543;383;100 mA
16.6914609578581;0.29986572265625;0.00134368896484375;3.82999999033018;384;100 mA
16.7014609578329;0.2999267578125;0.0013372802734375;3.83999999030493;385;100 mA
16.7114609578076;0.299896240234375;0.00133087158203125;3.84999999027968;386;100 mA
16.7214609577824;0.299835205078125;0.0013226318359375;3.85999999025444;387;100 mA
16.7314609577571;0.29986572265625;0.00132720947265625;3.86999999022919;388;100 mA
16.7414609577319;0.299835205078125;0.0013323974609375;3.87999999020394;389;100 mA
16.7514609577066;0.299835205078125;0.0013385009765625;3.88999999017869;390;100 mA
16.7614609576814;0.299835205078125;0.001343994140625;3.89999999015345;391;100 mA
16.7714609576561;0.29986572265625;0.00135498046875;3.9099999901282;392;100 mA
16.7814609576309;0.299835205078125;0.00135223388671875;3.91999999010295;393;100 mA
16.7914609576056;0.2998046875;0.00135101318359375;3.9299999900777;394;100 mA
16.8014609575804;0.299835205078125;0.00134368896484375;3.93999999005246;395;100 mA
16.8114609575551;0.29986572265625;0.00134307861328125;3.94999999002721;396;100 mA
16.8214609575299;0.299896240234375;0.001357421875;3.95999999000196;397;100 mA
16.8314609575046;0.299835205078125;0.00135528564453125;3.96999998997671;398;100 mA
16.8414609574794;0.2998046875;0.00136199951171875;3.97999998995147;399;100 mA
16.8514609574542;0.299835205078125;0.00136810302734375;3.98999998992622;400;100 mA
16.8614609574289;0.2998046875;0.00136322021484375;3.99999998990097;401;100 mA
16.8714609574037;0.299896240234375;0.00135589599609375;4.00999998987572;402;100 mA
16.8814609573784;0.2998046875;0.00134857177734375;4.01999998985048;403;100 mA
16.8914609573532;0.29986572265625;0.001346435546875;4.02999998982523;404;100 mA
16.9014609573279;0.299835205078125;0.0013525390625;4.03999998979998;405;100 mA
16.9114609573027;0.299835205078125;0.00134796142578125;4.04999998977473;406;100 mA
16.9214609572774;0.299896240234375;0.00135467529296875;4.05999998974949;407;100 mA
16.9314609572522;0.299835205078125;0.00136322021484375;4.06999998972424;408;100 mA
16.9414609572269;0.29986572265625;0.00135498046875;4.07999998969899;409;100 mA
16.9514609572017;0.299896240234375;0.0013458251953125;4.08999998967374;410;100 mA
16.9614609571764;0.29986572265625;0.00133636474609375;4.0999999896485;411;100 mA
16.9714609571512;0.299835205078125;0.0013348388671875;4.10999998962325;412;100 mA
16.9814609571259;0.299835205078125;0.00133819580078125;4.119999989598;413;100 mA
16.9914609571007;0.29986572265625;0.001331787109375;4.12999998957275;414;100 mA
17.0014609570754;0.299835205078125;0.00133514404296875;4.1399999895475;415;100 mA
17.0114609570502;0.299896240234375;0.0013397216796875;4.14999998952226;416;100 mA
17.0214609570249;0.29986572265625;0.00133148193359375;4.15999998949701;417;100 mA
17.0314609569997;0.299896240234375;0.00132354736328125;4.16999998947176;418;100 mA
17.0414609569744;0.2998046875;0.00131011962890625;4.17999998944651;419;100 mA
17.0514609569492;0.299896240234375;0.001309814453125;4.18999998942127;420;100 mA
17.061460956924;0.299896240234375;0.00131500244140625;4.19999998939602;421;100 mA
17.0714609568987;0.299896240234375;0.0013201904296875;4.20999998937077;422;100 mA
17.0814609568735;0.299835205078125;0.00132080078125;4.21999998934552;423;100 mA
17.0914609568482;0.29986572265625;0.0013262939453125;4.22999998932028;424;100 mA
17.101460956823;0.299774169921875;0.00132476806640625;4.23999998929503;425;100 mA
17.1114609567977;0.299835205078125;0.00131622314453125;4.24999998926978;426;100 mA
17.1214609567725;0.299957275390625;0.0013067626953125;4.25999998924453;427;100 mA
17.1314609567472;0.299835205078125;0.0013116455078125;4.26999998921929;428;100 mA
17.141460956722;0.29986572265625;0.0013177490234375;4.27999998919404;429;100 mA
17.1514609566967;0.299835205078125;0.00132537841796875;4.28999998916879;430;100 mA
17.1614609566715;0.29986572265625;0.0013330078125;4.29999998914354;431;100 mA
17.1714609566462;0.29986572265625;0.00134307861328125;4.3099999891183;432;100 mA
17.181460956621;0.299835205078125;0.001341552734375;4.31999998909305;433;100 mA
17.1914609565957;0.29986572265625;0.00133880615234375;4.3299999890678;434;100 mA
17.2014609565705;0.299835205078125;0.00133209228515625;4.33999998904255;435;100 mA
17.2114609565452;0.299835205078125;0.0013299560546875;4.34999998901731;436;100 mA
17.22146095652;0.29986572265625;0.00134521484375;4.35999998899206;437;100 mA
17.2314609564947;0.2999267578125;0.0013446044921875;4.36999998896681;438;100 mA
17.2414609564695;0.299896240234375;0.0013531494140625;4.37999998894156;439;100 mA
17.2514609564442;0.299896240234375;0.001361083984375;4.38999998891632;440;100 mA
17.261460956419;0.299896240234375;0.0013580322265625;4.39999998889107;441;100 mA
17.2714609563938;0.299835205078125;0.0013543701171875;4.40999998886582;442;100 mA
17.2814609563685;0.299835205078125;0.0013482666015625;4.41999998884057;443;100 mA
17.2914609563433;0.299896240234375;0.00134552001953125;4.42999998881533;444;100 mA
17.301460956318;0.299896240234375;0.00135467529296875;4.43999998879008;445;100 mA
17.3114609562928;0.29986572265625;0.00135589599609375;4.44999998876483;446;100 mA
17.3214609562675;0.299835205078125;0.00136444091796875;4.45999998873958;447;100 mA
17.3314609562423;0.2998046875;0.0013775634765625;4.46999998871433;448;100 mA
17.341460956217;0.29986572265625;0.00136993408203125;4.47999998868909;449;100 mA
17.3514609561918;0.299835205078125;0.0013677978515625;4.48999998866384;450;100 mA
17.3614609561665;0.299896240234375;0.00135894775390625;4.49999998863859;451;100 mA
17.3714609561413;0.299896240234375;0.00136077880859375;4.50999998861334;452;100 mA
17.381460956116;0.299835205078125;0.00136749267578125;4.5199999885881;453;100 mA
17.3914609560908;0.29986572265625;0.00136566162109375;4.52999998856285;454;100 mA
17.4014609560655;0.299896240234375;0.0013690185546875;4.5399999885376;455;100 mA
17.4114609560403;0.299835205078125;0.00137847900390625;4.54999998851235;456;100 mA
17.421460956015;0.299835205078125;0.00137115478515625;4.55999998848711;457;100 mA
17.4314609559898;0.29986572265625;0.00136444091796875;4.56999998846186;458;100 mA
17.4414609559645;0.299896240234375;0.001351318359375;4.57999998843661;459;100 mA
17.4514609559393;0.299835205078125;0.001353759765625;4.58999998841136;460;100 mA
17.461460955914;0.29986572265625;0.00135711669921875;4.59999998838612;461;100 mA
17.4714609558888;0.299835205078125;0.00136444091796875;4.60999998836087;462;100 mA
17.4814609558636;0.299835205078125;0.0013665771484375;4.61999998833562;463;100 mA
17.4914609558383;0.299835205078125;0.00137420654296875;4.62999998831037;464;100 mA
17.5014609558131;0.29986572265625;0.0013720703125;4.63999998828513;465;100 mA
17.5114609557878;0.299896240234375;0.0013653564453125;4.64999998825988;466;100 mA
17.5214609557626;0.29986572265625;0.001357421875;4.65999998823463;467;100 mA
17.5314609557373;0.299835205078125;0.001358642578125;4.66999998820938;468;100 mA
17.5414609557121;0.299835205078125;0.001361083984375;4.67999998818414;469;100 mA
17.5514609556868;0.29986572265625;0.0013653564453125;4.68999998815889;470;100 mA
17.5614609556616;0.299835205078125;0.0013720703125;4.69999998813364;471;100 mA
17.5714609556363;0.299896240234375;0.001378173828125;4.70999998810839;472;100 mA
17.5814609556111;0.299896240234375;0.00137298583984375;4.71999998808315;473;100 mA
17.5914609555858;0.2998046875;0.0013714599609375;4.7299999880579;474;100 mA
17.6014609555606;0.299835205078125;0.0013629150390625;4.73999998803265;475;100 mA
17.6114609555353;0.29986572265625;0.001361083984375;4.7499999880074;476;100 mA
17.6214609555101;0.29986572265625;0.0013739013671875;4.75999998798216;477;100 mA
17.6314609554848;0.299835205078125;0.001373291015625;4.76999998795691;478;100 mA
17.6414609554596;0.299896240234375;0.0013818359375;4.77999998793166;479;100 mA
17.6514609554343;0.299835205078125;0.00138763427734375;4.78999998790641;480;100 mA
17.6614609554091;0.29974365234375;0.00138214111328125;4.79999998788116;481;100 mA
17.6714609553838;0.299835205078125;0.0013800048828125;4.80999998785592;482;100 mA
17.6814609553586;0.29986572265625;0.00137237548828125;4.81999998783067;483;100 mA
17.6914609553334;0.299835205078125;0.0013677978515625;4.82999998780542;484;100 mA
17.7014609553081;0.29986572265625;0.00137603759765625;4.83999998778017;485;100 mA
17.7114609552829;0.299896240234375;0.00137420654296875;4.84999998775493;486;100 mA
17.7214609552576;0.299835205078125;0.00137969970703125;4.85999998772968;487;100 mA
17.7314609552324;0.29986572265625;0.00138916015625;4.86999998770443;488;100 mA
17.7414609552071;0.2998046875;0.00137908935546875;4.87999998767918;489;100 mA
17.7514609551819;0.2998046875;0.00137359619140625;4.88999998765394;490;100 mA
17.7614609551566;0.299896240234375;0.0013629150390625;4.89999998762869;491;100 mA
17.7714609551314;0.299896240234375;0.00136474609375;4.90999998760344;492;100 mA
17.7814609551061;0.299835205078125;0.0013671875;4.91999998757819;493;100 mA
17.7914609550809;0.29986572265625;0.00136627197265625;4.92999998755295;494;100 mA
17.8014609550556;0.29986572265625;0.00137176513671875;4.9399999875277;495;100 mA
17.8114609550304;0.29986572265625;0.001378173828125;4.94999998750245;496;100 mA
17.8214609550051;0.2998046875;0.0013702392578125;4.9599999874772;497;100 mA
17.8314609549799;0.299835205078125;0.00136016845703125;4.96999998745196;498;100 mA
17.8414609549546;0.299835205078125;0.0013421630859375;4.97999998742671;499;100 mA
17.8514609549294;0.29986572265625;0.0013397216796875;4.98999998740146;500;100 mA
17.8614609549041;0.29986572265625;0.00133941650390625;4.99999998737621;501;100 mA
17.8714609548789;0.2998046875;0.001343994140625;5.00999998735097;502;100 mA
17.8814609548537;0.29986572265625;0.00134613037109375;5.01999998732572;503;100 mA
17.8914609548284;0.299896240234375;0.00134918212890625;5.02999998730047;504;100 mA
17.9014609548032;0.299835205078125;0.00134613037109375;5.03999998727522;505;100 mA
17.9114609547779;0.2998046875;0.00133758544921875;5.04999998724998;506;100 mA
17.9214609547527;0.29986572265625;0.0013299560546875;5.05999998722473;507;100 mA
17.9314609547274;0.2998046875;0.001329345703125;5.06999998719948;508;100 mA
17.9414609547022;0.29986572265625;0.001331787109375;5.07999998717423;509;100 mA
17.9514609546769;0.299896240234375;0.0013336181640625;5.08999998714899;510;100 mA
17.9614609546517;0.2998046875;0.0013385009765625;5.09999998712374;511;100 mA
17.9714609546264;0.299835205078125;0.00134246826171875;5.10999998709849;512;100 mA
17.9814609546012;0.29986572265625;0.00133697509765625;5.11999998707324;513;100 mA
17.9914609545759;0.299835205078125;0.0013330078125;5.129999987048;514;100 mA
18.0014609545507;0.2999267578125;0.0013238525390625;5.13999998702275;515;100 mA
18.0114609545254;0.299896240234375;0.00132232666015625;5.1499999869975;516;100 mA
18.0214609545002;0.299835205078125;0.0013348388671875;5.15999998697225;517;100 mA
18.0314609544749;0.29986572265625;0.0013348388671875;5.169999986947;518;100 mA
18.0414609544497;0.299835205078125;0.00134552001953125;5.17999998692176;519;100 mA
18.0514609544244;0.299896240234375;0.0013531494140625;5.18999998689651;520;100 mA
18.0614609543992;0.299835205078125;0.00135162353515625;5.19999998687126;521;100 mA
18.0714609543739;0.299896240234375;0.00134857177734375;5.20999998684601;522;100 mA
18.0814609543487;0.2998046875;0.00134368896484375;5.21999998682077;523;100 mA
18.0914609543235;0.29986572265625;0.00133758544921875;5.22999998679552;524;100 mA
18.1014609542982;0.299896240234375;0.001343994140625;5.23999998677027;525;100 mA
18.111460954273;0.299835205078125;0.00134185791015625;5.24999998674502;526;100 mA
18.1214609542477;0.2999267578125;0.00134490966796875;5.25999998671978;527;100 mA
18.1314609542225;0.29986572265625;0.00135284423828125;5.26999998669453;528;100 mA
18.1414609541972;0.299896240234375;0.0013446044921875;5.27999998666928;529;100 mA
18.151460954172;0.29986572265625;0.0013385009765625;5.28999998664403;530;100 mA
18.1614609541467;0.29986572265625;0.0013262939453125;5.29999998661879;531;100 mA
18.1714609541215;0.2998046875;0.00132843017578125;5.30999998659354;532;100 mA
18.1814609540962;0.2999267578125;0.001328125;5.31999998656829;533;100 mA
18.191460954071;0.299835205078125;0.00132781982421875;5.32999998654304;534;100 mA
18.2014609540457;0.2998046875;0.00133056640625;5.3399999865178;535;100 mA
18.2114609540205;0.29986572265625;0.0013372802734375;5.34999998649255;536;100 mA
18.2214609539952;0.299835205078125;0.001329345703125;5.3599999864673;537;100 mA
18.23146095397;0.2998046875;0.0013214111328125;5.36999998644205;538;100 mA
18.2414609539447;0.299835205078125;0.00130889892578125;5.37999998641681;539;100 mA
18.2514609539195;0.2998046875;0.001309814453125;5.38999998639156;540;100 mA
18.2614609538942;0.299835205078125;0.0013134765625;5.39999998636631;541;100 mA
18.271460953869;0.299835205078125;0.0013177490234375;5.40999998634106;542;100 mA
18.2814609538437;0.299835205078125;0.001319580078125;5.41999998631582;543;100 mA
18.2914609538185;0.2998046875;0.00132293701171875;5.42999998629057;544;100 mA
18.3014609537933;0.299835205078125;0.00132049560546875;5.43999998626532;545;100 mA
18.311460953768;0.29986572265625;0.00131317138671875;5.44999998624007;546;100 mA
18.3214609537428;0.299835205078125;0.0013067626953125;5.45999998621483;547;100 mA
18.3314609537175;0.299896240234375;0.00131011962890625;5.46999998618958;548;100 mA
18.3414609536923;0.299896240234375;0.0013165283203125;5.47999998616433;549;100 mA
18.351460953667;0.2998046875;0.0013238525390625;5.48999998613908;550;100 mA
18.3614609536418;0.299835205078125;0.0013330078125;5.49999998611383;551;100 mA
18.3714609536165;0.299835205078125;0.0013409423828125;5.50999998608859;552;100 mA
18.3814609535913;0.299835205078125;0.00134063720703125;5.51999998606334;553;100 mA
18.391460953566;0.2998046875;0.00133819580078125;5.52999998603809;554;100 mA
18.4014609535408;0.2998046875;0.0013330078125;5.53999998601284;555;100 mA
18.4114609535155;0.299835205078125;0.00133209228515625;5.5499999859876;556;100 mA
18.4214609534903;0.29986572265625;0.001343994140625;5.55999998596235;557;100 mA
18.431460953465;0.299835205078125;0.0013421630859375;5.5699999859371;558;100 mA
18.4414609534398;0.299835205078125;0.00135345458984375;5.57999998591185;559;100 mA
18.4514609534145;0.29986572265625;0.001361083984375;5.58999998588661;560;100 mA
18.4614609533893;0.299835205078125;0.001361083984375;5.59999998586136;561;100 mA
18.471460953364;0.299835205078125;0.0013592529296875;5.60999998583611;562;100 mA
18.4814609533388;0.2998046875;0.00135498046875;5.61999998581086;563;100 mA
18.4914609533135;0.299835205078125;0.00135223388671875;5.62999998578562;564;100 mA
18.5014609532883;0.299835205078125;0.001361083984375;5.63999998576037;565;100 mA
18.5114609532631;0.2998046875;0.0013616943359375;5.64999998573512;566;100 mA
18.5214609532378;0.299896240234375;0.0013665771484375;5.65999998570987;567;100 mA
18.5314609532126;0.299896240234375;0.001375732421875;5.66999998568463;568;100 mA
18.5414609531873;0.2998046875;0.00136627197265625;5.67999998565938;569;100 mA
18.5514609531621;0.29986572265625;0.0013616943359375;5.68999998563413;570;100 mA
18.5614609531368;0.29986572265625;0.00135162353515625;5.69999998560888;571;100 mA
18.5714609531116;0.299896240234375;0.00135162353515625;5.70999998558364;572;100 mA
18.5814609530863;0.29986572265625;0.0013525390625;5.71999998555839;573;100 mA
18.5914609530611;0.2998046875;0.001353759765625;5.72999998553314;574;100 mA
18.6014609530358;0.299835205078125;0.001358642578125;5.73999998550789;575;100 mA
18.6114609530106;0.29986572265625;0.00136993408203125;5.74999998548265;576;100 mA
18.6214609529853;0.2999267578125;0.0013665771484375;5.7599999854574;577;100 mA
18.6314609529601;0.299896240234375;0.001361083984375;5.76999998543215;578;100 mA
18.6414609529348;0.299835205078125;0.001348876953125;5.7799999854069;579;100 mA
18.6514609529096;0.299835205078125;0.0013507080078125;5.78999998538166;580;100 mA
18.6614609528843;0.29986572265625;0.00135467529296875;5.79999998535641;581;100 mA
18.6714609528591;0.299896240234375;0.00135833740234375;5.80999998533116;582;100 mA
18.6814609528338;0.29986572265625;0.0013592529296875;5.81999998530591;583;100 mA
18.6914609528086;0.299896240234375;0.00136199951171875;5.82999998528066;584;100 mA
18.7014609527833;0.299896240234375;0.00135772705078125;5.83999998525542;585;100 mA
18.7114609527581;0.29986572265625;0.00134735107421875;5.84999998523017;586;100 mA
18.7214609527329;0.29986572265625;0.001337890625;5.85999998520492;587;100 mA
18.7314609527076;0.29986572265625;0.00133819580078125;5.86999998517967;588;100 mA
18.7414609526824;0.29986572265625;0.00134368896484375;5.87999998515443;589;100 mA
18.7514609526571;0.299835205078125;0.00134796142578125;5.88999998512918;590;100 mA
18.7614609526319;0.29986572265625;0.00135498046875;5.89999998510393;591;100 mA
18.7714609526066;0.29986572265625;0.0013580322265625;5.90999998507868;592;100 mA
18.7814609525814;0.299896240234375;0.001353759765625;5.91999998505344;593;100 mA
18.7914609525561;0.29986572265625;0.0013446044921875;5.92999998502819;594;100 mA
18.8014609525309;0.29986572265625;0.00133575439453125;5.93999998500294;595;100 mA
18.8114609525056;0.29986572265625;0.0013311767578125;5.94999998497769;596;100 mA
18.8214609524804;0.29986572265625;0.00134002685546875;5.95999998495245;597;100 mA
18.8314609524551;0.299835205078125;0.00133636474609375;5.9699999849272;598;100 mA
18.8414609524299;0.2998046875;0.00134429931640625;5.97999998490195;599;100 mA
18.8514609524046;0.29986572265625;0.00134979248046875;5.9899999848767;600;100 mA
18.8614609523794;0.299835205078125;0.0013494873046875;5.99999998485146;601;100 mA
18.8714609523541;0.29986572265625;0.0013482666015625;6.00999998482621;602;100 mA
18.8814609523289;0.2999267578125;0.0013421630859375;6.01999998480096;603;100 mA
18.8914609523036;0.2998046875;0.00133941650390625;6.02999998477571;604;100 mA
18.9014609522784;0.299896240234375;0.0013470458984375;6.03999998475047;605;100 mA
18.9114609522532;0.29986572265625;0.0013458251953125;6.04999998472522;606;100 mA
18.9214609522279;0.299835205078125;0.00134735107421875;6.05999998469997;607;100 mA
18.9314609522027;0.299835205078125;0.0013531494140625;6.06999998467472;608;100 mA
18.9414609521774;0.29986572265625;0.001341552734375;6.07999998464948;609;100 mA
18.9514609521522;0.299835205078125;0.00133453369140625;6.08999998462423;610;100 mA
18.9614609521269;0.299835205078125;0.00131988525390625;6.09999998459898;611;100 mA
18.9714609521017;0.299835205078125;0.00132110595703125;6.10999998457373;612;100 mA
18.9814609520764;0.299835205078125;0.001317138671875;6.11999998454849;613;100 mA
18.9914609520512;0.2998046875;0.00131683349609375;6.12999998452324;614;100 mA
19.0014609520259;0.299835205078125;0.00131744384765625;6.13999998449799;615;100 mA
19.0114609520007;0.299835205078125;0.00132232666015625;6.14999998447274;616;100 mA
19.0214609519754;0.29986572265625;0.00131622314453125;6.1599999844475;617;100 mA
19.0314609519502;0.2998046875;0.00130828857421875;6.16999998442225;618;100 mA
19.0414609519249;0.299835205078125;0.00129364013671875;6.179999984397;619;100 mA
19.0514609518997;0.29986572265625;0.00129180908203125;6.18999998437175;620;100 mA
19.0614609518744;0.299835205078125;0.00129730224609375;6.1999999843465;621;100 mA
19.0714609518492;0.299896240234375;0.001297607421875;6.20999998432126;622;100 mA
19.0814609518239;0.29986572265625;0.00130035400390625;6.21999998429601;623;100 mA
19.0914609517987;0.2998046875;0.00130462646484375;6.22999998427076;624;100 mA
19.1014609517734;0.299835205078125;0.00130340576171875;6.23999998424551;625;100 mA
19.1114609517482;0.29986572265625;0.00129730224609375;6.24999998422027;626;100 mA
19.121460951723;0.29986572265625;0.0012921142578125;6.25999998419502;627;100 mA
19.1314609516977;0.299896240234375;0.00129425048828125;6.26999998416977;628;100 mA
19.1414609516725;0.29986572265625;0.0012994384765625;6.27999998414452;629;100 mA
19.1514609516472;0.299896240234375;0.0013031005859375;6.28999998411928;630;100 mA
19.161460951622;0.29986572265625;0.00131134033203125;6.29999998409403;631;100 mA
19.1714609515967;0.299835205078125;0.0013165283203125;6.30999998406878;632;100 mA
19.1814609515715;0.299835205078125;0.00131683349609375;6.31999998404353;633;100 mA
19.1914609515462;0.299896240234375;0.0013134765625;6.32999998401829;634;100 mA
19.201460951521;0.29986572265625;0.00130767822265625;6.33999998399304;635;100 mA
19.2114609514957;0.299896240234375;0.0013079833984375;6.34999998396779;636;100 mA
19.2214609514705;0.29986572265625;0.0013214111328125;6.35999998394254;637;100 mA
19.2314609514452;0.29986572265625;0.0013201904296875;6.3699999839173;638;100 mA
19.24146095142;0.29986572265625;0.00132965087890625;6.37999998389205;639;100 mA
19.2514609513947;0.299835205078125;0.0013372802734375;6.3899999838668;640;100 mA
19.2614609513695;0.299896240234375;0.00133514404296875;6.39999998384155;641;100 mA
19.2714609513442;0.299835205078125;0.0013330078125;6.40999998381631;642;100 mA
19.281460951319;0.2998046875;0.00132293701171875;6.41999998379106;643;100 mA
19.2914609512937;0.299896240234375;0.00131866455078125;6.42999998376581;644;100 mA
19.3014609512685;0.2998046875;0.001324462890625;6.43999998374056;645;100 mA
19.3114609512432;0.299896240234375;0.00131988525390625;6.44999998371532;646;100 mA
19.321460951218;0.29986572265625;0.0013238525390625;6.45999998369007;647;100 mA
19.3314609511928;0.299896240234375;0.00133087158203125;6.46999998366482;648;100 mA
19.3414609511675;0.299835205078125;0.00132354736328125;6.47999998363957;649;100 mA
19.3514609511423;0.299896240234375;0.00131744384765625;6.48999998361433;650;100 mA
19.361460951117;0.2998046875;0.001307373046875;6.49999998358908;651;100 mA
19.3714609510918;0.299835205078125;0.001309814453125;6.50999998356383;652;100 mA
19.3814609510665;0.29986572265625;0.00130828857421875;6.51999998353858;653;100 mA
19.3914609510413;0.299835205078125;0.00130950927734375;6.52999998351333;654;100 mA
19.401460951016;0.29986572265625;0.001314697265625;6.53999998348809;655;100 mA
19.4114609509908;0.299835205078125;0.001322021484375;6.54999998346284;656;100 mA
19.4214609509655;0.299896240234375;0.00131805419921875;6.55999998343759;657;100 mA
19.4314609509403;0.2999267578125;0.0013134765625;6.56999998341234;658;100 mA
19.441460950915;0.299896240234375;0.001304931640625;6.5799999833871;659;100 mA
19.4514609508898;0.299835205078125;0.00130767822265625;6.58999998336185;660;100 mA
19.4614609508645;0.299896240234375;0.0013140869140625;6.5999999833366;661;100 mA
19.4714609508393;0.2998046875;0.00131622314453125;6.60999998331135;662;100 mA
19.481460950814;0.29986572265625;0.00132049560546875;6.61999998328611;663;100 mA
19.4914609507888;0.299896240234375;0.0013238525390625;6.62999998326086;664;100 mA
19.5014609507635;0.29986572265625;0.001324462890625;6.63999998323561;665;100 mA
19.5114609507383;0.29986572265625;0.00131805419921875;6.64999998321036;666;100 mA
19.521460950713;0.29986572265625;0.0013134765625;6.65999998318512;667;100 mA
19.5314609506878;0.299835205078125;0.001309814453125;6.66999998315987;668;100 mA
19.5414609506626;0.29986572265625;0.00131622314453125;6.67999998313462;669;100 mA
19.5514609506373;0.299896240234375;0.0013189697265625;6.68999998310937;670;100 mA
19.5614609506121;0.299835205078125;0.00132720947265625;6.69999998308413;671;100 mA
19.5714609505868;0.299835205078125;0.00133209228515625;6.70999998305888;672;100 mA
19.5814609505616;0.299896240234375;0.00133331298828125;6.71999998303363;673;100 mA
19.5914609505363;0.299835205078125;0.00133026123046875;6.72999998300838;674;100 mA
19.6014609505111;0.29986572265625;0.00132843017578125;6.73999998298314;675;100 mA
19.6114609504858;0.29986572265625;0.0013287353515625;6.74999998295789;676;100 mA
19.6214609504606;0.299896240234375;0.001339111328125;6.75999998293264;677;100 mA
19.6314609504353;0.29986572265625;0.0013385009765625;6.76999998290739;678;100 mA
19.6414609504101;0.299835205078125;0.001346435546875;6.77999998288215;679;100 mA
19.6514609503848;0.299835205078125;0.001356201171875;6.7899999828569;680;100 mA
19.6614609503596;0.299835205078125;0.00135589599609375;6.79999998283165;681;100 mA
19.6714609503343;0.299835205078125;0.00135223388671875;6.8099999828064;682;100 mA
19.6814609503091;0.2999267578125;0.0013409423828125;6.81999998278116;683;100 mA
19.6914609502838;0.299835205078125;0.001336669921875;6.82999998275591;684;100 mA
19.7014609502586;0.299835205078125;0.001339111328125;6.83999998273066;685;100 mA
19.7114609502333;0.29986572265625;0.0013360595703125;6.84999998270541;686;100 mA
19.7214609502081;0.299835205078125;0.00133514404296875;6.85999998268016;687;100 mA
19.7314609501828;0.299835205078125;0.00134002685546875;6.86999998265492;688;100 mA
19.7414609501576;0.29986572265625;0.0013330078125;6.87999998262967;689;100 mA
19.7514609501324;0.299896240234375;0.0013287353515625;6.88999998260442;690;100 mA
19.7614609501071;0.29986572265625;0.00131744384765625;6.89999998257917;691;100 mA
19.7714609500819;0.29986572265625;0.00132049560546875;6.90999998255393;692;100 mA
19.7814609500566;0.29986572265625;0.00131927490234375;6.91999998252868;693;100 mA
19.7914609500314;0.299835205078125;0.001319580078125;6.92999998250343;694;100 mA
19.8014609500061;0.299835205078125;0.00132476806640625;6.93999998247818;695;100 mA
19.8114609499809;0.29986572265625;0.00132843017578125;6.94999998245294;696;100 mA
19.8214609499556;0.299896240234375;0.0013232421875;6.95999998242769;697;100 mA
19.8314609499304;0.2998046875;0.001314697265625;6.96999998240244;698;100 mA
19.8414609499051;0.299896240234375;0.0013006591796875;6.97999998237719;699;100 mA
19.8514609498799;0.299835205078125;0.00130126953125;6.98999998235195;700;100 mA
19.8614609498546;0.299896240234375;0.001304931640625;6.9999999823267;701;100 mA
19.8714609498294;0.299896240234375;0.0013037109375;7.00999998230145;702;100 mA
19.8814609498041;0.299835205078125;0.0013067626953125;7.0199999822762;703;100 mA
19.8914609497789;0.299896240234375;0.00130706787109375;7.02999998225096;704;100 mA
19.9014609497536;0.2998046875;0.00130584716796875;7.03999998222571;705;100 mA
19.9114609497284;0.29986572265625;0.00129730224609375;7.04999998220046;706;100 mA
19.9214609497031;0.29986572265625;0.00129364013671875;7.05999998217521;707;100 mA
19.9314609496779;0.29974365234375;0.0012939453125;7.06999998214997;708;100 mA
19.9414609496527;0.299835205078125;0.0012994384765625;7.07999998212472;709;100 mA
19.9514609496274;0.299835205078125;0.00129974365234375;7.08999998209947;710;100 mA
19.9614609496022;0.29986572265625;0.00130615234375;7.09999998207422;711;100 mA
19.9714609495769;0.29986572265625;0.00130767822265625;7.10999998204898;712;100 mA
19.9814609495517;0.299896240234375;0.0013067626953125;7.11999998202373;713;100 mA
19.9914609495264;0.299835205078125;0.00130279541015625;7.12999998199848;714;100 mA
20.0014609495012;0.29986572265625;0.00129638671875;7.13999998197323;715;100 mA
20.0114609494759;0.299896240234375;0.001292724609375;7.14999998194799;716;100 mA
20.0214609494507;0.299835205078125;0.001300048828125;7.15999998192274;717;100 mA
20.0314609494254;0.299835205078125;0.0012957763671875;7.16999998189749;718;100 mA
20.0414609494002;0.299896240234375;0.00130035400390625;7.17999998187224;719;100 mA
20.0514609493749;0.29986572265625;0.00130645751953125;7.189999981847;720;100 mA
20.0614609493497;0.2998046875;0.0013055419921875;7.19999998182175;721;100 mA
20.0714609493244;0.2998046875;0.001302490234375;7.2099999817965;722;100 mA
20.0814609492992;0.299835205078125;0.001295166015625;7.21999998177125;723;100 mA
20.0914609492739;0.299835205078125;0.00129486083984375;7.229999981746;724;100 mA
20.1014609492487;0.29986572265625;0.00130096435546875;7.23999998172076;725;100 mA
20.1114609492234;0.29986572265625;0.0013018798828125;7.24999998169551;726;100 mA
20.1214609491982;0.2998046875;0.00130401611328125;7.25999998167026;727;100 mA
20.1314609491729;0.299896240234375;0.00130950927734375;7.26999998164501;728;100 mA
20.1414609491477;0.29986572265625;0.00130279541015625;7.27999998161977;729;100 mA
20.1514609491225;0.299835205078125;0.00129791259765625;7.28999998159452;730;100 mA
20.1614609490972;0.2998046875;0.0012872314453125;7.29999998156927;731;100 mA
20.171460949072;0.29986572265625;0.0012939453125;7.30999998154402;732;100 mA
20.1814609490467;0.299835205078125;0.001295166015625;7.31999998151878;733;100 mA
20.1914609490215;0.29986572265625;0.001298828125;7.32999998149353;734;100 mA
20.2014609489962;0.299835205078125;0.00130828857421875;7.33999998146828;735;100 mA
20.211460948971;0.299835205078125;0.00131866455078125;7.34999998144303;736;100 mA
20.2214609489457;0.2998046875;0.00131683349609375;7.35999998141779;737;100 mA
20.2314609489205;0.299896240234375;0.001312255859375;7.36999998139254;738;100 mA
20.2414609488952;0.299896240234375;0.00129974365234375;7.37999998136729;739;100 mA
20.25146094887;0.29986572265625;0.00130096435546875;7.38999998134204;740;100 mA
20.2614609488447;0.29986572265625;0.001304931640625;7.3999999813168;741;100 mA
20.2714609488195;0.2998046875;0.001304931640625;7.40999998129155;742;100 mA
20.2814609487942;0.299896240234375;0.001309814453125;7.4199999812663;743;100 mA
20.291460948769;0.299896240234375;0.0013116455078125;7.42999998124105;744;100 mA
20.3014609487437;0.2999267578125;0.0013116455078125;7.43999998121581;745;100 mA
20.3114609487185;0.299957275390625;0.00130584716796875;7.44999998119056;746;100 mA
20.3214609486932;0.2998046875;0.0013031005859375;7.45999998116531;747;100 mA
20.331460948668;0.2998046875;0.001304931640625;7.46999998114006;748;100 mA
20.3414609486427;0.299835205078125;0.00131256103515625;7.47999998111482;749;100 mA
20.3514609486175;0.29986572265625;0.00131561279296875;7.48999998108957;750;100 mA
20.3614609485923;0.299835205078125;0.0013238525390625;7.49999998106432;751;100 mA
20.371460948567;0.299896240234375;0.00132659912109375;7.50999998103907;752;100 mA
20.3814609485418;0.299896240234375;0.001328125;7.51999998101383;753;100 mA
20.3914609485165;0.29986572265625;0.00131988525390625;7.52999998098858;754;100 mA
20.4014609484913;0.29986572265625;0.001314697265625;7.53999998096333;755;100 mA
20.411460948466;0.29986572265625;0.0013104248046875;7.54999998093808;756;100 mA
20.4214609484408;0.299835205078125;0.00131683349609375;7.55999998091283;757;100 mA
20.4314609484155;0.299835205078125;0.0013116455078125;7.56999998088759;758;100 mA
20.4414609483903;0.299835205078125;0.00131744384765625;7.57999998086234;759;100 mA
20.451460948365;0.29986572265625;0.00132598876953125;7.58999998083709;760;100 mA
20.4614609483398;0.299896240234375;0.00132781982421875;7.59999998081184;761;100 mA
20.4714609483145;0.29986572265625;0.0013287353515625;7.6099999807866;762;100 mA
20.4814609482893;0.299896240234375;0.00132415771484375;7.61999998076135;763;100 mA
20.491460948264;0.29986572265625;0.00132568359375;7.6299999807361;764;100 mA
20.5014609482388;0.29986572265625;0.0013330078125;7.63999998071085;765;100 mA
20.5114609482135;0.29986572265625;0.0013336181640625;7.64999998068561;766;100 mA
20.5214609481883;0.299774169921875;0.0013372802734375;7.65999998066036;767;100 mA
20.531460948163;0.29986572265625;0.00134185791015625;7.66999998063511;768;100 mA
20.5414609481378;0.29986572265625;0.00133758544921875;7.67999998060986;769;100 mA
20.5514609481125;0.29986572265625;0.0013311767578125;7.68999998058462;770;100 mA
20.5614609480873;0.29986572265625;0.0013165283203125;7.69999998055937;771;100 mA
20.5714609480621;0.2998046875;0.001317138671875;7.70999998053412;772;100 mA
20.5814609480368;0.29986572265625;0.00131195068359375;7.71999998050887;773;100 mA
20.5914609480116;0.299774169921875;0.0013128662109375;7.72999998048363;774;100 mA
20.6014609479863;0.299896240234375;0.00131927490234375;7.73999998045838;775;100 mA
20.6114609479611;0.299835205078125;0.00132568359375;7.74999998043313;776;100 mA
20.6214609479358;0.2999267578125;0.0013214111328125;7.75999998040788;777;100 mA
20.6314609479106;0.29986572265625;0.001319580078125;7.76999998038264;778;100 mA
20.6414609478853;0.29986572265625;0.00131103515625;7.77999998035739;779;100 mA
20.6514609478601;0.299835205078125;0.0013177490234375;7.78999998033214;780;100 mA
20.6614609478348;0.299835205078125;0.0013262939453125;7.79999998030689;781;100 mA
20.6714609478096;0.299896240234375;0.00132965087890625;7.80999998028165;782;100 mA
20.6814609477843;0.299835205078125;0.00133544921875;7.8199999802564;783;100 mA
20.6914609477591;0.29986572265625;0.00133819580078125;7.82999998023115;784;100 mA
20.7014609477338;0.2998046875;0.00134002685546875;7.8399999802059;785;100 mA
20.7114609477086;0.299835205078125;0.0013348388671875;7.84999998018066;786;100 mA
20.7214609476833;0.299835205078125;0.00133331298828125;7.85999998015541;787;100 mA
20.7314609476581;0.29986572265625;0.00133544921875;7.86999998013016;788;100 mA
20.7414609476328;0.29986572265625;0.00134429931640625;7.87999998010491;789;100 mA
20.7514609476076;0.299835205078125;0.00134521484375;7.88999998007966;790;100 mA
20.7614609475823;0.299835205078125;0.00135406494140625;7.89999998005442;791;100 mA
20.7714609475571;0.29986572265625;0.00135711669921875;7.90999998002917;792;100 mA
20.7814609475319;0.299835205078125;0.00135528564453125;7.91999998000392;793;100 mA
20.7914609475066;0.299896240234375;0.00134552001953125;7.92999997997867;794;100 mA
20.8014609474814;0.299896240234375;0.00133880615234375;7.93999997995343;795;100 mA
20.8114609474561;0.299835205078125;0.0013348388671875;7.94999997992818;796;100 mA
20.8214609474309;0.299896240234375;0.00133941650390625;7.95999997990293;797;100 mA
20.8314609474056;0.2998046875;0.00133331298828125;7.96999997987768;798;100 mA
20.8414609473804;0.299774169921875;0.001334228515625;7.97999997985244;799;100 mA
20.8514609473551;0.29986572265625;0.00134246826171875;7.98999997982719;800;100 mA
20.8614609473299;0.29986572265625;0.001339111328125;7.99999997980194;801;100 mA
20.8714609473046;0.2998046875;0.0013348388671875;8.00999997977669;802;100 mA
20.8814609472794;0.2998046875;0.0013238525390625;8.01999997975145;803;100 mA
20.8914609472541;0.29986572265625;0.001322021484375;8.0299999797262;804;100 mA
20.9014609472289;0.29986572265625;0.00132598876953125;8.03999997970095;805;100 mA
20.9114609472036;0.299896240234375;0.00132598876953125;8.0499999796757;806;100 mA
20.9214609471784;0.29986572265625;0.0013238525390625;8.05999997965046;807;100 mA
20.9314609471531;0.299835205078125;0.0013275146484375;8.06999997962521;808;100 mA
20.9414609471279;0.29986572265625;0.00131988525390625;8.07999997959996;809;100 mA
20.9514609471026;0.29986572265625;0.00131683349609375;8.08999997957471;810;100 mA
20.9614609470774;0.2998046875;0.0013055419921875;8.09999997954947;811;100 mA
20.9714609470522;0.2999267578125;0.00130828857421875;8.10999997952422;812;100 mA
20.9814609470269;0.299896240234375;0.00130889892578125;8.11999997949897;813;100 mA
20.9914609470017;0.299835205078125;0.00130767822265625;8.12999997947372;814;100 mA
21.0014609469764;0.299896240234375;0.0013140869140625;8.13999997944848;815;100 mA
21.0114609469512;0.29986572265625;0.00131500244140625;8.14999997942323;816;100 mA
21.0214609469259;0.29986572265625;0.0013116455078125;8.15999997939798;817;100 mA
21.0314609469007;0.299835205078125;0.0013043212890625;8.16999997937273;818;100 mA
21.0414609468754;0.29986572265625;0.0012933349609375;8.17999997934749;819;100 mA
21.0514609468502;0.299835205078125;0.00129486083984375;8.18999997932224;820;100 mA
21.0614609468249;0.299835205078125;0.0013018798828125;8.19999997929699;821;100 mA
21.0714609467997;0.29986572265625;0.0013018798828125;8.20999997927174;822;100 mA
21.0814609467744;0.299896240234375;0.0013055419921875;8.2199999792465;823;100 mA
21.0914609467492;0.299896240234375;0.001307373046875;8.22999997922125;824;100 mA
21.1014609467239;0.29986572265625;0.001309814453125;8.239999979196;825;100 mA
21.1114609466987;0.29986572265625;0.0013037109375;8.24999997917075;826;100 mA
21.1214609466734;0.299835205078125;0.00129913330078125;8.2599999791455;827;100 mA
21.1314609466482;0.2999267578125;0.001300048828125;8.26999997912026;828;100 mA
21.1414609466229;0.29986572265625;0.00130706787109375;8.27999997909501;829;100 mA
21.1514609465977;0.299835205078125;0.00130706787109375;8.28999997906976;830;100 mA
21.1614609465724;0.29986572265625;0.0013140869140625;8.29999997904451;831;100 mA
21.1714609465472;0.299835205078125;0.0013177490234375;8.30999997901927;832;100 mA
21.181460946522;0.299835205078125;0.00131561279296875;8.31999997899402;833;100 mA
21.1914609464967;0.299774169921875;0.001309814453125;8.32999997896877;834;100 mA
21.2014609464715;0.29986572265625;0.00130340576171875;8.33999997894352;835;100 mA
21.2114609464462;0.2998046875;0.00130401611328125;8.34999997891828;836;100 mA
21.221460946421;0.299835205078125;0.00130950927734375;8.35999997889303;837;100 mA
21.2314609463957;0.29986572265625;0.001307373046875;8.36999997886778;838;100 mA
21.2414609463705;0.29986572265625;0.0013134765625;8.37999997884253;839;100 mA
21.2514609463452;0.299835205078125;0.00132476806640625;8.38999997881729;840;100 mA
21.26146094632;0.299835205078125;0.00132476806640625;8.39999997879204;841;100 mA
21.2714609462947;0.29986572265625;0.00132080078125;8.40999997876679;842;100 mA
21.2814609462695;0.29986572265625;0.00131103515625;8.41999997874154;843;100 mA
21.2914609462442;0.299835205078125;0.0013116455078125;8.4299999787163;844;100 mA
21.301460946219;0.299896240234375;0.0013165283203125;8.43999997869105;845;100 mA
21.3114609461937;0.29986572265625;0.00132110595703125;8.4499999786658;846;100 mA
21.3214609461685;0.299835205078125;0.0013262939453125;8.45999997864055;847;100 mA
21.3314609461432;0.29986572265625;0.0013336181640625;8.46999997861531;848;100 mA
21.341460946118;0.2998046875;0.00133331298828125;8.47999997859006;849;100 mA
21.3514609460927;0.2998046875;0.00133056640625;8.48999997856481;850;100 mA
21.3614609460675;0.29986572265625;0.00132110595703125;8.49999997853956;851;100 mA
21.3714609460422;0.29986572265625;0.0013262939453125;8.50999997851432;852;100 mA
21.381460946017;0.299896240234375;0.0013287353515625;8.51999997848907;853;100 mA
21.3914609459918;0.299835205078125;0.0013330078125;8.52999997846382;854;100 mA
21.4014609459665;0.2998046875;0.0013421630859375;8.53999997843857;855;100 mA
21.4114609459413;0.299835205078125;0.0013470458984375;8.54999997841333;856;100 mA
21.421460945916;0.299896240234375;0.0013470458984375;8.55999997838808;857;100 mA
21.4314609458908;0.2999267578125;0.0013421630859375;8.56999997836283;858;100 mA
21.4414609458655;0.299835205078125;0.0013336181640625;8.57999997833758;859;100 mA
21.4514609458403;0.299896240234375;0.00133819580078125;8.58999997831233;860;100 mA
21.461460945815;0.299835205078125;0.00134552001953125;8.59999997828709;861;100 mA
21.4714609457898;0.299835205078125;0.00134735107421875;8.60999997826184;862;100 mA
21.4814609457645;0.299835205078125;0.0013525390625;8.61999997823659;863;100 mA
21.4914609457393;0.299896240234375;0.00135223388671875;8.62999997821134;864;100 mA
21.501460945714;0.299896240234375;0.00135162353515625;8.6399999781861;865;100 mA
21.5114609456888;0.2998046875;0.00134429931640625;8.64999997816085;866;100 mA
21.5214609456635;0.29986572265625;0.0013397216796875;8.6599999781356;867;100 mA
21.5314609456383;0.29986572265625;0.00133758544921875;8.66999997811035;868;100 mA
21.541460945613;0.299835205078125;0.00134368896484375;8.67999997808511;869;100 mA
21.5514609455878;0.299835205078125;0.00134368896484375;8.68999997805986;870;100 mA
21.5614609455625;0.29986572265625;0.00135162353515625;8.69999997803461;871;100 mA
21.5714609455373;0.2999267578125;0.00135589599609375;8.70999997800936;872;100 mA
21.581460945512;0.29986572265625;0.00135589599609375;8.71999997798412;873;100 mA
21.5914609454868;0.29986572265625;0.0013519287109375;8.72999997795887;874;100 mA
21.6014609454616;0.29986572265625;0.0013470458984375;8.73999997793362;875;100 mA
21.6114609454363;0.29986572265625;0.00135009765625;8.74999997790837;876;100 mA
21.6214609454111;0.29986572265625;0.00135711669921875;8.75999997788313;877;100 mA
21.6314609453858;0.299835205078125;0.00135406494140625;8.76999997785788;878;100 mA
21.6414609453606;0.2998046875;0.00135772705078125;8.77999997783263;879;100 mA
21.6514609453353;0.299896240234375;0.0013690185546875;8.78999997780738;880;100 mA
21.6614609453101;0.29986572265625;0.00136322021484375;8.79999997778214;881;100 mA
21.6714609452848;0.299835205078125;0.00135650634765625;8.80999997775689;882;100 mA
21.6814609452596;0.299835205078125;0.0013433837890625;8.81999997773164;883;100 mA
21.6914609452343;0.29986572265625;0.00134063720703125;8.82999997770639;884;100 mA
21.7014609452091;0.299835205078125;0.001341552734375;8.83999997768115;885;100 mA
21.7114609451838;0.29986572265625;0.00134368896484375;8.8499999776559;886;100 mA
21.7214609451586;0.299896240234375;0.00134429931640625;8.85999997763065;887;100 mA
21.7314609451333;0.29986572265625;0.0013482666015625;8.8699999776054;888;100 mA
21.7414609451081;0.29986572265625;0.0013446044921875;8.87999997758016;889;100 mA
21.7514609450828;0.2998046875;0.00134002685546875;8.88999997755491;890;100 mA
21.7614609450576;0.29986572265625;0.00132904052734375;8.89999997752966;891;100 mA
21.7714609450323;0.299896240234375;0.00133087158203125;8.90999997750441;892;100 mA
21.7814609450071;0.299896240234375;0.00133087158203125;8.91999997747916;893;100 mA
21.7914609449818;0.2999267578125;0.001328125;8.92999997745392;894;100 mA
21.8014609449566;0.2998046875;0.0013336181640625;8.93999997742867;895;100 mA
21.8114609449314;0.299835205078125;0.001331787109375;8.94999997740342;896;100 mA
21.8214609449061;0.299835205078125;0.00132904052734375;8.95999997737817;897;100 mA
21.8314609448809;0.299835205078125;0.0013226318359375;8.96999997735293;898;100 mA
21.8414609448556;0.299896240234375;0.00131317138671875;8.97999997732768;899;100 mA
21.8514609448304;0.2999267578125;0.001317138671875;8.98999997730243;900;100 mA
21.8614609448051;0.299896240234375;0.0013232421875;8.99999997727718;901;100 mA
21.8714609447799;0.299835205078125;0.0013214111328125;9.00999997725194;902;100 mA
21.8814609447546;0.2998046875;0.00132781982421875;9.01999997722669;903;100 mA
21.8914609447294;0.29986572265625;0.00132537841796875;9.02999997720144;904;100 mA
21.9014609447041;0.299896240234375;0.00132598876953125;9.03999997717619;905;100 mA
21.9114609446789;0.299896240234375;0.00131927490234375;9.04999997715095;906;100 mA
21.9214609446536;0.2998046875;0.001314697265625;9.0599999771257;907;100 mA
21.9314609446284;0.299896240234375;0.00131317138671875;9.06999997710045;908;100 mA
21.9414609446031;0.2998046875;0.00132049560546875;9.0799999770752;909;100 mA
21.9514609445779;0.29986572265625;0.00131927490234375;9.08999997704996;910;100 mA
21.9614609445526;0.299835205078125;0.0013275146484375;9.09999997702471;911;100 mA
21.9714609445274;0.299835205078125;0.00133392333984375;9.10999997699946;912;100 mA
21.9814609445021;0.299896240234375;0.00133331298828125;9.11999997697421;913;100 mA
21.9914609444769;0.299896240234375;0.00132781982421875;9.12999997694897;914;100 mA
22.0014609444517;0.299835205078125;0.00132537841796875;9.13999997692372;915;100 mA
22.0114609444264;0.299835205078125;0.0013250732421875;9.14999997689847;916;100 mA
22.0214609444012;0.29986572265625;0.00133331298828125;9.15999997687322;917;100 mA
22.0314609443759;0.299835205078125;0.0013299560546875;9.16999997684798;918;100 mA
22.0414609443507;0.29986572265625;0.00133544921875;9.17999997682273;919;100 mA
22.0514609443254;0.29986572265625;0.0013482666015625;9.18999997679748;920;100 mA
22.0614609443002;0.299896240234375;0.0013470458984375;9.19999997677223;921;100 mA
22.0714609442749;0.2998046875;0.0013446044921875;9.20999997674699;922;100 mA
22.0814609442497;0.299835205078125;0.00133544921875;9.21999997672174;923;100 mA
22.0914609442244;0.29986572265625;0.001337890625;9.22999997669649;924;100 mA
22.1014609441992;0.29986572265625;0.0013421630859375;9.23999997667124;925;100 mA
22.1114609441739;0.29986572265625;0.00134368896484375;9.249999976646;926;100 mA
22.1214609441487;0.299835205078125;0.001341552734375;9.25999997662075;927;100 mA
22.1314609441234;0.299835205078125;0.00134490966796875;9.2699999765955;928;100 mA
22.1414609440982;0.299896240234375;0.001339111328125;9.27999997657025;929;100 mA
22.1514609440729;0.299835205078125;0.0013348388671875;9.289999976545;930;100 mA
22.1614609440477;0.299896240234375;0.00132476806640625;9.29999997651976;931;100 mA
22.1714609440224;0.29986572265625;0.00133056640625;9.30999997649451;932;100 mA
22.1814609439972;0.2998046875;0.00133270263671875;9.31999997646926;933;100 mA
22.1914609439719;0.29986572265625;0.00133148193359375;9.32999997644401;934;100 mA
22.2014609439467;0.299835205078125;0.00134033203125;9.33999997641877;935;100 mA
22.2114609439215;0.29986572265625;0.001341552734375;9.34999997639352;936;100 mA
22.2214609438962;0.29986572265625;0.00133697509765625;9.35999997636827;937;100 mA
22.231460943871;0.29986572265625;0.00133026123046875;9.36999997634302;938;100 mA
22.2414609438457;0.299835205078125;0.00131988525390625;9.37999997631778;939;100 mA
22.2514609438205;0.29986572265625;0.00132354736328125;9.38999997629253;940;100 mA
22.2614609437952;0.29986572265625;0.001331787109375;9.39999997626728;941;100 mA
22.27146094377;0.2998046875;0.00133026123046875;9.40999997624203;942;100 mA
22.2814609437447;0.29986572265625;0.00133819580078125;9.41999997621679;943;100 mA
22.2914609437195;0.29986572265625;0.00134033203125;9.42999997619154;944;100 mA
22.3014609436942;0.299896240234375;0.00134368896484375;9.43999997616629;945;100 mA
22.311460943669;0.299835205078125;0.0013372802734375;9.44999997614104;946;100 mA
22.3214609436437;0.299835205078125;0.001334228515625;9.4599999761158;947;100 mA
22.3314609436185;0.299835205078125;0.00133148193359375;9.46999997609055;948;100 mA
22.3414609435932;0.299835205078125;0.001337890625;9.4799999760653;949;100 mA
22.351460943568;0.299896240234375;0.00133514404296875;9.48999997604005;950;100 mA
22.3614609435427;0.2998046875;0.00134307861328125;9.49999997601481;951;100 mA
22.3714609435175;0.29986572265625;0.0013507080078125;9.50999997598956;952;100 mA
22.3814609434922;0.29986572265625;0.00134735107421875;9.51999997596431;953;100 mA
22.391460943467;0.2998046875;0.00134124755859375;9.52999997593906;954;100 mA
22.4014609434417;0.299896240234375;0.001337890625;9.53999997591382;955;100 mA
22.4114609434165;0.29986572265625;0.00133880615234375;9.54999997588857;956;100 mA
22.4214609433913;0.2998046875;0.00134185791015625;9.55999997586332;957;100 mA
22.431460943366;0.299835205078125;0.0013360595703125;9.56999997583807;958;100 mA
22.4414609433408;0.29986572265625;0.0013360595703125;9.57999997581283;959;100 mA
22.4514609433155;0.299835205078125;0.00134674072265625;9.58999997578758;960;100 mA
22.4614609432903;0.299835205078125;0.00134246826171875;9.59999997576233;961;100 mA
22.471460943265;0.299896240234375;0.0013385009765625;9.60999997573708;962;100 mA
22.4814609432398;0.2998046875;0.00132843017578125;9.61999997571183;963;100 mA
22.4914609432145;0.299896240234375;0.0013311767578125;9.62999997568659;964;100 mA
22.5014609431893;0.299835205078125;0.0013348388671875;9.63999997566134;965;100 mA
22.511460943164;0.299835205078125;0.00133819580078125;9.64999997563609;966;100 mA
22.5214609431388;0.299835205078125;0.00133575439453125;9.65999997561084;967;100 mA
22.5314609431135;0.299835205078125;0.00133880615234375;9.6699999755856;968;100 mA
22.5414609430883;0.29986572265625;0.001331787109375;9.67999997556035;969;100 mA
22.551460943063;0.299896240234375;0.00132965087890625;9.6899999755351;970;100 mA
22.5614609430378;0.2998046875;0.001322021484375;9.69999997550985;971;100 mA
22.5714609430125;0.299896240234375;0.00132843017578125;9.70999997548461;972;100 mA
22.5814609429873;0.29986572265625;0.00133148193359375;9.71999997545936;973;100 mA
22.591460942962;0.299835205078125;0.00133026123046875;9.72999997543411;974;100 mA
22.6014609429368;0.2998046875;0.00133819580078125;9.73999997540886;975;100 mA
22.6114609429115;0.2999267578125;0.0013372802734375;9.74999997538362;976;100 mA
22.6214609428863;0.29986572265625;0.0013336181640625;9.75999997535837;977;100 mA
22.6314609428611;0.29986572265625;0.0013250732421875;9.76999997533312;978;100 mA
22.6414609428358;0.29986572265625;0.00131256103515625;9.77999997530787;979;100 mA
22.6514609428106;0.299896240234375;0.00131439208984375;9.78999997528263;980;100 mA
22.6614609427853;0.299896240234375;0.001324462890625;9.79999997525738;981;100 mA
22.6714609427601;0.299835205078125;0.00132293701171875;9.80999997523213;982;100 mA
22.6814609427348;0.29986572265625;0.00133148193359375;9.81999997520688;983;100 mA
22.6914609427096;0.29986572265625;0.0013348388671875;9.82999997518164;984;100 mA
22.7014609426843;0.29986572265625;0.00133758544921875;9.83999997515639;985;100 mA
22.7114609426591;0.29986572265625;0.00133392333984375;9.84999997513114;986;100 mA
22.7214609426338;0.29986572265625;0.00133026123046875;9.85999997510589;987;100 mA
22.7314609426086;0.29986572265625;0.00133087158203125;9.86999997508065;988;100 mA
22.7414609425833;0.299835205078125;0.0013348388671875;9.8799999750554;989;100 mA
22.7514609425581;0.29986572265625;0.00133331298828125;9.88999997503015;990;100 mA
22.7614609425328;0.299896240234375;0.00134002685546875;9.8999999750049;991;100 mA
22.7714609425076;0.2998046875;0.00134735107421875;9.90999997497966;992;100 mA
22.7814609424823;0.299835205078125;0.0013446044921875;9.91999997495441;993;100 mA
22.7914609424571;0.29986572265625;0.001336669921875;9.92999997492916;994;100 mA
22.8014609424318;0.29986572265625;0.0013336181640625;9.93999997490391;995;100 mA
22.8114609424066;0.299835205078125;0.0013348388671875;9.94999997487866;996;100 mA
22.8214609423813;0.299835205078125;0.00133880615234375;9.95999997485342;997;100 mA
22.8314609423561;0.299896240234375;0.00133514404296875;9.96999997482817;998;100 mA
22.8414609423309;0.299896240234375;0.00133636474609375;9.97999997480292;999;100 mA
22.8514609423056;0.29986572265625;0.0013458251953125;9.98999997477767;1000;100 mA
