Time (s);WE(1).Potential (V);WE(1).Current (A);Corrected time (s);Index;Current range
23.3167409411309;0.199981689453125;0.00020416259765625;0;1;100 mA
23.3267409411056;0.20001220703125;0.000546875;0.00999999997475243;2;100 mA
23.3367409410804;0.199951171875;0.00070831298828125;0.0199999999495049;3;100 mA
23.3467409410551;0.199951171875;0.0007965087890625;0.0299999999242573;4;100 mA
23.3567409410299;0.200042724609375;0.0008612060546875;0.0399999998990097;5;100 mA
23.3667409410047;0.199951171875;0.00089874267578125;0.0499999998737621;6;100 mA
23.3767409409794;0.199951171875;0.000942077636718749;0.0599999998485146;7;100 mA
23.3867409409542;0.199981689453125;0.000963745117187501;0.069999999823267;8;100 mA
23.3967409409289;0.199951171875;0.000999755859375;0.0799999997980194;9;100 mA
23.4067409409037;0.199981689453125;0.001011962890625;0.0899999997727718;10;100 mA
23.4167409408784;0.20001220703125;0.00103118896484375;0.0999999997475243;11;100 mA
23.4267409408532;0.199951171875;0.00103607177734375;0.109999999722277;12;100 mA
23.4367409408279;0.199981689453125;0.00104278564453125;0.119999999697029;13;100 mA
23.4467409408027;0.199981689453125;0.00105438232421875;0.129999999671782;14;100 mA
23.4567409407774;0.199981689453125;0.00107208251953125;0.139999999646534;15;100 mA
23.4667409407522;0.199981689453125;0.00107452392578125;0.149999999621286;16;100 mA
23.4767409407269;0.199981689453125;0.00108917236328125;0.159999999596039;17;100 mA
23.4867409407017;0.199951171875;0.00109039306640625;0.169999999570791;18;100 mA
23.4967409406764;0.199981689453125;0.00110198974609375;0.179999999545544;19;100 mA
23.5067409406512;0.199981689453125;0.0011004638671875;0.189999999520296;20;100 mA
23.5167409406259;0.199981689453125;0.0011041259765625;0.199999999495049;21;100 mA
23.5267409406007;0.199981689453125;0.00110595703125;0.209999999469801;22;100 mA
23.5367409405754;0.199951171875;0.0011151123046875;0.219999999444553;23;100 mA
23.5467409405502;0.200042724609375;0.00112030029296875;0.229999999419306;24;100 mA
23.5567409405249;0.199951171875;0.0011309814453125;0.239999999394058;25;100 mA
23.5667409404997;0.199981689453125;0.00113067626953125;0.249999999368811;26;100 mA
23.5767409404745;0.199951171875;0.00113128662109375;0.259999999343563;27;100 mA
23.5867409404492;0.199981689453125;0.00112396240234375;0.269999999318316;28;100 mA
23.596740940424;0.200042724609375;0.001123046875;0.279999999293068;29;100 mA
23.6067409403987;0.199951171875;0.0011279296875;0.28999999926782;30;100 mA
23.6167409403735;0.20001220703125;0.00113037109375;0.299999999242573;31;100 mA
23.6267409403482;0.199981689453125;0.001134033203125;0.309999999217325;32;100 mA
23.636740940323;0.199981689453125;0.0011358642578125;0.319999999192078;33;100 mA
23.6467409402977;0.199981689453125;0.00113800048828125;0.32999999916683;34;100 mA
23.6567409402725;0.20001220703125;0.001138916015625;0.339999999141583;35;100 mA
23.6667409402472;0.199981689453125;0.00112823486328125;0.349999999116335;36;100 mA
23.676740940222;0.199920654296875;0.00112701416015625;0.359999999091087;37;100 mA
23.6867409401967;0.199981689453125;0.001126708984375;0.36999999906584;38;100 mA
23.6967409401715;0.199981689453125;0.00113494873046875;0.379999999040592;39;100 mA
23.7067409401462;0.199981689453125;0.001136474609375;0.389999999015345;40;100 mA
23.716740940121;0.20001220703125;0.00114410400390625;0.399999998990097;41;100 mA
23.7267409400957;0.199981689453125;0.00114013671875;0.40999999896485;42;100 mA
23.7367409400705;0.199981689453125;0.001141357421875;0.419999998939602;43;100 mA
23.7467409400452;0.199981689453125;0.00113189697265625;0.429999998914354;44;100 mA
23.75674094002;0.199951171875;0.0011334228515625;0.439999998889107;45;100 mA
23.7667409399947;0.199981689453125;0.0011322021484375;0.449999998863859;46;100 mA
23.7767409399695;0.20001220703125;0.00114227294921875;0.459999998838612;47;100 mA
23.7867409399443;0.199951171875;0.00113861083984375;0.469999998813364;48;100 mA
23.796740939919;0.20001220703125;0.00115203857421875;0.479999998788116;49;100 mA
23.8067409398938;0.199981689453125;0.0011468505859375;0.489999998762869;50;100 mA
23.8167409398685;0.199981689453125;0.00115020751953125;0.499999998737621;51;100 mA
23.8267409398433;0.199981689453125;0.00114013671875;0.509999998712374;52;100 mA
23.836740939818;0.20001220703125;0.00113800048828125;0.519999998687126;53;100 mA
23.8467409397928;0.20001220703125;0.00114166259765625;0.529999998661879;54;100 mA
23.8567409397675;0.20001220703125;0.00115325927734375;0.539999998636631;55;100 mA
23.8667409397423;0.199981689453125;0.0011517333984375;0.549999998611383;56;100 mA
23.876740939717;0.199981689453125;0.001163330078125;0.559999998586136;57;100 mA
23.8867409396918;0.20001220703125;0.00116058349609375;0.569999998560888;58;100 mA
23.8967409396665;0.20001220703125;0.00116546630859375;0.579999998535641;59;100 mA
23.9067409396413;0.199951171875;0.00115814208984375;0.589999998510393;60;100 mA
23.916740939616;0.20001220703125;0.00115509033203125;0.599999998485146;61;100 mA
23.9267409395908;0.20001220703125;0.00115478515625;0.609999998459898;62;100 mA
23.9367409395655;0.199920654296875;0.0011602783203125;0.61999999843465;63;100 mA
23.9467409395403;0.2000732421875;0.00116119384765625;0.629999998409403;64;100 mA
23.956740939515;0.199920654296875;0.00116912841796875;0.639999998384155;65;100 mA
23.9667409394898;0.199981689453125;0.00116790771484375;0.649999998358908;66;100 mA
23.9767409394645;0.199981689453125;0.001170654296875;0.65999999833366;67;100 mA
23.9867409394393;0.20001220703125;0.00116241455078125;0.669999998308413;68;100 mA
23.9967409394141;0.199981689453125;0.00116058349609375;0.679999998283165;69;100 mA
24.0067409393888;0.199981689453125;0.0011614990234375;0.689999998257917;70;100 mA
24.0167409393636;0.199951171875;0.0011614990234375;0.69999999823267;71;100 mA
24.0267409393383;0.20001220703125;0.0011627197265625;0.709999998207422;72;100 mA
24.0367409393131;0.199951171875;0.0011627197265625;0.719999998182175;73;100 mA
24.0467409392878;0.199981689453125;0.00116180419921875;0.729999998156927;74;100 mA
24.0567409392626;0.20001220703125;0.00116058349609375;0.73999999813168;75;100 mA
24.0667409392373;0.199981689453125;0.00115020751953125;0.749999998106432;76;100 mA
24.0767409392121;0.199981689453125;0.0011492919921875;0.759999998081184;77;100 mA
24.0867409391868;0.199951171875;0.0011480712890625;0.769999998055937;78;100 mA
24.0967409391616;0.199951171875;0.00115478515625;0.779999998030689;79;100 mA
24.1067409391363;0.199920654296875;0.0011529541015625;0.789999998005442;80;100 mA
24.1167409391111;0.199981689453125;0.0011578369140625;0.799999997980194;81;100 mA
24.1267409390858;0.199981689453125;0.00115478515625;0.809999997954947;82;100 mA
24.1367409390606;0.199920654296875;0.0011553955078125;0.819999997929699;83;100 mA
24.1467409390353;0.199920654296875;0.001146240234375;0.829999997904451;84;100 mA
24.1567409390101;0.199951171875;0.0011456298828125;0.839999997879204;85;100 mA
24.1667409389848;0.199981689453125;0.001141357421875;0.849999997853956;86;100 mA
24.1767409389596;0.199951171875;0.00114990234375;0.859999997828709;87;100 mA
24.1867409389343;0.199981689453125;0.001143798828125;0.869999997803461;88;100 mA
24.1967409389091;0.200042724609375;0.00115570068359375;0.879999997778214;89;100 mA
24.2067409388839;0.199920654296875;0.0011492919921875;0.889999997752966;90;100 mA
24.2167409388586;0.199951171875;0.00115386962890625;0.899999997727718;91;100 mA
24.2267409388334;0.20001220703125;0.00114593505859375;0.909999997702471;92;100 mA
24.2367409388081;0.199981689453125;0.00114501953125;0.919999997677223;93;100 mA
24.2467409387829;0.20001220703125;0.00114837646484375;0.929999997651976;94;100 mA
24.2567409387576;0.199951171875;0.00115997314453125;0.939999997626728;95;100 mA
24.2667409387324;0.199981689453125;0.00115631103515625;0.949999997601481;96;100 mA
24.2767409387071;0.199920654296875;0.0011676025390625;0.959999997576233;97;100 mA
24.2867409386819;0.200042724609375;0.00116851806640625;0.969999997550985;98;100 mA
24.2967409386566;0.199981689453125;0.00117462158203125;0.979999997525738;99;100 mA
24.3067409386314;0.199981689453125;0.00116912841796875;0.98999999750049;100;100 mA
24.3167409386061;0.199951171875;0.00116546630859375;0.999999997475243;101;100 mA
24.3267409385809;0.20001220703125;0.00116363525390625;1.00999999745;102;100 mA
24.3367409385556;0.200042724609375;0.0011669921875;1.01999999742475;103;100 mA
24.3467409385304;0.20001220703125;0.0011676025390625;1.0299999973995;104;100 mA
24.3567409385051;0.20001220703125;0.0011712646484375;1.03999999737425;105;100 mA
24.3667409384799;0.20001220703125;0.00116943359375;1.049999997349;106;100 mA
24.3767409384546;0.199981689453125;0.001168212890625;1.05999999732376;107;100 mA
24.3867409384294;0.199981689453125;0.00116180419921875;1.06999999729851;108;100 mA
24.3967409384042;0.199981689453125;0.00115875244140625;1.07999999727326;109;100 mA
24.4067409383789;0.199981689453125;0.00115814208984375;1.08999999724801;110;100 mA
24.4167409383537;0.199981689453125;0.0011578369140625;1.09999999722277;111;100 mA
24.4267409383284;0.19989013671875;0.00115631103515625;1.10999999719752;112;100 mA
24.4367409383032;0.199920654296875;0.00115875244140625;1.11999999717227;113;100 mA
24.4467409382779;0.199981689453125;0.00115753173828125;1.12999999714702;114;100 mA
24.4567409382527;0.199981689453125;0.0011541748046875;1.13999999712178;115;100 mA
24.4667409382274;0.199951171875;0.00113983154296875;1.14999999709653;116;100 mA
24.4767409382022;0.199981689453125;0.00113555908203125;1.15999999707128;117;100 mA
24.4867409381769;0.199981689453125;0.0011334228515625;1.16999999704603;118;100 mA
24.4967409381517;0.20001220703125;0.00114013671875;1.17999999702079;119;100 mA
24.5067409381264;0.20001220703125;0.0011383056640625;1.18999999699554;120;100 mA
24.5167409381012;0.199981689453125;0.00114654541015625;1.19999999697029;121;100 mA
24.5267409380759;0.199981689453125;0.00114288330078125;1.20999999694504;122;100 mA
24.5367409380507;0.200042724609375;0.00114654541015625;1.2199999969198;123;100 mA
24.5467409380254;0.199951171875;0.00113800048828125;1.22999999689455;124;100 mA
24.5567409380002;0.200042724609375;0.00114013671875;1.2399999968693;125;100 mA
24.5667409379749;0.199981689453125;0.00113861083984375;1.24999999684405;126;100 mA
24.5767409379497;0.199981689453125;0.00115020751953125;1.25999999681881;127;100 mA
24.5867409379244;0.200042724609375;0.0011468505859375;1.26999999679356;128;100 mA
24.5967409378992;0.199951171875;0.0011614990234375;1.27999999676831;129;100 mA
24.606740937874;0.199951171875;0.00115753173828125;1.28999999674306;130;100 mA
24.6167409378487;0.199951171875;0.001163330078125;1.29999999671782;131;100 mA
24.6267409378235;0.20001220703125;0.00115386962890625;1.30999999669257;132;100 mA
24.6367409377982;0.200042724609375;0.0011517333984375;1.31999999666732;133;100 mA
24.646740937773;0.200042724609375;0.0011553955078125;1.32999999664207;134;100 mA
24.6567409377477;0.199951171875;0.00116455078125;1.33999999661683;135;100 mA
24.6667409377225;0.199951171875;0.001160888671875;1.34999999659158;136;100 mA
24.6767409376972;0.20001220703125;0.00116912841796875;1.35999999656633;137;100 mA
24.686740937672;0.20001220703125;0.00117034912109375;1.36999999654108;138;100 mA
24.6967409376467;0.199951171875;0.0011767578125;1.37999999651583;139;100 mA
24.7067409376215;0.200042724609375;0.00117156982421875;1.38999999649059;140;100 mA
24.7167409375962;0.20001220703125;0.00117034912109375;1.39999999646534;141;100 mA
24.726740937571;0.20001220703125;0.001170654296875;1.40999999644009;142;100 mA
24.7367409375457;0.20001220703125;0.0011761474609375;1.41999999641484;143;100 mA
24.7467409375205;0.20001220703125;0.001175537109375;1.4299999963896;144;100 mA
24.7567409374952;0.199951171875;0.0011810302734375;1.43999999636435;145;100 mA
24.76674093747;0.199920654296875;0.0011767578125;1.4499999963391;146;100 mA
24.7767409374447;0.20001220703125;0.0011737060546875;1.45999999631385;147;100 mA
24.7867409374195;0.199981689453125;0.00116363525390625;1.46999999628861;148;100 mA
24.7967409373942;0.20001220703125;0.00115936279296875;1.47999999626336;149;100 mA
24.806740937369;0.20001220703125;0.00115570068359375;1.48999999623811;150;100 mA
24.8167409373438;0.199981689453125;0.00115478515625;1.49999999621286;151;100 mA
24.8267409373185;0.199981689453125;0.00115325927734375;1.50999999618762;152;100 mA
24.8367409372933;0.199951171875;0.0011572265625;1.51999999616237;153;100 mA
24.846740937268;0.20001220703125;0.00115814208984375;1.52999999613712;154;100 mA
24.8567409372428;0.199981689453125;0.00115997314453125;1.53999999611187;155;100 mA
24.8667409372175;0.199981689453125;0.00114990234375;1.54999999608663;156;100 mA
24.8767409371923;0.20001220703125;0.00114898681640625;1.55999999606138;157;100 mA
24.886740937167;0.199920654296875;0.0011505126953125;1.56999999603613;158;100 mA
24.8967409371418;0.199981689453125;0.001160888671875;1.57999999601088;159;100 mA
24.9067409371165;0.199981689453125;0.001160888671875;1.58999999598564;160;100 mA
24.9167409370913;0.199951171875;0.00116729736328125;1.59999999596039;161;100 mA
24.926740937066;0.199981689453125;0.001162109375;1.60999999593514;162;100 mA
24.9367409370408;0.20001220703125;0.00116485595703125;1.61999999590989;163;100 mA
24.9467409370155;0.20001220703125;0.00115692138671875;1.62999999588465;164;100 mA
24.9567409369903;0.199981689453125;0.00115997314453125;1.6399999958594;165;100 mA
24.966740936965;0.199981689453125;0.00115997314453125;1.64999999583415;166;100 mA
24.9767409369398;0.199981689453125;0.0011724853515625;1.6599999958089;167;100 mA
24.9867409369145;0.199981689453125;0.001170654296875;1.66999999578366;168;100 mA
24.9967409368893;0.20001220703125;0.00118682861328125;1.67999999575841;169;100 mA
25.006740936864;0.20001220703125;0.00118377685546875;1.68999999573316;170;100 mA
25.0167409368388;0.20001220703125;0.00118927001953125;1.69999999570791;171;100 mA
25.0267409368136;0.20001220703125;0.001180419921875;1.70999999568267;172;100 mA
25.0367409367883;0.199951171875;0.0011785888671875;1.71999999565742;173;100 mA
25.0467409367631;0.200042724609375;0.001181640625;1.72999999563217;174;100 mA
25.0567409367378;0.20001220703125;0.00119476318359375;1.73999999560692;175;100 mA
25.0667409367126;0.199981689453125;0.00119171142578125;1.74999999558167;176;100 mA
25.0767409366873;0.199951171875;0.00120086669921875;1.75999999555643;177;100 mA
25.0867409366621;0.199981689453125;0.001201171875;1.76999999553118;178;100 mA
25.0967409366368;0.20001220703125;0.001204833984375;1.77999999550593;179;100 mA
25.1067409366116;0.199981689453125;0.00119720458984375;1.78999999548068;180;100 mA
25.1167409365863;0.199920654296875;0.00119384765625;1.79999999545544;181;100 mA
25.1267409365611;0.199981689453125;0.00119293212890625;1.80999999543019;182;100 mA
25.1367409365358;0.20001220703125;0.0011993408203125;1.81999999540494;183;100 mA
25.1467409365106;0.199981689453125;0.00119903564453125;1.82999999537969;184;100 mA
25.1567409364853;0.199951171875;0.001204833984375;1.83999999535445;185;100 mA
25.1667409364601;0.20001220703125;0.0012030029296875;1.8499999953292;186;100 mA
25.1767409364348;0.19989013671875;0.00120025634765625;1.85999999530395;187;100 mA
25.1867409364096;0.199951171875;0.00118927001953125;1.8699999952787;188;100 mA
25.1967409363843;0.199981689453125;0.00118377685546875;1.87999999525346;189;100 mA
25.2067409363591;0.199981689453125;0.0011834716796875;1.88999999522821;190;100 mA
25.2167409363338;0.199981689453125;0.00118133544921875;1.89999999520296;191;100 mA
25.2267409363086;0.199951171875;0.00118011474609375;1.90999999517771;192;100 mA
25.2367409362834;0.199981689453125;0.0011822509765625;1.91999999515247;193;100 mA
25.2467409362581;0.199981689453125;0.00118072509765625;1.92999999512722;194;100 mA
25.2567409362329;0.200042724609375;0.00118072509765625;1.93999999510197;195;100 mA
25.2667409362076;0.199981689453125;0.0011700439453125;1.94999999507672;196;100 mA
25.2767409361824;0.199981689453125;0.00116912841796875;1.95999999505148;197;100 mA
25.2867409361571;0.199981689453125;0.00117095947265625;1.96999999502623;198;100 mA
25.2967409361319;0.199981689453125;0.0011798095703125;1.97999999500098;199;100 mA
25.3067409361066;0.199981689453125;0.0011785888671875;1.98999999497573;200;100 mA
25.3167409360814;0.199981689453125;0.00118438720703125;1.99999999495049;201;100 mA
25.3267409360561;0.200042724609375;0.001177978515625;2.00999999492524;202;100 mA
25.3367409360309;0.199981689453125;0.00118011474609375;2.01999999489999;203;100 mA
25.3467409360056;0.199951171875;0.00116851806640625;2.02999999487474;204;100 mA
25.3567409359804;0.20001220703125;0.00116943359375;2.0399999948495;205;100 mA
25.3667409359551;0.199951171875;0.00116851806640625;2.04999999482425;206;100 mA
25.3767409359299;0.199981689453125;0.00118011474609375;2.059999994799;207;100 mA
25.3867409359046;0.199981689453125;0.00117584228515625;2.06999999477375;208;100 mA
25.3967409358794;0.199981689453125;0.00118988037109375;2.0799999947485;209;100 mA
25.4067409358541;0.199981689453125;0.001185302734375;2.08999999472326;210;100 mA
25.4167409358289;0.20001220703125;0.00119110107421875;2.09999999469801;211;100 mA
25.4267409358037;0.199981689453125;0.001182861328125;2.10999999467276;212;100 mA
25.4367409357784;0.199951171875;0.001181640625;2.11999999464751;213;100 mA
25.4467409357532;0.199951171875;0.00118377685546875;2.12999999462227;214;100 mA
25.4567409357279;0.199981689453125;0.0011932373046875;2.13999999459702;215;100 mA
25.4667409357027;0.199951171875;0.0011883544921875;2.14999999457177;216;100 mA
25.4767409356774;0.200042724609375;0.0011944580078125;2.15999999454652;217;100 mA
25.4867409356522;0.199981689453125;0.0011920166015625;2.16999999452128;218;100 mA
25.4967409356269;0.200042724609375;0.0011932373046875;2.17999999449603;219;100 mA
25.5067409356017;0.199951171875;0.00118377685546875;2.18999999447078;220;100 mA
25.5167409355764;0.199981689453125;0.001177978515625;2.19999999444553;221;100 mA
25.5267409355512;0.199981689453125;0.001177978515625;2.20999999442029;222;100 mA
25.5367409355259;0.199981689453125;0.0011822509765625;2.21999999439504;223;100 mA
25.5467409355007;0.200042724609375;0.00117950439453125;2.22999999436979;224;100 mA
25.5567409354754;0.199981689453125;0.00118194580078125;2.23999999434454;225;100 mA
25.5667409354502;0.199951171875;0.00117828369140625;2.2499999943193;226;100 mA
25.5767409354249;0.199981689453125;0.0011749267578125;2.25999999429405;227;100 mA
25.5867409353997;0.199981689453125;0.0011651611328125;2.2699999942688;228;100 mA
25.5967409353744;0.20001220703125;0.001163330078125;2.27999999424355;229;100 mA
25.6067409353492;0.20001220703125;0.0011639404296875;2.28999999421831;230;100 mA
25.6167409353239;0.199981689453125;0.00116455078125;2.29999999419306;231;100 mA
25.6267409352987;0.20001220703125;0.001163330078125;2.30999999416781;232;100 mA
25.6367409352735;0.20001220703125;0.001168212890625;2.31999999414256;233;100 mA
25.6467409352482;0.199951171875;0.00116455078125;2.32999999411732;234;100 mA
25.656740935223;0.199951171875;0.00116546630859375;2.33999999409207;235;100 mA
25.6667409351977;0.199981689453125;0.00115203857421875;2.34999999406682;236;100 mA
25.6767409351725;0.200042724609375;0.00115325927734375;2.35999999404157;237;100 mA
25.6867409351472;0.199951171875;0.00115386962890625;2.36999999401633;238;100 mA
25.696740935122;0.199981689453125;0.0011627197265625;2.37999999399108;239;100 mA
25.7067409350967;0.199981689453125;0.001160888671875;2.38999999396583;240;100 mA
25.7167409350715;0.20001220703125;0.00116607666015625;2.39999999394058;241;100 mA
25.7267409350462;0.20001220703125;0.0011627197265625;2.40999999391533;242;100 mA
25.736740935021;0.20001220703125;0.00116485595703125;2.41999999389009;243;100 mA
25.7467409349957;0.199981689453125;0.00115447998046875;2.42999999386484;244;100 mA
25.7567409349705;0.199981689453125;0.001156005859375;2.43999999383959;245;100 mA
25.7667409349452;0.199981689453125;0.0011541748046875;2.44999999381434;246;100 mA
25.77674093492;0.20001220703125;0.00116607666015625;2.4599999937891;247;100 mA
25.7867409348947;0.199951171875;0.0011627197265625;2.46999999376385;248;100 mA
25.7967409348695;0.20001220703125;0.0011761474609375;2.4799999937386;249;100 mA
25.8067409348442;0.199981689453125;0.00116973876953125;2.48999999371335;250;100 mA
25.816740934819;0.199981689453125;0.00117340087890625;2.49999999368811;251;100 mA
25.8267409347937;0.20001220703125;0.0011651611328125;2.50999999366286;252;100 mA
25.8367409347685;0.199981689453125;0.001165771484375;2.51999999363761;253;100 mA
25.8467409347433;0.200042724609375;0.00116912841796875;2.52999999361236;254;100 mA
25.856740934718;0.199981689453125;0.00117767333984375;2.53999999358712;255;100 mA
25.8667409346928;0.200042724609375;0.001175537109375;2.54999999356187;256;100 mA
25.8767409346675;0.199951171875;0.00118377685546875;2.55999999353662;257;100 mA
25.8867409346423;0.20001220703125;0.00118438720703125;2.56999999351137;258;100 mA
25.896740934617;0.199920654296875;0.00118621826171875;2.57999999348613;259;100 mA
25.9067409345918;0.20001220703125;0.0011761474609375;2.58999999346088;260;100 mA
25.9167409345665;0.199920654296875;0.00117095947265625;2.59999999343563;261;100 mA
25.9267409345413;0.199981689453125;0.001171875;2.60999999341038;262;100 mA
25.936740934516;0.20001220703125;0.0011773681640625;2.61999999338514;263;100 mA
25.9467409344908;0.199951171875;0.001180419921875;2.62999999335989;264;100 mA
25.9567409344655;0.20001220703125;0.00118499755859375;2.63999999333464;265;100 mA
25.9667409344403;0.199981689453125;0.0011834716796875;2.64999999330939;266;100 mA
25.976740934415;0.20001220703125;0.00118194580078125;2.65999999328415;267;100 mA
25.9867409343898;0.20001220703125;0.00117523193359375;2.6699999932589;268;100 mA
25.9967409343645;0.199981689453125;0.00117523193359375;2.67999999323365;269;100 mA
26.0067409343393;0.199951171875;0.0011785888671875;2.6899999932084;270;100 mA
26.016740934314;0.199981689453125;0.001181640625;2.69999999318316;271;100 mA
26.0267409342888;0.19989013671875;0.001185302734375;2.70999999315791;272;100 mA
26.0367409342635;0.199981689453125;0.00119354248046875;2.71999999313266;273;100 mA
26.0467409342383;0.199951171875;0.00119293212890625;2.72999999310741;274;100 mA
26.0567409342131;0.199981689453125;0.0011956787109375;2.73999999308217;275;100 mA
26.0667409341878;0.20001220703125;0.00118133544921875;2.74999999305692;276;100 mA
26.0767409341626;0.20001220703125;0.00117706298828125;2.75999999303167;277;100 mA
26.0867409341373;0.199981689453125;0.00117706298828125;2.76999999300642;278;100 mA
26.0967409341121;0.20001220703125;0.00118194580078125;2.77999999298117;279;100 mA
26.1067409340868;0.199981689453125;0.00117706298828125;2.78999999295593;280;100 mA
26.1167409340616;0.199981689453125;0.001180419921875;2.79999999293068;281;100 mA
26.1267409340363;0.199981689453125;0.00117401123046875;2.80999999290543;282;100 mA
26.1367409340111;0.20001220703125;0.00117279052734375;2.81999999288018;283;100 mA
26.1467409339858;0.200042724609375;0.00115966796875;2.82999999285494;284;100 mA
26.1567409339606;0.200042724609375;0.00115997314453125;2.83999999282969;285;100 mA
26.1667409339353;0.199981689453125;0.00115692138671875;2.84999999280444;286;100 mA
26.1767409339101;0.199951171875;0.00116912841796875;2.85999999277919;287;100 mA
26.1867409338848;0.199981689453125;0.00116790771484375;2.86999999275395;288;100 mA
26.1967409338596;0.199981689453125;0.00118408203125;2.8799999927287;289;100 mA
26.2067409338343;0.20001220703125;0.00117919921875;2.88999999270345;290;100 mA
26.2167409338091;0.20001220703125;0.001182861328125;2.8999999926782;291;100 mA
26.2267409337838;0.2000732421875;0.0011737060546875;2.90999999265296;292;100 mA
26.2367409337586;0.199951171875;0.001171875;2.91999999262771;293;100 mA
26.2467409337333;0.199981689453125;0.00117340087890625;2.92999999260246;294;100 mA
26.2567409337081;0.199951171875;0.001181640625;2.93999999257721;295;100 mA
26.2667409336829;0.200042724609375;0.00117767333984375;2.94999999255197;296;100 mA
26.2767409336576;0.20001220703125;0.00118560791015625;2.95999999252672;297;100 mA
26.2867409336324;0.199920654296875;0.0011846923828125;2.96999999250147;298;100 mA
26.2967409336071;0.199981689453125;0.00118682861328125;2.97999999247622;299;100 mA
26.3067409335819;0.199981689453125;0.001180419921875;2.98999999245098;300;100 mA
26.3167409335566;0.199951171875;0.0011749267578125;2.99999999242573;301;100 mA
26.3267409335314;0.199920654296875;0.0011761474609375;3.00999999240048;302;100 mA
26.3367409335061;0.199981689453125;0.001181640625;3.01999999237523;303;100 mA
26.3467409334809;0.20001220703125;0.001181640625;3.02999999234999;304;100 mA
26.3567409334556;0.200042724609375;0.00118804931640625;3.03999999232474;305;100 mA
26.3667409334304;0.199981689453125;0.0011834716796875;3.04999999229949;306;100 mA
26.3767409334051;0.20001220703125;0.00118316650390625;3.05999999227424;307;100 mA
26.3867409333799;0.199920654296875;0.00117218017578125;3.069999992249;308;100 mA
26.3967409333546;0.199951171875;0.00116973876953125;3.07999999222375;309;100 mA
26.4067409333294;0.200042724609375;0.00117034912109375;3.0899999921985;310;100 mA
26.4167409333041;0.20001220703125;0.001171875;3.09999999217325;311;100 mA
26.4267409332789;0.199951171875;0.00117401123046875;3.109999992148;312;100 mA
26.4367409332536;0.199981689453125;0.0011810302734375;3.11999999212276;313;100 mA
26.4467409332284;0.20001220703125;0.00117828369140625;3.12999999209751;314;100 mA
26.4567409332032;0.20001220703125;0.0011798095703125;3.13999999207226;315;100 mA
26.4667409331779;0.199951171875;0.00116668701171875;3.14999999204701;316;100 mA
26.4767409331527;0.200042724609375;0.00116302490234375;3.15999999202177;317;100 mA
26.4867409331274;0.199951171875;0.00116302490234375;3.16999999199652;318;100 mA
26.4967409331022;0.199981689453125;0.00116912841796875;3.17999999197127;319;100 mA
26.5067409330769;0.199981689453125;0.00116668701171875;3.18999999194602;320;100 mA
26.5167409330517;0.200042724609375;0.00117340087890625;3.19999999192078;321;100 mA
26.5267409330264;0.200042724609375;0.00116912841796875;3.20999999189553;322;100 mA
26.5367409330012;0.199951171875;0.001173095703125;3.21999999187028;323;100 mA
26.5467409329759;0.199981689453125;0.0011602783203125;3.22999999184503;324;100 mA
26.5567409329507;0.20001220703125;0.00116180419921875;3.23999999181979;325;100 mA
26.5667409329254;0.199951171875;0.00115936279296875;3.24999999179454;326;100 mA
26.5767409329002;0.20001220703125;0.00116912841796875;3.25999999176929;327;100 mA
26.5867409328749;0.199951171875;0.00116607666015625;3.26999999174404;328;100 mA
26.5967409328497;0.199951171875;0.00117889404296875;3.2799999917188;329;100 mA
26.6067409328244;0.19989013671875;0.001175537109375;3.28999999169355;330;100 mA
26.6167409327992;0.20001220703125;0.0011761474609375;3.2999999916683;331;100 mA
26.6267409327739;0.199981689453125;0.0011669921875;3.30999999164305;332;100 mA
26.6367409327487;0.199981689453125;0.00116302490234375;3.31999999161781;333;100 mA
26.6467409327234;0.20001220703125;0.00116363525390625;3.32999999159256;334;100 mA
26.6567409326982;0.20001220703125;0.00116912841796875;3.33999999156731;335;100 mA
26.666740932673;0.200042724609375;0.00116729736328125;3.34999999154206;336;100 mA
26.6767409326477;0.199920654296875;0.00117218017578125;3.35999999151682;337;100 mA
26.6867409326225;0.199951171875;0.0011737060546875;3.36999999149157;338;100 mA
26.6967409325972;0.20001220703125;0.0011749267578125;3.37999999146632;339;100 mA
26.706740932572;0.20001220703125;0.0011651611328125;3.38999999144107;340;100 mA
26.7167409325467;0.20001220703125;0.0011590576171875;3.39999999141583;341;100 mA
26.7267409325215;0.20001220703125;0.00115814208984375;3.40999999139058;342;100 mA
26.7367409324962;0.199981689453125;0.00115966796875;3.41999999136533;343;100 mA
26.746740932471;0.199951171875;0.00115753173828125;3.42999999134008;344;100 mA
26.7567409324457;0.20001220703125;0.001160888671875;3.43999999131483;345;100 mA
26.7667409324205;0.199981689453125;0.001156005859375;3.44999999128959;346;100 mA
26.7767409323952;0.20001220703125;0.001158447265625;3.45999999126434;347;100 mA
26.78674093237;0.20001220703125;0.0011505126953125;3.46999999123909;348;100 mA
26.7967409323447;0.20001220703125;0.00114990234375;3.47999999121384;349;100 mA
26.8067409323195;0.20001220703125;0.0011517333984375;3.4899999911886;350;100 mA
26.8167409322942;0.199951171875;0.00115570068359375;3.49999999116335;351;100 mA
26.826740932269;0.199981689453125;0.00115692138671875;3.5099999911381;352;100 mA
26.8367409322437;0.199951171875;0.0011669921875;3.51999999111285;353;100 mA
26.8467409322185;0.199920654296875;0.001162109375;3.52999999108761;354;100 mA
26.8567409321932;0.199951171875;0.0011663818359375;3.53999999106236;355;100 mA
26.866740932168;0.199920654296875;0.0011553955078125;3.54999999103711;356;100 mA
26.8767409321428;0.200042724609375;0.00115570068359375;3.55999999101186;357;100 mA
26.8867409321175;0.20001220703125;0.00115753173828125;3.56999999098662;358;100 mA
26.8967409320923;0.20001220703125;0.001165771484375;3.57999999096137;359;100 mA
26.906740932067;0.199981689453125;0.00116363525390625;3.58999999093612;360;100 mA
26.9167409320418;0.199981689453125;0.00117156982421875;3.59999999091087;361;100 mA
26.9267409320165;0.199981689453125;0.00116973876953125;3.60999999088563;362;100 mA
26.9367409319913;0.199951171875;0.00117462158203125;3.61999999086038;363;100 mA
26.946740931966;0.20001220703125;0.00116455078125;3.62999999083513;364;100 mA
26.9567409319408;0.20001220703125;0.001168212890625;3.63999999080988;365;100 mA
26.9667409319155;0.20001220703125;0.001165771484375;3.64999999078464;366;100 mA
26.9767409318903;0.20001220703125;0.0011773681640625;3.65999999075939;367;100 mA
26.986740931865;0.199920654296875;0.00117523193359375;3.66999999073414;368;100 mA
26.9967409318398;0.200042724609375;0.00118560791015625;3.67999999070889;369;100 mA
27.0067409318145;0.20001220703125;0.00118133544921875;3.68999999068365;370;100 mA
27.0167409317893;0.20001220703125;0.00118377685546875;3.6999999906584;371;100 mA
27.026740931764;0.199981689453125;0.0011773681640625;3.70999999063315;372;100 mA
27.0367409317388;0.199981689453125;0.00117645263671875;3.7199999906079;373;100 mA
27.0467409317135;0.200042724609375;0.0011773681640625;3.72999999058266;374;100 mA
27.0567409316883;0.199951171875;0.00118316650390625;3.73999999055741;375;100 mA
27.066740931663;0.199951171875;0.0011822509765625;3.74999999053216;376;100 mA
27.0767409316378;0.200042724609375;0.00118927001953125;3.75999999050691;377;100 mA
27.0867409316126;0.199981689453125;0.0011920166015625;3.76999999048167;378;100 mA
27.0967409315873;0.199981689453125;0.0011920166015625;3.77999999045642;379;100 mA
27.1067409315621;0.199951171875;0.0011810302734375;3.78999999043117;380;100 mA
27.1167409315368;0.20001220703125;0.00117523193359375;3.79999999040592;381;100 mA
27.1267409315116;0.200042724609375;0.001175537109375;3.80999999038067;382;100 mA
27.1367409314863;0.199981689453125;0.00118072509765625;3.81999999035543;383;100 mA
27.1467409314611;0.200042724609375;0.0011822509765625;3.82999999033018;384;100 mA
27.1567409314358;0.199981689453125;0.001187744140625;3.83999999030493;385;100 mA
27.1667409314106;0.20001220703125;0.0011834716796875;3.84999999027968;386;100 mA
27.1767409313853;0.199920654296875;0.00118621826171875;3.85999999025444;387;100 mA
27.1867409313601;0.199981689453125;0.00117767333984375;3.86999999022919;388;100 mA
27.1967409313348;0.199981689453125;0.001177978515625;3.87999999020394;389;100 mA
27.2067409313096;0.20001220703125;0.001177978515625;3.88999999017869;390;100 mA
27.2167409312843;0.199981689453125;0.0011810302734375;3.89999999015345;391;100 mA
27.2267409312591;0.200042724609375;0.00117950439453125;3.9099999901282;392;100 mA
27.2367409312338;0.199981689453125;0.001190185546875;3.91999999010295;393;100 mA
27.2467409312086;0.200042724609375;0.00118408203125;3.9299999900777;394;100 mA
27.2567409311833;0.20001220703125;0.00118896484375;3.93999999005246;395;100 mA
27.2667409311581;0.20001220703125;0.00117584228515625;3.94999999002721;396;100 mA
27.2767409311328;0.20001220703125;0.0011761474609375;3.95999999000196;397;100 mA
27.2867409311076;0.199981689453125;0.00117919921875;3.96999998997671;398;100 mA
27.2967409310824;0.199951171875;0.00119110107421875;3.97999998995147;399;100 mA
27.3067409310571;0.199981689453125;0.0011907958984375;3.98999998992622;400;100 mA
27.3167409310319;0.199951171875;0.00119903564453125;3.99999998990097;401;100 mA
27.3267409310066;0.199951171875;0.00119598388671875;4.00999998987572;402;100 mA
27.3367409309814;0.20001220703125;0.0012005615234375;4.01999998985048;403;100 mA
27.3467409309561;0.199920654296875;0.00118927001953125;4.02999998982523;404;100 mA
27.3567409309309;0.200042724609375;0.00119232177734375;4.03999998979998;405;100 mA
27.3667409309056;0.199981689453125;0.0011895751953125;4.04999998977473;406;100 mA
27.3767409308804;0.199951171875;0.00120330810546875;4.05999998974949;407;100 mA
27.3867409308551;0.2000732421875;0.001202392578125;4.06999998972424;408;100 mA
27.3967409308299;0.20001220703125;0.0012152099609375;4.07999998969899;409;100 mA
27.4067409308046;0.199981689453125;0.001212158203125;4.08999998967374;410;100 mA
27.4167409307794;0.199981689453125;0.00121124267578125;4.0999999896485;411;100 mA
27.4267409307541;0.20001220703125;0.0012060546875;4.10999998962325;412;100 mA
27.4367409307289;0.199981689453125;0.001204833984375;4.119999989598;413;100 mA
27.4467409307036;0.20001220703125;0.0012078857421875;4.12999998957275;414;100 mA
27.4567409306784;0.199981689453125;0.00121490478515625;4.1399999895475;415;100 mA
27.4667409306531;0.199981689453125;0.00121429443359375;4.14999998952226;416;100 mA
27.4767409306279;0.199981689453125;0.00122039794921875;4.15999998949701;417;100 mA
27.4867409306027;0.20001220703125;0.00122222900390625;4.16999998947176;418;100 mA
27.4967409305774;0.20001220703125;0.0012225341796875;4.17999998944651;419;100 mA
27.5067409305522;0.199981689453125;0.00121490478515625;4.18999998942127;420;100 mA
27.5167409305269;0.199951171875;0.0012091064453125;4.19999998939602;421;100 mA
27.5267409305017;0.199951171875;0.00121002197265625;4.20999998937077;422;100 mA
27.5367409304764;0.19989013671875;0.0012139892578125;4.21999998934552;423;100 mA
27.5467409304512;0.200042724609375;0.001214599609375;4.22999998932028;424;100 mA
27.5567409304259;0.20001220703125;0.0012225341796875;4.23999998929503;425;100 mA
27.5667409304007;0.199951171875;0.001217041015625;4.24999998926978;426;100 mA
27.5767409303754;0.20001220703125;0.00121826171875;4.25999998924453;427;100 mA
27.5867409303502;0.199981689453125;0.0012066650390625;4.26999998921929;428;100 mA
27.5967409303249;0.20001220703125;0.00120635986328125;4.27999998919404;429;100 mA
27.6067409302997;0.199981689453125;0.0012060546875;4.28999998916879;430;100 mA
27.6167409302744;0.200042724609375;0.00121063232421875;4.29999998914354;431;100 mA
27.6267409302492;0.199981689453125;0.00121246337890625;4.3099999891183;432;100 mA
27.6367409302239;0.20001220703125;0.0012237548828125;4.31999998909305;433;100 mA
27.6467409301987;0.199951171875;0.001219482421875;4.3299999890678;434;100 mA
27.6567409301734;0.199981689453125;0.0012237548828125;4.33999998904255;435;100 mA
27.6667409301482;0.199981689453125;0.00121246337890625;4.34999998901731;436;100 mA
27.6767409301229;0.199951171875;0.001212158203125;4.35999998899206;437;100 mA
27.6867409300977;0.199981689453125;0.001214599609375;4.36999998896681;438;100 mA
27.6967409300725;0.199981689453125;0.00122467041015625;4.37999998894156;439;100 mA
27.7067409300472;0.20001220703125;0.0012237548828125;4.38999998891632;440;100 mA
27.716740930022;0.20001220703125;0.00123260498046875;4.39999998889107;441;100 mA
27.7267409299967;0.20001220703125;0.001229248046875;4.40999998886582;442;100 mA
27.7367409299715;0.199951171875;0.0012310791015625;4.41999998884057;443;100 mA
27.7467409299462;0.199981689453125;0.00121978759765625;4.42999998881533;444;100 mA
27.756740929921;0.199981689453125;0.0012176513671875;4.43999998879008;445;100 mA
27.7667409298957;0.199920654296875;0.001212158203125;4.44999998876483;446;100 mA
27.7767409298705;0.199981689453125;0.00122039794921875;4.45999998873958;447;100 mA
27.7867409298452;0.199981689453125;0.0012176513671875;4.46999998871433;448;100 mA
27.79674092982;0.199951171875;0.0012261962890625;4.47999998868909;449;100 mA
27.8067409297947;0.199951171875;0.00122314453125;4.48999998866384;450;100 mA
27.8167409297695;0.20001220703125;0.001220703125;4.49999998863859;451;100 mA
27.8267409297442;0.199981689453125;0.0012115478515625;4.50999998861334;452;100 mA
27.836740929719;0.199981689453125;0.0012060546875;4.5199999885881;453;100 mA
27.8467409296937;0.199981689453125;0.0012042236328125;4.52999998856285;454;100 mA
27.8567409296685;0.199981689453125;0.00120758056640625;4.5399999885376;455;100 mA
27.8667409296432;0.199951171875;0.001204833984375;4.54999998851235;456;100 mA
27.876740929618;0.199981689453125;0.0012109375;4.55999998848711;457;100 mA
27.8867409295927;0.20001220703125;0.0012115478515625;4.56999998846186;458;100 mA
27.8967409295675;0.20001220703125;0.00121063232421875;4.57999998843661;459;100 mA
27.9067409295423;0.20001220703125;0.00120086669921875;4.58999998841136;460;100 mA
27.916740929517;0.20001220703125;0.0011932373046875;4.59999998838612;461;100 mA
27.9267409294918;0.199981689453125;0.0011920166015625;4.60999998836087;462;100 mA
27.9367409294665;0.199981689453125;0.00119293212890625;4.61999998833562;463;100 mA
27.9467409294413;0.199981689453125;0.00118927001953125;4.62999998831037;464;100 mA
27.956740929416;0.20001220703125;0.00119232177734375;4.63999998828513;465;100 mA
27.9667409293908;0.20001220703125;0.00118499755859375;4.64999998825988;466;100 mA
27.9767409293655;0.200042724609375;0.00118377685546875;4.65999998823463;467;100 mA
27.9867409293403;0.199981689453125;0.00117279052734375;4.66999998820938;468;100 mA
27.996740929315;0.199981689453125;0.00116912841796875;4.67999998818414;469;100 mA
28.0067409292898;0.199981689453125;0.00116851806640625;4.68999998815889;470;100 mA
28.0167409292645;0.199981689453125;0.00117218017578125;4.69999998813364;471;100 mA
28.0267409292393;0.200042724609375;0.00116973876953125;4.70999998810839;472;100 mA
28.036740929214;0.2000732421875;0.001177978515625;4.71999998808315;473;100 mA
28.0467409291888;0.199981689453125;0.00116943359375;4.7299999880579;474;100 mA
28.0567409291635;0.199981689453125;0.00116943359375;4.73999998803265;475;100 mA
28.0667409291383;0.199951171875;0.00115631103515625;4.7499999880074;476;100 mA
28.076740929113;0.20001220703125;0.001153564453125;4.75999998798216;477;100 mA
28.0867409290878;0.199981689453125;0.00115386962890625;4.76999998795691;478;100 mA
28.0967409290625;0.199920654296875;0.0011627197265625;4.77999998793166;479;100 mA
28.1067409290373;0.199951171875;0.001158447265625;4.78999998790641;480;100 mA
28.1167409290121;0.20001220703125;0.00116485595703125;4.79999998788116;481;100 mA
28.1267409289868;0.199951171875;0.00116241455078125;4.80999998785592;482;100 mA
28.1367409289616;0.199951171875;0.001162109375;4.81999998783067;483;100 mA
28.1467409289363;0.20001220703125;0.0011505126953125;4.82999998780542;484;100 mA
28.1567409289111;0.20001220703125;0.0011517333984375;4.83999998778017;485;100 mA
28.1667409288858;0.199920654296875;0.001148681640625;4.84999998775493;486;100 mA
28.1767409288606;0.199981689453125;0.001158447265625;4.85999998772968;487;100 mA
28.1867409288353;0.199981689453125;0.00115631103515625;4.86999998770443;488;100 mA
28.1967409288101;0.200042724609375;0.001163330078125;4.87999998767918;489;100 mA
28.2067409287848;0.199981689453125;0.00115814208984375;4.88999998765394;490;100 mA
28.2167409287596;0.20001220703125;0.0011566162109375;4.89999998762869;491;100 mA
28.2267409287343;0.2000732421875;0.0011492919921875;4.90999998760344;492;100 mA
28.2367409287091;0.199951171875;0.001146240234375;4.91999998757819;493;100 mA
28.2467409286838;0.199981689453125;0.00114990234375;4.92999998755295;494;100 mA
28.2567409286586;0.199951171875;0.00115570068359375;4.9399999875277;495;100 mA
28.2667409286333;0.199951171875;0.00115570068359375;4.94999998750245;496;100 mA
28.2767409286081;0.20001220703125;0.001163330078125;4.9599999874772;497;100 mA
28.2867409285828;0.199951171875;0.0011663818359375;4.96999998745196;498;100 mA
28.2967409285576;0.200042724609375;0.0011663818359375;4.97999998742671;499;100 mA
28.3067409285323;0.199981689453125;0.0011572265625;4.98999998740146;500;100 mA
28.3167409285071;0.199981689453125;0.00115234375;4.99999998737621;501;100 mA
28.3267409284819;0.20001220703125;0.001156005859375;5.00999998735097;502;100 mA
28.3367409284566;0.20001220703125;0.00115875244140625;5.01999998732572;503;100 mA
28.3467409284314;0.199951171875;0.0011578369140625;5.02999998730047;504;100 mA
28.3567409284061;0.199951171875;0.001162109375;5.03999998727522;505;100 mA
28.3667409283809;0.199951171875;0.00115631103515625;5.04999998724998;506;100 mA
28.3767409283556;0.199981689453125;0.0011578369140625;5.05999998722473;507;100 mA
28.3867409283304;0.199981689453125;0.00114776611328125;5.06999998719948;508;100 mA
28.3967409283051;0.199951171875;0.0011456298828125;5.07999998717423;509;100 mA
28.4067409282799;0.199951171875;0.00114410400390625;5.08999998714899;510;100 mA
28.4167409282546;0.199981689453125;0.00114837646484375;5.09999998712374;511;100 mA
28.4267409282294;0.199981689453125;0.0011474609375;5.10999998709849;512;100 mA
28.4367409282041;0.199981689453125;0.00115692138671875;5.11999998707324;513;100 mA
28.4467409281789;0.20001220703125;0.00115020751953125;5.129999987048;514;100 mA
28.4567409281536;0.199920654296875;0.0011541748046875;5.13999998702275;515;100 mA
28.4667409281284;0.20001220703125;0.0011431884765625;5.1499999869975;516;100 mA
28.4767409281031;0.199951171875;0.0011431884765625;5.15999998697225;517;100 mA
28.4867409280779;0.2000732421875;0.00114501953125;5.169999986947;518;100 mA
28.4967409280526;0.199951171875;0.00115478515625;5.17999998692176;519;100 mA
28.5067409280274;0.199981689453125;0.00114959716796875;5.18999998689651;520;100 mA
28.5167409280022;0.199981689453125;0.00115570068359375;5.19999998687126;521;100 mA
28.5267409279769;0.199981689453125;0.00115386962890625;5.20999998684601;522;100 mA
28.5367409279517;0.200042724609375;0.001156005859375;5.21999998682077;523;100 mA
28.5467409279264;0.199951171875;0.00114593505859375;5.22999998679552;524;100 mA
28.5567409279012;0.199951171875;0.00114715576171875;5.23999998677027;525;100 mA
28.5667409278759;0.199981689453125;0.00114410400390625;5.24999998674502;526;100 mA
28.5767409278507;0.199981689453125;0.00115386962890625;5.25999998671978;527;100 mA
28.5867409278254;0.199981689453125;0.00115264892578125;5.26999998669453;528;100 mA
28.5967409278002;0.199981689453125;0.001163330078125;5.27999998666928;529;100 mA
28.6067409277749;0.200042724609375;0.001162109375;5.28999998664403;530;100 mA
28.6167409277497;0.20001220703125;0.00116180419921875;5.29999998661879;531;100 mA
28.6267409277244;0.199981689453125;0.0011578369140625;5.30999998659354;532;100 mA
28.6367409276992;0.20001220703125;0.00115692138671875;5.31999998656829;533;100 mA
28.6467409276739;0.20001220703125;0.0011602783203125;5.32999998654304;534;100 mA
28.6567409276487;0.200042724609375;0.00116302490234375;5.3399999865178;535;100 mA
28.6667409276234;0.20001220703125;0.00116363525390625;5.34999998649255;536;100 mA
28.6767409275982;0.199951171875;0.00117156982421875;5.3599999864673;537;100 mA
28.6867409275729;0.199981689453125;0.001175537109375;5.36999998644205;538;100 mA
28.6967409275477;0.199920654296875;0.00117584228515625;5.37999998641681;539;100 mA
28.7067409275224;0.199981689453125;0.00116790771484375;5.38999998639156;540;100 mA
28.7167409274972;0.199981689453125;0.00116241455078125;5.39999998636631;541;100 mA
28.726740927472;0.20001220703125;0.00116424560546875;5.40999998634106;542;100 mA
28.7367409274467;0.199981689453125;0.0011688232421875;5.41999998631582;543;100 mA
28.7467409274215;0.20001220703125;0.00116668701171875;5.42999998629057;544;100 mA
28.7567409273962;0.199951171875;0.00117095947265625;5.43999998626532;545;100 mA
28.766740927371;0.20001220703125;0.001160888671875;5.44999998624007;546;100 mA
28.7767409273457;0.20001220703125;0.00116180419921875;5.45999998621483;547;100 mA
28.7867409273205;0.199981689453125;0.0011492919921875;5.46999998618958;548;100 mA
28.7967409272952;0.20001220703125;0.00115020751953125;5.47999998616433;549;100 mA
28.80674092727;0.20001220703125;0.0011480712890625;5.48999998613908;550;100 mA
28.8167409272447;0.199951171875;0.00115234375;5.49999998611383;551;100 mA
28.8267409272195;0.199920654296875;0.001151123046875;5.50999998608859;552;100 mA
28.8367409271942;0.199981689453125;0.00116180419921875;5.51999998606334;553;100 mA
28.846740927169;0.20001220703125;0.00115478515625;5.52999998603809;554;100 mA
28.8567409271437;0.199951171875;0.0011578369140625;5.53999998601284;555;100 mA
28.8667409271185;0.199981689453125;0.00114593505859375;5.5499999859876;556;100 mA
28.8767409270932;0.20001220703125;0.00114410400390625;5.55999998596235;557;100 mA
28.886740927068;0.199920654296875;0.001146240234375;5.5699999859371;558;100 mA
28.8967409270427;0.199951171875;0.0011541748046875;5.57999998591185;559;100 mA
28.9067409270175;0.199981689453125;0.001148681640625;5.58999998588661;560;100 mA
28.9167409269922;0.199981689453125;0.00115386962890625;5.59999998586136;561;100 mA
28.926740926967;0.199981689453125;0.001151123046875;5.60999998583611;562;100 mA
28.9367409269418;0.199920654296875;0.00115264892578125;5.61999998581086;563;100 mA
28.9467409269165;0.20001220703125;0.0011419677734375;5.62999998578562;564;100 mA
28.9567409268913;0.199981689453125;0.001142578125;5.63999998576037;565;100 mA
28.966740926866;0.20001220703125;0.0011370849609375;5.64999998573512;566;100 mA
28.9767409268408;0.20001220703125;0.0011468505859375;5.65999998570987;567;100 mA
28.9867409268155;0.200042724609375;0.00114532470703125;5.66999998568463;568;100 mA
28.9967409267903;0.199981689453125;0.00115325927734375;5.67999998565938;569;100 mA
29.006740926765;0.20001220703125;0.001151123046875;5.68999998563413;570;100 mA
29.0167409267398;0.20001220703125;0.001148681640625;5.69999998560888;571;100 mA
29.0267409267145;0.199981689453125;0.001142578125;5.70999998558364;572;100 mA
29.0367409266893;0.20001220703125;0.00114044189453125;5.71999998555839;573;100 mA
29.046740926664;0.20001220703125;0.00114166259765625;5.72999998553314;574;100 mA
29.0567409266388;0.200042724609375;0.0011444091796875;5.73999998550789;575;100 mA
29.0667409266135;0.199981689453125;0.00114410400390625;5.74999998548265;576;100 mA
29.0767409265883;0.199981689453125;0.00115203857421875;5.7599999854574;577;100 mA
29.086740926563;0.20001220703125;0.001156005859375;5.76999998543215;578;100 mA
29.0967409265378;0.20001220703125;0.001158447265625;5.7799999854069;579;100 mA
29.1067409265125;0.20001220703125;0.00115020751953125;5.78999998538166;580;100 mA
29.1167409264873;0.20001220703125;0.001146240234375;5.79999998535641;581;100 mA
29.126740926462;0.199981689453125;0.00114898681640625;5.80999998533116;582;100 mA
29.1367409264368;0.199951171875;0.00115386962890625;5.81999998530591;583;100 mA
29.1467409264116;0.199981689453125;0.00115142822265625;5.82999998528066;584;100 mA
29.1567409263863;0.199951171875;0.00115478515625;5.83999998525542;585;100 mA
29.1667409263611;0.199951171875;0.00114654541015625;5.84999998523017;586;100 mA
29.1767409263358;0.20001220703125;0.0011505126953125;5.85999998520492;587;100 mA
29.1867409263106;0.20001220703125;0.0011407470703125;5.86999998517967;588;100 mA
29.1967409262853;0.199981689453125;0.0011444091796875;5.87999998515443;589;100 mA
29.2067409262601;0.20001220703125;0.00114715576171875;5.88999998512918;590;100 mA
29.2167409262348;0.199981689453125;0.001156005859375;5.89999998510393;591;100 mA
29.2267409262096;0.199951171875;0.00115814208984375;5.90999998507868;592;100 mA
29.2367409261843;0.199920654296875;0.0011712646484375;5.91999998505344;593;100 mA
29.2467409261591;0.200042724609375;0.00116729736328125;5.92999998502819;594;100 mA
29.2567409261338;0.20001220703125;0.001173095703125;5.93999998500294;595;100 mA
29.2667409261086;0.199951171875;0.00116058349609375;5.94999998497769;596;100 mA
29.2767409260833;0.199951171875;0.00115875244140625;5.95999998495245;597;100 mA
29.2867409260581;0.199951171875;0.00115875244140625;5.9699999849272;598;100 mA
29.2967409260328;0.199981689453125;0.001165771484375;5.97999998490195;599;100 mA
29.3067409260076;0.20001220703125;0.0011602783203125;5.9899999848767;600;100 mA
29.3167409259823;0.199920654296875;0.001168212890625;5.99999998485146;601;100 mA
29.3267409259571;0.200042724609375;0.00116943359375;6.00999998482621;602;100 mA
29.3367409259318;0.20001220703125;0.0011749267578125;6.01999998480096;603;100 mA
29.3467409259066;0.20001220703125;0.0011724853515625;6.02999998477571;604;100 mA
29.3567409258814;0.20001220703125;0.00117767333984375;6.03999998475047;605;100 mA
29.3667409258561;0.20001220703125;0.00117645263671875;6.04999998472522;606;100 mA
29.3767409258309;0.199981689453125;0.0011871337890625;6.05999998469997;607;100 mA
29.3867409258056;0.199981689453125;0.00118438720703125;6.06999998467472;608;100 mA
29.3967409257804;0.20001220703125;0.00118804931640625;6.07999998464948;609;100 mA
29.4067409257551;0.199951171875;0.00118499755859375;6.08999998462423;610;100 mA
29.4167409257299;0.20001220703125;0.0011773681640625;6.09999998459898;611;100 mA
29.4267409257046;0.199981689453125;0.0011700439453125;6.10999998457373;612;100 mA
29.4367409256794;0.199951171875;0.00116546630859375;6.11999998454849;613;100 mA
29.4467409256541;0.199981689453125;0.00116455078125;6.12999998452324;614;100 mA
29.4567409256289;0.199951171875;0.00116607666015625;6.13999998449799;615;100 mA
29.4667409256036;0.199981689453125;0.0011651611328125;6.14999998447274;616;100 mA
29.4767409255784;0.19989013671875;0.00117340087890625;6.1599999844475;617;100 mA
29.4867409255531;0.199981689453125;0.00117401123046875;6.16999998442225;618;100 mA
29.4967409255279;0.20001220703125;0.00117340087890625;6.179999984397;619;100 mA
29.5067409255026;0.199951171875;0.00116424560546875;6.18999998437175;620;100 mA
29.5167409254774;0.20001220703125;0.0011614990234375;6.1999999843465;621;100 mA
29.5267409254521;0.199981689453125;0.001163330078125;6.20999998432126;622;100 mA
29.5367409254269;0.199981689453125;0.00116943359375;6.21999998429601;623;100 mA
29.5467409254017;0.20001220703125;0.00116546630859375;6.22999998427076;624;100 mA
29.5567409253764;0.199981689453125;0.001173095703125;6.23999998424551;625;100 mA
29.5667409253512;0.20001220703125;0.00116485595703125;6.24999998422027;626;100 mA
29.5767409253259;0.199981689453125;0.00116790771484375;6.25999998419502;627;100 mA
29.5867409253007;0.20001220703125;0.00115570068359375;6.26999998416977;628;100 mA
29.5967409252754;0.199920654296875;0.0011553955078125;6.27999998414452;629;100 mA
29.6067409252502;0.199951171875;0.0011529541015625;6.28999998411928;630;100 mA
29.6167409252249;0.199981689453125;0.0011590576171875;6.29999998409403;631;100 mA
29.6267409251997;0.199981689453125;0.00115966796875;6.30999998406878;632;100 mA
29.6367409251744;0.199951171875;0.00117095947265625;6.31999998404353;633;100 mA
29.6467409251492;0.199981689453125;0.0011639404296875;6.32999998401829;634;100 mA
29.6567409251239;0.199951171875;0.00116943359375;6.33999998399304;635;100 mA
29.6667409250987;0.199981689453125;0.00115509033203125;6.34999998396779;636;100 mA
29.6767409250734;0.200042724609375;0.001156005859375;6.35999998394254;637;100 mA
29.6867409250482;0.20001220703125;0.0011553955078125;6.3699999839173;638;100 mA
29.6967409250229;0.199981689453125;0.00116302490234375;6.37999998389205;639;100 mA
29.7067409249977;0.199981689453125;0.0011590576171875;6.3899999838668;640;100 mA
29.7167409249724;0.199951171875;0.00116302490234375;6.39999998384155;641;100 mA
29.7267409249472;0.20001220703125;0.0011627197265625;6.40999998381631;642;100 mA
29.7367409249219;0.20001220703125;0.00116302490234375;6.41999998379106;643;100 mA
29.7467409248967;0.199981689453125;0.0011541748046875;6.42999998376581;644;100 mA
29.7567409248715;0.20001220703125;0.00115478515625;6.43999998374056;645;100 mA
29.7667409248462;0.20001220703125;0.00115234375;6.44999998371532;646;100 mA
29.776740924821;0.20001220703125;0.001162109375;6.45999998369007;647;100 mA
29.7867409247957;0.20013427734375;0.0011602783203125;6.46999998366482;648;100 mA
29.7967409247705;0.199951171875;0.00116302490234375;6.47999998363957;649;100 mA
29.8067409247452;0.200042724609375;0.00115936279296875;6.48999998361433;650;100 mA
29.81674092472;0.199951171875;0.00115447998046875;6.49999998358908;651;100 mA
29.8267409246947;0.20001220703125;0.00115142822265625;6.50999998356383;652;100 mA
29.8367409246695;0.20001220703125;0.00114990234375;6.51999998353858;653;100 mA
29.8467409246442;0.199951171875;0.00115478515625;6.52999998351333;654;100 mA
29.856740924619;0.20001220703125;0.00115753173828125;6.53999998348809;655;100 mA
29.8667409245937;0.199951171875;0.00115570068359375;6.54999998346284;656;100 mA
29.8767409245685;0.199981689453125;0.00115997314453125;6.55999998343759;657;100 mA
29.8867409245432;0.199981689453125;0.0011590576171875;6.56999998341234;658;100 mA
29.896740924518;0.199981689453125;0.0011566162109375;6.5799999833871;659;100 mA
29.9067409244927;0.199981689453125;0.00114471435546875;6.58999998336185;660;100 mA
29.9167409244675;0.20001220703125;0.00114227294921875;6.5999999833366;661;100 mA
29.9267409244422;0.199981689453125;0.001146240234375;6.60999998331135;662;100 mA
29.936740924417;0.199920654296875;0.001153564453125;6.61999998328611;663;100 mA
29.9467409243917;0.199981689453125;0.00114959716796875;6.62999998326086;664;100 mA
29.9567409243665;0.20001220703125;0.00115631103515625;6.63999998323561;665;100 mA
29.9667409243413;0.199951171875;0.001146240234375;6.64999998321036;666;100 mA
29.976740924316;0.20001220703125;0.0011492919921875;6.65999998318512;667;100 mA
29.9867409242908;0.199981689453125;0.0011358642578125;6.66999998315987;668;100 mA
29.9967409242655;0.2000732421875;0.00113861083984375;6.67999998313462;669;100 mA
30.0067409242403;0.199981689453125;0.0011395263671875;6.68999998310937;670;100 mA
30.016740924215;0.199951171875;0.00114593505859375;6.69999998308413;671;100 mA
30.0267409241898;0.199981689453125;0.00114776611328125;6.70999998305888;672;100 mA
30.0367409241645;0.200042724609375;0.00115966796875;6.71999998303363;673;100 mA
30.0467409241393;0.20001220703125;0.00115570068359375;6.72999998300838;674;100 mA
30.056740924114;0.20001220703125;0.0011627197265625;6.73999998298314;675;100 mA
30.0667409240888;0.199981689453125;0.00115264892578125;6.74999998295789;676;100 mA
30.0767409240635;0.200042724609375;0.0011578369140625;6.75999998293264;677;100 mA
30.0867409240383;0.199981689453125;0.00116485595703125;6.76999998290739;678;100 mA
30.096740924013;0.20001220703125;0.0011767578125;6.77999998288215;679;100 mA
30.1067409239878;0.199981689453125;0.00117645263671875;6.7899999828569;680;100 mA
30.1167409239625;0.200042724609375;0.00118255615234375;6.79999998283165;681;100 mA
30.1267409239373;0.20001220703125;0.0011834716796875;6.8099999828064;682;100 mA
30.136740923912;0.199981689453125;0.0011871337890625;6.81999998278116;683;100 mA
30.1467409238868;0.199981689453125;0.00118072509765625;6.82999998275591;684;100 mA
30.1567409238615;0.200042724609375;0.00118316650390625;6.83999998273066;685;100 mA
30.1667409238363;0.199951171875;0.00118133544921875;6.84999998270541;686;100 mA
30.1767409238111;0.199981689453125;0.00118988037109375;6.85999998268016;687;100 mA
30.1867409237858;0.199920654296875;0.00118896484375;6.86999998265492;688;100 mA
30.1967409237606;0.199981689453125;0.00119415283203125;6.87999998262967;689;100 mA
30.2067409237353;0.199951171875;0.0011920166015625;6.88999998260442;690;100 mA
30.2167409237101;0.200042724609375;0.0011865234375;6.89999998257917;691;100 mA
30.2267409236848;0.199981689453125;0.00118133544921875;6.90999998255393;692;100 mA
30.2367409236596;0.20001220703125;0.00117767333984375;6.91999998252868;693;100 mA
30.2467409236343;0.199981689453125;0.0011773681640625;6.92999998250343;694;100 mA
30.2567409236091;0.199981689453125;0.00117645263671875;6.93999998247818;695;100 mA
30.2667409235838;0.199981689453125;0.0011737060546875;6.94999998245294;696;100 mA
30.2767409235586;0.199981689453125;0.00117706298828125;6.95999998242769;697;100 mA
30.2867409235333;0.199981689453125;0.001177978515625;6.96999998240244;698;100 mA
30.2967409235081;0.20001220703125;0.00117523193359375;6.97999998237719;699;100 mA
30.3067409234828;0.199981689453125;0.001165771484375;6.98999998235195;700;100 mA
30.3167409234576;0.2000732421875;0.0011614990234375;6.9999999823267;701;100 mA
30.3267409234323;0.20001220703125;0.00116363525390625;7.00999998230145;702;100 mA
30.3367409234071;0.20001220703125;0.00116912841796875;7.0199999822762;703;100 mA
30.3467409233818;0.20001220703125;0.00116485595703125;7.02999998225096;704;100 mA
30.3567409233566;0.199981689453125;0.0011712646484375;7.03999998222571;705;100 mA
30.3667409233313;0.20001220703125;0.00116363525390625;7.04999998220046;706;100 mA
30.3767409233061;0.199981689453125;0.00116729736328125;7.05999998217521;707;100 mA
30.3867409232809;0.199981689453125;0.00115753173828125;7.06999998214997;708;100 mA
30.3967409232556;0.20001220703125;0.0011627197265625;7.07999998212472;709;100 mA
30.4067409232304;0.199981689453125;0.00116363525390625;7.08999998209947;710;100 mA
30.4167409232051;0.199981689453125;0.0011712646484375;7.09999998207422;711;100 mA
30.4267409231799;0.2000732421875;0.00117095947265625;7.10999998204898;712;100 mA
30.4367409231546;0.199981689453125;0.0011810302734375;7.11999998202373;713;100 mA
30.4467409231294;0.199981689453125;0.0011737060546875;7.12999998199848;714;100 mA
30.4567409231041;0.20001220703125;0.00117950439453125;7.13999998197323;715;100 mA
30.4667409230789;0.199981689453125;0.0011700439453125;7.14999998194799;716;100 mA
30.4767409230536;0.200042724609375;0.00117340087890625;7.15999998192274;717;100 mA
30.4867409230284;0.20001220703125;0.00117523193359375;7.16999998189749;718;100 mA
30.4967409230031;0.20001220703125;0.0011846923828125;7.17999998187224;719;100 mA
30.5067409229779;0.199981689453125;0.00118194580078125;7.189999981847;720;100 mA
30.5167409229526;0.20001220703125;0.00118865966796875;7.19999998182175;721;100 mA
30.5267409229274;0.199951171875;0.0011871337890625;7.2099999817965;722;100 mA
30.5367409229021;0.199981689453125;0.00118804931640625;7.21999998177125;723;100 mA
30.5467409228769;0.199951171875;0.00118194580078125;7.229999981746;724;100 mA
30.5567409228516;0.199981689453125;0.0011846923828125;7.23999998172076;725;100 mA
30.5667409228264;0.199920654296875;0.0011822509765625;7.24999998169551;726;100 mA
30.5767409228012;0.199951171875;0.0011907958984375;7.25999998167026;727;100 mA
30.5867409227759;0.200042724609375;0.00118804931640625;7.26999998164501;728;100 mA
30.5967409227507;0.20001220703125;0.00119171142578125;7.27999998161977;729;100 mA
30.6067409227254;0.199981689453125;0.00118988037109375;7.28999998159452;730;100 mA
30.6167409227002;0.199981689453125;0.0011859130859375;7.29999998156927;731;100 mA
30.6267409226749;0.20001220703125;0.00118133544921875;7.30999998154402;732;100 mA
30.6367409226497;0.200042724609375;0.001177978515625;7.31999998151878;733;100 mA
30.6467409226244;0.199951171875;0.0011798095703125;7.32999998149353;734;100 mA
30.6567409225992;0.200042724609375;0.00118011474609375;7.33999998146828;735;100 mA
30.6667409225739;0.199981689453125;0.00117706298828125;7.34999998144303;736;100 mA
30.6767409225487;0.199981689453125;0.0011822509765625;7.35999998141779;737;100 mA
30.6867409225234;0.199951171875;0.00118011474609375;7.36999998139254;738;100 mA
30.6967409224982;0.199981689453125;0.001177978515625;7.37999998136729;739;100 mA
30.7067409224729;0.199981689453125;0.00116851806640625;7.38999998134204;740;100 mA
30.7167409224477;0.199981689453125;0.00116943359375;7.3999999813168;741;100 mA
30.7267409224224;0.199951171875;0.00117279052734375;7.40999998129155;742;100 mA
30.7367409223972;0.199951171875;0.00117919921875;7.4199999812663;743;100 mA
30.7467409223719;0.199981689453125;0.0011761474609375;7.42999998124105;744;100 mA
30.7567409223467;0.199920654296875;0.00118255615234375;7.43999998121581;745;100 mA
30.7667409223214;0.199981689453125;0.00117340087890625;7.44999998119056;746;100 mA
30.7767409222962;0.200042724609375;0.001175537109375;7.45999998116531;747;100 mA
30.786740922271;0.199951171875;0.00116058349609375;7.46999998114006;748;100 mA
30.7967409222457;0.20001220703125;0.00116180419921875;7.47999998111482;749;100 mA
30.8067409222205;0.199951171875;0.001162109375;7.48999998108957;750;100 mA
30.8167409221952;0.199951171875;0.0011688232421875;7.49999998106432;751;100 mA
30.82674092217;0.200042724609375;0.00116851806640625;7.50999998103907;752;100 mA
30.8367409221447;0.199951171875;0.0011767578125;7.51999998101383;753;100 mA
30.8467409221195;0.20001220703125;0.001168212890625;7.52999998098858;754;100 mA
30.8567409220942;0.200042724609375;0.001171875;7.53999998096333;755;100 mA
30.866740922069;0.20001220703125;0.0011578369140625;7.54999998093808;756;100 mA
30.8767409220437;0.2000732421875;0.00115997314453125;7.55999998091283;757;100 mA
30.8867409220185;0.199981689453125;0.00116302490234375;7.56999998088759;758;100 mA
30.8967409219932;0.199951171875;0.00117095947265625;7.57999998086234;759;100 mA
30.906740921968;0.199951171875;0.0011700439453125;7.58999998083709;760;100 mA
30.9167409219427;0.2000732421875;0.00117340087890625;7.59999998081184;761;100 mA
30.9267409219175;0.199951171875;0.001173095703125;7.6099999807866;762;100 mA
30.9367409218922;0.199981689453125;0.00117340087890625;7.61999998076135;763;100 mA
30.946740921867;0.20001220703125;0.00116363525390625;7.6299999807361;764;100 mA
30.9567409218417;0.199981689453125;0.00116485595703125;7.63999998071085;765;100 mA
30.9667409218165;0.199981689453125;0.0011627197265625;7.64999998068561;766;100 mA
30.9767409217912;0.200042724609375;0.00117218017578125;7.65999998066036;767;100 mA
30.986740921766;0.199981689453125;0.001173095703125;7.66999998063511;768;100 mA
30.9967409217408;0.200042724609375;0.00117889404296875;7.67999998060986;769;100 mA
31.0067409217155;0.20001220703125;0.00117828369140625;7.68999998058462;770;100 mA
31.0167409216903;0.199981689453125;0.0011767578125;7.69999998055937;771;100 mA
31.026740921665;0.199951171875;0.00116973876953125;7.70999998053412;772;100 mA
31.0367409216398;0.199981689453125;0.00116973876953125;7.71999998050887;773;100 mA
31.0467409216145;0.20001220703125;0.00117095947265625;7.72999998048363;774;100 mA
31.0567409215893;0.200042724609375;0.00117401123046875;7.73999998045838;775;100 mA
31.066740921564;0.199981689453125;0.00117462158203125;7.74999998043313;776;100 mA
31.0767409215388;0.200042724609375;0.0011834716796875;7.75999998040788;777;100 mA
31.0867409215135;0.199981689453125;0.00118377685546875;7.76999998038264;778;100 mA
31.0967409214883;0.20001220703125;0.001182861328125;7.77999998035739;779;100 mA
31.106740921463;0.200042724609375;0.0011712646484375;7.78999998033214;780;100 mA
31.1167409214378;0.199981689453125;0.00117156982421875;7.79999998030689;781;100 mA
31.1267409214125;0.199981689453125;0.0011737060546875;7.80999998028165;782;100 mA
31.1367409213873;0.199981689453125;0.00117919921875;7.8199999802564;783;100 mA
31.146740921362;0.20001220703125;0.00117767333984375;7.82999998023115;784;100 mA
31.1567409213368;0.20001220703125;0.00118194580078125;7.8399999802059;785;100 mA
31.1667409213115;0.199981689453125;0.00117218017578125;7.84999998018066;786;100 mA
31.1767409212863;0.199981689453125;0.00117462158203125;7.85999998015541;787;100 mA
31.186740921261;0.199951171875;0.00115814208984375;7.86999998013016;788;100 mA
31.1967409212358;0.199981689453125;0.00115875244140625;7.87999998010491;789;100 mA
31.2067409212106;0.20001220703125;0.00115692138671875;7.88999998007966;790;100 mA
31.2167409211853;0.199951171875;0.00116180419921875;7.89999998005442;791;100 mA
31.2267409211601;0.20001220703125;0.001160888671875;7.90999998002917;792;100 mA
31.2367409211348;0.20001220703125;0.001170654296875;7.91999998000392;793;100 mA
31.2467409211096;0.200042724609375;0.0011663818359375;7.92999997997867;794;100 mA
31.2567409210843;0.20001220703125;0.00117095947265625;7.93999997995343;795;100 mA
31.2667409210591;0.20001220703125;0.00115631103515625;7.94999997992818;796;100 mA
31.2767409210338;0.199981689453125;0.00115875244140625;7.95999997990293;797;100 mA
31.2867409210086;0.199981689453125;0.00115814208984375;7.96999997987768;798;100 mA
31.2967409209833;0.199981689453125;0.0011663818359375;7.97999997985244;799;100 mA
31.3067409209581;0.20001220703125;0.00116455078125;7.98999997982719;800;100 mA
31.3167409209328;0.199981689453125;0.00116943359375;7.99999997980194;801;100 mA
31.3267409209076;0.20001220703125;0.001171875;8.00999997977669;802;100 mA
31.3367409208823;0.199920654296875;0.00117279052734375;8.01999997975145;803;100 mA
31.3467409208571;0.199981689453125;0.001165771484375;8.0299999797262;804;100 mA
31.3567409208318;0.20001220703125;0.00116424560546875;8.03999997970095;805;100 mA
31.3667409208066;0.199951171875;0.001160888671875;8.0499999796757;806;100 mA
31.3767409207813;0.199951171875;0.00116668701171875;8.05999997965046;807;100 mA
31.3867409207561;0.199981689453125;0.00116607666015625;8.06999997962521;808;100 mA
31.3967409207308;0.199981689453125;0.00116912841796875;8.07999997959996;809;100 mA
31.4067409207056;0.199951171875;0.00116729736328125;8.08999997957471;810;100 mA
31.4167409206804;0.199981689453125;0.0011639404296875;8.09999997954947;811;100 mA
31.4267409206551;0.200042724609375;0.001158447265625;8.10999997952422;812;100 mA
31.4367409206299;0.19989013671875;0.00115814208984375;8.11999997949897;813;100 mA
31.4467409206046;0.199981689453125;0.00115936279296875;8.12999997947372;814;100 mA
31.4567409205794;0.199981689453125;0.00116058349609375;8.13999997944848;815;100 mA
31.4667409205541;0.2000732421875;0.00115814208984375;8.14999997942323;816;100 mA
31.4767409205289;0.200042724609375;0.00116241455078125;8.15999997939798;817;100 mA
31.4867409205036;0.199920654296875;0.00115936279296875;8.16999997937273;818;100 mA
31.4967409204784;0.20001220703125;0.00115814208984375;8.17999997934749;819;100 mA
31.5067409204531;0.20001220703125;0.0011468505859375;8.18999997932224;820;100 mA
31.5167409204279;0.199951171875;0.00114654541015625;8.19999997929699;821;100 mA
31.5267409204026;0.199951171875;0.00114898681640625;8.20999997927174;822;100 mA
31.5367409203774;0.199981689453125;0.001156005859375;8.2199999792465;823;100 mA
31.5467409203521;0.199981689453125;0.00115264892578125;8.22999997922125;824;100 mA
31.5567409203269;0.20001220703125;0.00115966796875;8.239999979196;825;100 mA
31.5667409203016;0.20001220703125;0.0011480712890625;8.24999997917075;826;100 mA
31.5767409202764;0.199951171875;0.00115203857421875;8.2599999791455;827;100 mA
31.5867409202511;0.199951171875;0.0011376953125;8.26999997912026;828;100 mA
31.5967409202259;0.199951171875;0.001141357421875;8.27999997909501;829;100 mA
31.6067409202007;0.199981689453125;0.001138916015625;8.28999997906976;830;100 mA
31.6167409201754;0.199981689453125;0.00114410400390625;8.29999997904451;831;100 mA
31.6267409201502;0.20001220703125;0.0011419677734375;8.30999997901927;832;100 mA
31.6367409201249;0.199981689453125;0.0011517333984375;8.31999997899402;833;100 mA
31.6467409200997;0.199951171875;0.00114715576171875;8.32999997896877;834;100 mA
31.6567409200744;0.199951171875;0.001151123046875;8.33999997894352;835;100 mA
31.6667409200492;0.199951171875;0.00113922119140625;8.34999997891828;836;100 mA
31.6767409200239;0.20001220703125;0.00114410400390625;8.35999997889303;837;100 mA
31.6867409199987;0.20001220703125;0.001143798828125;8.36999997886778;838;100 mA
31.6967409199734;0.20001220703125;0.0011529541015625;8.37999997884253;839;100 mA
31.7067409199482;0.199981689453125;0.001151123046875;8.38999997881729;840;100 mA
31.7167409199229;0.200042724609375;0.0011553955078125;8.39999997879204;841;100 mA
31.7267409198977;0.199951171875;0.0011572265625;8.40999997876679;842;100 mA
31.7367409198724;0.199981689453125;0.0011590576171875;8.41999997874154;843;100 mA
31.7467409198472;0.199981689453125;0.00114990234375;8.4299999787163;844;100 mA
31.7567409198219;0.199951171875;0.00114990234375;8.43999997869105;845;100 mA
31.7667409197967;0.199951171875;0.00114776611328125;8.4499999786658;846;100 mA
31.7767409197714;0.199981689453125;0.001153564453125;8.45999997864055;847;100 mA
31.7867409197462;0.199981689453125;0.0011529541015625;8.46999997861531;848;100 mA
31.7967409197209;0.199951171875;0.0011578369140625;8.47999997859006;849;100 mA
31.8067409196957;0.199951171875;0.0011566162109375;8.48999997856481;850;100 mA
31.8167409196705;0.20001220703125;0.00115234375;8.49999997853956;851;100 mA
31.8267409196452;0.20001220703125;0.00114715576171875;8.50999997851432;852;100 mA
31.83674091962;0.199951171875;0.00114532470703125;8.51999997848907;853;100 mA
31.8467409195947;0.20001220703125;0.00114471435546875;8.52999997846382;854;100 mA
31.8567409195695;0.199981689453125;0.001146240234375;8.53999997843857;855;100 mA
31.8667409195442;0.199951171875;0.0011431884765625;8.54999997841333;856;100 mA
31.876740919519;0.200042724609375;0.00115081787109375;8.55999997838808;857;100 mA
31.8867409194937;0.20001220703125;0.00114776611328125;8.56999997836283;858;100 mA
31.8967409194685;0.199951171875;0.00114776611328125;8.57999997833758;859;100 mA
31.9067409194432;0.2000732421875;0.00113677978515625;8.58999997831233;860;100 mA
31.916740919418;0.199981689453125;0.00113800048828125;8.59999997828709;861;100 mA
31.9267409193927;0.199951171875;0.00114105224609375;8.60999997826184;862;100 mA
31.9367409193675;0.199981689453125;0.00114959716796875;8.61999997823659;863;100 mA
31.9467409193422;0.200042724609375;0.0011468505859375;8.62999997821134;864;100 mA
31.956740919317;0.20001220703125;0.0011566162109375;8.6399999781861;865;100 mA
31.9667409192917;0.20001220703125;0.00114990234375;8.64999997816085;866;100 mA
31.9767409192665;0.200042724609375;0.00115692138671875;8.6599999781356;867;100 mA
31.9867409192412;0.20001220703125;0.0011444091796875;8.66999997811035;868;100 mA
31.996740919216;0.199951171875;0.00114990234375;8.67999997808511;869;100 mA
32.0067409191907;0.199981689453125;0.00114990234375;8.68999997805986;870;100 mA
32.0167409191655;0.199981689453125;0.00115753173828125;8.69999997803461;871;100 mA
32.0267409191403;0.200042724609375;0.001156005859375;8.70999997800936;872;100 mA
32.036740919115;0.20001220703125;0.00116607666015625;8.71999997798412;873;100 mA
32.0467409190898;0.199981689453125;0.00115936279296875;8.72999997795887;874;100 mA
32.0567409190645;0.20001220703125;0.0011627197265625;8.73999997793362;875;100 mA
32.0667409190393;0.199981689453125;0.0011492919921875;8.74999997790837;876;100 mA
32.076740919014;0.20001220703125;0.001151123046875;8.75999997788313;877;100 mA
32.0867409189888;0.20001220703125;0.001151123046875;8.76999997785788;878;100 mA
32.0967409189635;0.199951171875;0.001158447265625;8.77999997783263;879;100 mA
32.1067409189383;0.199981689453125;0.00115509033203125;8.78999997780738;880;100 mA
32.116740918913;0.200042724609375;0.001158447265625;8.79999997778214;881;100 mA
32.1267409188878;0.20001220703125;0.00116058349609375;8.80999997775689;882;100 mA
32.1367409188625;0.199981689453125;0.00115997314453125;8.81999997773164;883;100 mA
32.1467409188373;0.20001220703125;0.00115203857421875;8.82999997770639;884;100 mA
32.156740918812;0.20001220703125;0.00115142822265625;8.83999997768115;885;100 mA
32.1667409187868;0.20001220703125;0.00115020751953125;8.8499999776559;886;100 mA
32.1767409187615;0.199981689453125;0.00115692138671875;8.85999997763065;887;100 mA
32.1867409187363;0.20001220703125;0.00115875244140625;8.8699999776054;888;100 mA
32.196740918711;0.199981689453125;0.001162109375;8.87999997758016;889;100 mA
32.2067409186858;0.199951171875;0.0011614990234375;8.88999997755491;890;100 mA
32.2167409186605;0.199951171875;0.00115631103515625;8.89999997752966;891;100 mA
32.2267409186353;0.199981689453125;0.00114959716796875;8.90999997750441;892;100 mA
32.2367409186101;0.199951171875;0.0011474609375;8.91999997747916;893;100 mA
32.2467409185848;0.199981689453125;0.0011480712890625;8.92999997745392;894;100 mA
32.2567409185596;0.199981689453125;0.00114990234375;8.93999997742867;895;100 mA
32.2667409185343;0.199981689453125;0.0011474609375;8.94999997740342;896;100 mA
32.2767409185091;0.199981689453125;0.001156005859375;8.95999997737817;897;100 mA
32.2867409184838;0.20001220703125;0.00115203857421875;8.96999997735293;898;100 mA
32.2967409184586;0.20001220703125;0.00115478515625;8.97999997732768;899;100 mA
32.3067409184333;0.20001220703125;0.00114593505859375;8.98999997730243;900;100 mA
32.3167409184081;0.199981689453125;0.001146240234375;8.99999997727718;901;100 mA
32.3267409183828;0.199920654296875;0.0011505126953125;9.00999997725194;902;100 mA
32.3367409183576;0.199951171875;0.00115936279296875;9.01999997722669;903;100 mA
32.3467409183323;0.199981689453125;0.001153564453125;9.02999997720144;904;100 mA
32.3567409183071;0.199981689453125;0.0011602783203125;9.03999997717619;905;100 mA
32.3667409182818;0.199981689453125;0.00115142822265625;9.04999997715095;906;100 mA
32.3767409182566;0.200042724609375;0.00115478515625;9.0599999771257;907;100 mA
32.3867409182313;0.20001220703125;0.0011431884765625;9.06999997710045;908;100 mA
32.3967409182061;0.199951171875;0.00114654541015625;9.0799999770752;909;100 mA
32.4067409181808;0.199951171875;0.0011468505859375;9.08999997704996;910;100 mA
32.4167409181556;0.199951171875;0.0011566162109375;9.09999997702471;911;100 mA
32.4267409181303;0.200042724609375;0.00115631103515625;9.10999997699946;912;100 mA
32.4367409181051;0.200042724609375;0.0011639404296875;9.11999997697421;913;100 mA
32.4467409180799;0.199951171875;0.00115875244140625;9.12999997694897;914;100 mA
32.4567409180546;0.199951171875;0.00116180419921875;9.13999997692372;915;100 mA
32.4667409180294;0.20001220703125;0.00114776611328125;9.14999997689847;916;100 mA
32.4767409180041;0.199951171875;0.00115081787109375;9.15999997687322;917;100 mA
32.4867409179789;0.199981689453125;0.00115020751953125;9.16999997684798;918;100 mA
32.4967409179536;0.199920654296875;0.0011578369140625;9.17999997682273;919;100 mA
32.5067409179284;0.199981689453125;0.00115386962890625;9.18999997679748;920;100 mA
32.5167409179031;0.200042724609375;0.00115631103515625;9.19999997677223;921;100 mA
32.5267409178779;0.199951171875;0.00115875244140625;9.20999997674699;922;100 mA
32.5367409178526;0.199951171875;0.001158447265625;9.21999997672174;923;100 mA
32.5467409178274;0.20001220703125;0.0011505126953125;9.22999997669649;924;100 mA
32.5567409178021;0.20001220703125;0.00115020751953125;9.23999997667124;925;100 mA
32.5667409177769;0.199920654296875;0.00115081787109375;9.249999976646;926;100 mA
32.5767409177516;0.199981689453125;0.0011590576171875;9.25999997662075;927;100 mA
32.5867409177264;0.20001220703125;0.0011602783203125;9.2699999765955;928;100 mA
32.5967409177011;0.20001220703125;0.00116363525390625;9.27999997657025;929;100 mA
32.6067409176759;0.199981689453125;0.0011590576171875;9.289999976545;930;100 mA
32.6167409176506;0.199951171875;0.0011529541015625;9.29999997651976;931;100 mA
32.6267409176254;0.199920654296875;0.0011431884765625;9.30999997649451;932;100 mA
32.6367409176002;0.199981689453125;0.00114166259765625;9.31999997646926;933;100 mA
32.6467409175749;0.199981689453125;0.001141357421875;9.32999997644401;934;100 mA
32.6567409175497;0.199951171875;0.0011456298828125;9.33999997641877;935;100 mA
32.6667409175244;0.199951171875;0.001143798828125;9.34999997639352;936;100 mA
32.6767409174992;0.199981689453125;0.00115264892578125;9.35999997636827;937;100 mA
32.6867409174739;0.199951171875;0.00114654541015625;9.36999997634302;938;100 mA
32.6967409174487;0.199981689453125;0.00114593505859375;9.37999997631778;939;100 mA
32.7067409174234;0.20001220703125;0.0011322021484375;9.38999997629253;940;100 mA
32.7167409173982;0.199981689453125;0.00113311767578125;9.39999997626728;941;100 mA
32.7267409173729;0.199981689453125;0.00113800048828125;9.40999997624203;942;100 mA
32.7367409173477;0.199981689453125;0.001148681640625;9.41999997621679;943;100 mA
32.7467409173224;0.20001220703125;0.00114776611328125;9.42999997619154;944;100 mA
32.7567409172972;0.200042724609375;0.00115875244140625;9.43999997616629;945;100 mA
32.7667409172719;0.199951171875;0.001153564453125;9.44999997614104;946;100 mA
32.7767409172467;0.2000732421875;0.0011614990234375;9.4599999761158;947;100 mA
32.7867409172214;0.199981689453125;0.00114990234375;9.46999997609055;948;100 mA
32.7967409171962;0.20001220703125;0.00115325927734375;9.4799999760653;949;100 mA
32.8067409171709;0.199951171875;0.00115203857421875;9.48999997604005;950;100 mA
32.8167409171457;0.200042724609375;0.0011602783203125;9.49999997601481;951;100 mA
32.8267409171204;0.20001220703125;0.001162109375;9.50999997598956;952;100 mA
32.8367409170952;0.20001220703125;0.00117034912109375;9.51999997596431;953;100 mA
32.84674091707;0.199981689453125;0.001168212890625;9.52999997593906;954;100 mA
32.8567409170447;0.199981689453125;0.00116943359375;9.53999997591382;955;100 mA
32.8667409170195;0.199981689453125;0.00115814208984375;9.54999997588857;956;100 mA
32.8767409169942;0.199981689453125;0.00115997314453125;9.55999997586332;957;100 mA
32.886740916969;0.20001220703125;0.00115966796875;9.56999997583807;958;100 mA
32.8967409169437;0.20001220703125;0.00116607666015625;9.57999997581283;959;100 mA
32.9067409169185;0.199981689453125;0.0011627197265625;9.58999997578758;960;100 mA
32.9167409168932;0.20001220703125;0.0011663818359375;9.59999997576233;961;100 mA
32.926740916868;0.199981689453125;0.00116851806640625;9.60999997573708;962;100 mA
32.9367409168427;0.199951171875;0.0011676025390625;9.61999997571183;963;100 mA
32.9467409168175;0.199981689453125;0.00115814208984375;9.62999997568659;964;100 mA
32.9567409167922;0.199951171875;0.00115478515625;9.63999997566134;965;100 mA
32.966740916767;0.199951171875;0.00115234375;9.64999997563609;966;100 mA
32.9767409167417;0.199951171875;0.001158447265625;9.65999997561084;967;100 mA
32.9867409167165;0.20001220703125;0.00115631103515625;9.6699999755856;968;100 mA
32.9967409166912;0.20001220703125;0.001158447265625;9.67999997556035;969;100 mA
33.006740916666;0.20001220703125;0.00115631103515625;9.6899999755351;970;100 mA
33.0167409166407;0.199951171875;0.00115203857421875;9.69999997550985;971;100 mA
33.0267409166155;0.200042724609375;0.00114532470703125;9.70999997548461;972;100 mA
33.0367409165902;0.199920654296875;0.0011468505859375;9.71999997545936;973;100 mA
33.046740916565;0.199920654296875;0.00114715576171875;9.72999997543411;974;100 mA
33.0567409165398;0.199981689453125;0.0011529541015625;9.73999997540886;975;100 mA
33.0667409165145;0.199981689453125;0.0011529541015625;9.74999997538362;976;100 mA
33.0767409164893;0.199981689453125;0.001163330078125;9.75999997535837;977;100 mA
33.086740916464;0.20001220703125;0.00115814208984375;9.76999997533312;978;100 mA
33.0967409164388;0.20001220703125;0.0011602783203125;9.77999997530787;979;100 mA
33.1067409164135;0.199951171875;0.00114715576171875;9.78999997528263;980;100 mA
33.1167409163883;0.199981689453125;0.00114654541015625;9.79999997525738;981;100 mA
33.126740916363;0.20001220703125;0.00114898681640625;9.80999997523213;982;100 mA
33.1367409163378;0.20001220703125;0.0011572265625;9.81999997520688;983;100 mA
33.1467409163125;0.199951171875;0.00115203857421875;9.82999997518164;984;100 mA
33.1567409162873;0.199981689453125;0.00115966796875;9.83999997515639;985;100 mA
33.166740916262;0.20001220703125;0.001151123046875;9.84999997513114;986;100 mA
33.1767409162368;0.199951171875;0.00115478515625;9.85999997510589;987;100 mA
33.1867409162115;0.199981689453125;0.00113983154296875;9.86999997508065;988;100 mA
33.1967409161863;0.20001220703125;0.001143798828125;9.8799999750554;989;100 mA
33.206740916161;0.199951171875;0.00114349365234375;9.88999997503015;990;100 mA
33.2167409161358;0.199951171875;0.0011529541015625;9.8999999750049;991;100 mA
33.2267409161105;0.199981689453125;0.00115570068359375;9.90999997497966;992;100 mA
33.2367409160853;0.199981689453125;0.0011651611328125;9.91999997495441;993;100 mA
33.24674091606;0.20001220703125;0.0011614990234375;9.92999997492916;994;100 mA
33.2567409160348;0.199951171875;0.001162109375;9.93999997490391;995;100 mA
33.2667409160096;0.199981689453125;0.00114990234375;9.94999997487866;996;100 mA
33.2767409159843;0.19989013671875;0.0011517333984375;9.95999997485342;997;100 mA
33.2867409159591;0.199981689453125;0.00115020751953125;9.96999997482817;998;100 mA
33.2967409159338;0.20001220703125;0.00115447998046875;9.97999997480292;999;100 mA
33.3067409159086;0.199981689453125;0.0011529541015625;9.98999997477767;1000;100 mA
