Time (s);WE(1).Potential (V);WE(1).Current (A);Corrected time (s);Index;Current range
33.7820289147086;-0.69976806640625;-0.327056884765625;0;1;100 mA
33.7920289146833;-0.699462890625;-0.244049072265625;0.00999999997475243;2;100 mA
33.8020289146581;-0.69952392578125;-0.202911376953125;0.0199999999495049;3;100 mA
33.8120289146328;-0.699493408203125;-0.1771240234375;0.0299999999242573;4;100 mA
33.8220289146076;-0.699554443359375;-0.15850830078125;0.0399999998990097;5;100 mA
33.8320289145823;-0.6995849609375;-0.145538330078125;0.0499999998737621;6;100 mA
33.8420289145571;-0.699615478515625;-0.135345458984375;0.0599999998485146;7;100 mA
33.8520289145318;-0.69964599609375;-0.1273193359375;0.069999999823267;8;100 mA
33.8620289145066;-0.69964599609375;-0.12078857421875;0.0799999997980194;9;100 mA
33.8720289144813;-0.699615478515625;-0.115936279296875;0.0899999997727718;10;100 mA
33.8820289144561;-0.69964599609375;-0.1109619140625;0.0999999997475243;11;100 mA
33.8920289144309;-0.699615478515625;-0.10687255859375;0.109999999722277;12;100 mA
33.9020289144056;-0.699676513671875;-0.10296630859375;0.119999999697029;13;100 mA
33.9120289143804;-0.69970703125;-0.100128173828125;0.129999999671782;14;100 mA
33.9220289143551;-0.699615478515625;-0.09783935546875;0.139999999646534;15;100 mA
33.9320289143299;-0.69964599609375;-0.09576416015625;0.149999999621286;16;100 mA
33.9420289143046;-0.699676513671875;-0.0938720703125;0.159999999596039;17;100 mA
33.9520289142794;-0.699615478515625;-0.092529296875;0.169999999570791;18;100 mA
33.9620289142541;-0.69964599609375;-0.090728759765625;0.179999999545544;19;100 mA
33.9720289142289;-0.699615478515625;-0.089324951171875;0.189999999520296;20;100 mA
33.9820289142036;-0.69970703125;-0.087677001953125;0.199999999495049;21;100 mA
33.9920289141784;-0.699615478515625;-0.086700439453125;0.209999999469801;22;100 mA
34.0020289141531;-0.699676513671875;-0.086029052734375;0.219999999444553;23;100 mA
34.0120289141279;-0.699615478515625;-0.0853271484375;0.229999999419306;24;100 mA
34.0220289141026;-0.699615478515625;-0.084991455078125;0.239999999394058;25;100 mA
34.0320289140774;-0.699737548828125;-0.08447265625;0.249999999368811;26;100 mA
34.0420289140521;-0.69970703125;-0.08343505859375;0.259999999343563;27;100 mA
34.0520289140269;-0.69964599609375;-0.08245849609375;0.269999999318316;28;100 mA
34.0620289140016;-0.69976806640625;-0.081512451171875;0.279999999293068;29;100 mA
34.0720289139764;-0.699676513671875;-0.080841064453125;0.28999999926782;30;100 mA
34.0820289139511;-0.69970703125;-0.080474853515625;0.299999999242573;31;100 mA
34.0920289139259;-0.69970703125;-0.0797119140625;0.309999999217325;32;100 mA
34.1020289139007;-0.699676513671875;-0.079376220703125;0.319999999192078;33;100 mA
34.1120289138754;-0.699676513671875;-0.079498291015625;0.32999999916683;34;100 mA
34.1220289138502;-0.69970703125;-0.079010009765625;0.339999999141583;35;100 mA
34.1320289138249;-0.699676513671875;-0.07861328125;0.349999999116335;36;100 mA
34.1420289137997;-0.699737548828125;-0.077728271484375;0.359999999091087;37;100 mA
34.1520289137744;-0.69964599609375;-0.07757568359375;0.36999999906584;38;100 mA
34.1620289137492;-0.699737548828125;-0.0775146484375;0.379999999040592;39;100 mA
34.1720289137239;-0.699737548828125;-0.07745361328125;0.389999999015345;40;100 mA
34.1820289136987;-0.699737548828125;-0.0771484375;0.399999998990097;41;100 mA
34.1920289136734;-0.69970703125;-0.077362060546875;0.40999999896485;42;100 mA
34.2020289136482;-0.699737548828125;-0.076629638671875;0.419999998939602;43;100 mA
34.2120289136229;-0.69970703125;-0.076568603515625;0.429999998914354;44;100 mA
34.2220289135977;-0.699798583984375;-0.075653076171875;0.439999998889107;45;100 mA
34.2320289135724;-0.69970703125;-0.0758056640625;0.449999998863859;46;100 mA
34.2420289135472;-0.69970703125;-0.075592041015625;0.459999998838612;47;100 mA
34.2520289135219;-0.69970703125;-0.07568359375;0.469999998813364;48;100 mA
34.2620289134967;-0.699737548828125;-0.07562255859375;0.479999998788116;49;100 mA
34.2720289134714;-0.699676513671875;-0.076202392578125;0.489999998762869;50;100 mA
34.2820289134462;-0.69970703125;-0.075531005859375;0.499999998737621;51;100 mA
34.2920289134209;-0.699676513671875;-0.07537841796875;0.509999998712374;52;100 mA
34.3020289133957;-0.699737548828125;-0.07476806640625;0.519999998687126;53;100 mA
34.3120289133705;-0.699737548828125;-0.074737548828125;0.529999998661879;54;100 mA
34.3220289133452;-0.699676513671875;-0.074951171875;0.539999998636631;55;100 mA
34.33202891332;-0.69964599609375;-0.0748291015625;0.549999998611383;56;100 mA
34.3420289132947;-0.69970703125;-0.074859619140625;0.559999998586136;57;100 mA
34.3520289132695;-0.69970703125;-0.0750732421875;0.569999998560888;58;100 mA
34.3620289132442;-0.699737548828125;-0.07489013671875;0.579999998535641;59;100 mA
34.372028913219;-0.699676513671875;-0.07489013671875;0.589999998510393;60;100 mA
34.3820289131937;-0.69970703125;-0.07452392578125;0.599999998485146;61;100 mA
34.3920289131685;-0.699676513671875;-0.074554443359375;0.609999998459898;62;100 mA
34.4020289131432;-0.69970703125;-0.07476806640625;0.61999999843465;63;100 mA
34.412028913118;-0.69976806640625;-0.07470703125;0.629999998409403;64;100 mA
34.4220289130927;-0.69964599609375;-0.07489013671875;0.639999998384155;65;100 mA
34.4320289130675;-0.69970703125;-0.074951171875;0.649999998358908;66;100 mA
34.4420289130422;-0.69970703125;-0.074462890625;0.65999999833366;67;100 mA
34.452028913017;-0.69970703125;-0.07415771484375;0.669999998308413;68;100 mA
34.4620289129917;-0.699737548828125;-0.073822021484375;0.679999998283165;69;100 mA
34.4720289129665;-0.699737548828125;-0.073760986328125;0.689999998257917;70;100 mA
34.4820289129412;-0.699676513671875;-0.07391357421875;0.69999999823267;71;100 mA
34.492028912916;-0.699676513671875;-0.073516845703125;0.709999998207422;72;100 mA
34.5020289128908;-0.69970703125;-0.073516845703125;0.719999998182175;73;100 mA
34.5120289128655;-0.699737548828125;-0.073822021484375;0.729999998156927;74;100 mA
34.5220289128403;-0.699676513671875;-0.073394775390625;0.73999999813168;75;100 mA
34.532028912815;-0.69976806640625;-0.073272705078125;0.749999998106432;76;100 mA
34.5420289127898;-0.699676513671875;-0.0726318359375;0.759999998081184;77;100 mA
34.5520289127645;-0.699737548828125;-0.072662353515625;0.769999998055937;78;100 mA
34.5620289127393;-0.69970703125;-0.07275390625;0.779999998030689;79;100 mA
34.572028912714;-0.699676513671875;-0.0728759765625;0.789999998005442;80;100 mA
34.5820289126888;-0.69970703125;-0.0726318359375;0.799999997980194;81;100 mA
34.5920289126635;-0.699737548828125;-0.07305908203125;0.809999997954947;82;100 mA
34.6020289126383;-0.699737548828125;-0.072540283203125;0.819999997929699;83;100 mA
34.612028912613;-0.69976806640625;-0.072906494140625;0.829999997904451;84;100 mA
34.6220289125878;-0.699737548828125;-0.0723876953125;0.839999997879204;85;100 mA
34.6320289125625;-0.69970703125;-0.0728759765625;0.849999997853956;86;100 mA
34.6420289125373;-0.69970703125;-0.072845458984375;0.859999997828709;87;100 mA
34.652028912512;-0.69970703125;-0.07305908203125;0.869999997803461;88;100 mA
34.6620289124868;-0.699676513671875;-0.07305908203125;0.879999997778214;89;100 mA
34.6720289124615;-0.699676513671875;-0.073638916015625;0.889999997752966;90;100 mA
34.6820289124363;-0.69970703125;-0.07305908203125;0.899999997727718;91;100 mA
34.692028912411;-0.69976806640625;-0.07305908203125;0.909999997702471;92;100 mA
34.7020289123858;-0.69970703125;-0.072509765625;0.919999997677223;93;100 mA
34.7120289123606;-0.699676513671875;-0.07257080078125;0.929999997651976;94;100 mA
34.7220289123353;-0.69964599609375;-0.07293701171875;0.939999997626728;95;100 mA
34.7320289123101;-0.699737548828125;-0.073028564453125;0.949999997601481;96;100 mA
34.7420289122848;-0.69970703125;-0.0732421875;0.959999997576233;97;100 mA
34.7520289122596;-0.699737548828125;-0.07354736328125;0.969999997550985;98;100 mA
34.7620289122343;-0.69976806640625;-0.073486328125;0.979999997525738;99;100 mA
34.7720289122091;-0.699676513671875;-0.073577880859375;0.98999999750049;100;100 mA
34.7820289121838;-0.69970703125;-0.07330322265625;0.999999997475243;101;100 mA
34.7920289121586;-0.699676513671875;-0.073333740234375;1.00999999745;102;100 mA
34.8020289121333;-0.699676513671875;-0.07354736328125;1.01999999742475;103;100 mA
34.8120289121081;-0.69976806640625;-0.0736083984375;1.0299999973995;104;100 mA
34.8220289120828;-0.69970703125;-0.07403564453125;1.03999999737425;105;100 mA
34.8320289120576;-0.699676513671875;-0.074371337890625;1.049999997349;106;100 mA
34.8420289120323;-0.699737548828125;-0.074066162109375;1.05999999732376;107;100 mA
34.8520289120071;-0.69970703125;-0.07391357421875;1.06999999729851;108;100 mA
34.8620289119818;-0.699737548828125;-0.073638916015625;1.07999999727326;109;100 mA
34.8720289119566;-0.699737548828125;-0.073455810546875;1.08999999724801;110;100 mA
34.8820289119313;-0.699676513671875;-0.073455810546875;1.09999999722277;111;100 mA
34.8920289119061;-0.699798583984375;-0.07293701171875;1.10999999719752;112;100 mA
34.9020289118808;-0.69970703125;-0.07281494140625;1.11999999717227;113;100 mA
34.9120289118556;-0.69964599609375;-0.07305908203125;1.12999999714702;114;100 mA
34.9220289118304;-0.699676513671875;-0.072723388671875;1.13999999712178;115;100 mA
34.9320289118051;-0.699737548828125;-0.07281494140625;1.14999999709653;116;100 mA
34.9420289117799;-0.699737548828125;-0.0723876953125;1.15999999707128;117;100 mA
34.9520289117546;-0.699676513671875;-0.0726318359375;1.16999999704603;118;100 mA
34.9620289117294;-0.699676513671875;-0.072906494140625;1.17999999702079;119;100 mA
34.9720289117041;-0.69970703125;-0.073211669921875;1.18999999699554;120;100 mA
34.9820289116789;-0.699737548828125;-0.0731201171875;1.19999999697029;121;100 mA
34.9920289116536;-0.69970703125;-0.073638916015625;1.20999999694504;122;100 mA
35.0020289116284;-0.69970703125;-0.073150634765625;1.2199999969198;123;100 mA
35.0120289116031;-0.699737548828125;-0.073486328125;1.22999999689455;124;100 mA
35.0220289115779;-0.699676513671875;-0.07293701171875;1.2399999968693;125;100 mA
35.0320289115526;-0.69970703125;-0.073394775390625;1.24999999684405;126;100 mA
35.0420289115274;-0.69964599609375;-0.073455810546875;1.25999999681881;127;100 mA
35.0520289115021;-0.699737548828125;-0.073760986328125;1.26999999679356;128;100 mA
35.0620289114769;-0.699737548828125;-0.07379150390625;1.27999999676831;129;100 mA
35.0720289114516;-0.699737548828125;-0.074432373046875;1.28999999674306;130;100 mA
35.0820289114264;-0.69976806640625;-0.073883056640625;1.29999999671782;131;100 mA
35.0920289114011;-0.69970703125;-0.073944091796875;1.30999999669257;132;100 mA
35.1020289113759;-0.69970703125;-0.073455810546875;1.31999999666732;133;100 mA
35.1120289113506;-0.699676513671875;-0.073516845703125;1.32999999664207;134;100 mA
35.1220289113254;-0.699676513671875;-0.07373046875;1.33999999661683;135;100 mA
35.1320289113002;-0.699676513671875;-0.07373046875;1.34999999659158;136;100 mA
35.1420289112749;-0.69970703125;-0.073822021484375;1.35999999656633;137;100 mA
35.1520289112497;-0.699676513671875;-0.0740966796875;1.36999999654108;138;100 mA
35.1620289112244;-0.69970703125;-0.073944091796875;1.37999999651583;139;100 mA
35.1720289111992;-0.699676513671875;-0.074005126953125;1.38999999649059;140;100 mA
35.1820289111739;-0.69970703125;-0.07373046875;1.39999999646534;141;100 mA
35.1920289111487;-0.699676513671875;-0.073699951171875;1.40999999644009;142;100 mA
35.2020289111234;-0.69970703125;-0.073883056640625;1.41999999641484;143;100 mA
35.2120289110982;-0.69964599609375;-0.073944091796875;1.4299999963896;144;100 mA
35.2220289110729;-0.699737548828125;-0.074310302734375;1.43999999636435;145;100 mA
35.2320289110477;-0.69970703125;-0.074615478515625;1.4499999963391;146;100 mA
35.2420289110224;-0.69970703125;-0.0743408203125;1.45999999631385;147;100 mA
35.2520289109972;-0.699737548828125;-0.074249267578125;1.46999999628861;148;100 mA
35.2620289109719;-0.699737548828125;-0.07403564453125;1.47999999626336;149;100 mA
35.2720289109467;-0.699676513671875;-0.073974609375;1.48999999623811;150;100 mA
35.2820289109214;-0.699676513671875;-0.0740966796875;1.49999999621286;151;100 mA
35.2920289108962;-0.69970703125;-0.073883056640625;1.50999999618762;152;100 mA
35.3020289108709;-0.69970703125;-0.073944091796875;1.51999999616237;153;100 mA
35.3120289108457;-0.699737548828125;-0.07452392578125;1.52999999613712;154;100 mA
35.3220289108204;-0.699737548828125;-0.074310302734375;1.53999999611187;155;100 mA
35.3320289107952;-0.69970703125;-0.074432373046875;1.54999999608663;156;100 mA
35.34202891077;-0.69970703125;-0.073944091796875;1.55999999606138;157;100 mA
35.3520289107447;-0.699737548828125;-0.074005126953125;1.56999999603613;158;100 mA
35.3620289107195;-0.69970703125;-0.074005126953125;1.57999999601088;159;100 mA
35.3720289106942;-0.69970703125;-0.07415771484375;1.58999999598564;160;100 mA
35.382028910669;-0.69970703125;-0.073822021484375;1.59999999596039;161;100 mA
35.3920289106437;-0.699737548828125;-0.07421875;1.60999999593514;162;100 mA
35.4020289106185;-0.699676513671875;-0.07366943359375;1.61999999590989;163;100 mA
35.4120289105932;-0.699676513671875;-0.073944091796875;1.62999999588465;164;100 mA
35.422028910568;-0.69970703125;-0.073455810546875;1.6399999958594;165;100 mA
35.4320289105427;-0.69976806640625;-0.073760986328125;1.64999999583415;166;100 mA
35.4420289105175;-0.699676513671875;-0.0736083984375;1.6599999958089;167;100 mA
35.4520289104922;-0.699676513671875;-0.07379150390625;1.66999999578366;168;100 mA
35.462028910467;-0.69976806640625;-0.07373046875;1.67999999575841;169;100 mA
35.4720289104417;-0.69970703125;-0.074310302734375;1.68999999573316;170;100 mA
35.4820289104165;-0.69970703125;-0.073699951171875;1.69999999570791;171;100 mA
35.4920289103912;-0.69970703125;-0.073760986328125;1.70999999568267;172;100 mA
35.502028910366;-0.699737548828125;-0.073394775390625;1.71999999565742;173;100 mA
35.5120289103407;-0.69964599609375;-0.073516845703125;1.72999999563217;174;100 mA
35.5220289103155;-0.69970703125;-0.073760986328125;1.73999999560692;175;100 mA
35.5320289102903;-0.699737548828125;-0.0738525390625;1.74999999558167;176;100 mA
35.542028910265;-0.69970703125;-0.073944091796875;1.75999999555643;177;100 mA
35.5520289102398;-0.69976806640625;-0.074066162109375;1.76999999553118;178;100 mA
35.5620289102145;-0.699737548828125;-0.0738525390625;1.77999999550593;179;100 mA
35.5720289101893;-0.69976806640625;-0.07379150390625;1.78999999548068;180;100 mA
35.582028910164;-0.699737548828125;-0.073394775390625;1.79999999545544;181;100 mA
35.5920289101388;-0.69970703125;-0.073211669921875;1.80999999543019;182;100 mA
35.6020289101135;-0.699676513671875;-0.073272705078125;1.81999999540494;183;100 mA
35.6120289100883;-0.69970703125;-0.0732421875;1.82999999537969;184;100 mA
35.622028910063;-0.69976806640625;-0.07342529296875;1.83999999535445;185;100 mA
35.6320289100378;-0.69970703125;-0.073638916015625;1.8499999953292;186;100 mA
35.6420289100125;-0.699737548828125;-0.073150634765625;1.85999999530395;187;100 mA
35.6520289099873;-0.69970703125;-0.07293701171875;1.8699999952787;188;100 mA
35.662028909962;-0.69970703125;-0.072540283203125;1.87999999525346;189;100 mA
35.6720289099368;-0.699737548828125;-0.072418212890625;1.88999999522821;190;100 mA
35.6820289099115;-0.69970703125;-0.072418212890625;1.89999999520296;191;100 mA
35.6920289098863;-0.699737548828125;-0.0721435546875;1.90999999517771;192;100 mA
35.702028909861;-0.699737548828125;-0.072113037109375;1.91999999515247;193;100 mA
35.7120289098358;-0.699737548828125;-0.07269287109375;1.92999999512722;194;100 mA
35.7220289098105;-0.69976806640625;-0.0723876953125;1.93999999510197;195;100 mA
35.7320289097853;-0.699676513671875;-0.072540283203125;1.94999999507672;196;100 mA
35.7420289097601;-0.69970703125;-0.071990966796875;1.95999999505148;197;100 mA
35.7520289097348;-0.69970703125;-0.07208251953125;1.96999999502623;198;100 mA
35.7620289097096;-0.69970703125;-0.072235107421875;1.97999999500098;199;100 mA
35.7720289096843;-0.699737548828125;-0.072509765625;1.98999999497573;200;100 mA
35.7820289096591;-0.69970703125;-0.0723876953125;1.99999999495049;201;100 mA
35.7920289096338;-0.699676513671875;-0.07281494140625;2.00999999492524;202;100 mA
35.8020289096086;-0.699737548828125;-0.072357177734375;2.01999999489999;203;100 mA
35.8120289095833;-0.69970703125;-0.0726318359375;2.02999999487474;204;100 mA
35.8220289095581;-0.69964599609375;-0.072113037109375;2.0399999948495;205;100 mA
35.8320289095328;-0.699676513671875;-0.07232666015625;2.04999999482425;206;100 mA
35.8420289095076;-0.69970703125;-0.072174072265625;2.059999994799;207;100 mA
35.8520289094823;-0.69970703125;-0.07232666015625;2.06999999477375;208;100 mA
35.8620289094571;-0.699737548828125;-0.07232666015625;2.0799999947485;209;100 mA
35.8720289094318;-0.699676513671875;-0.0728759765625;2.08999999472326;210;100 mA
35.8820289094066;-0.69976806640625;-0.072357177734375;2.09999999469801;211;100 mA
35.8920289093813;-0.69970703125;-0.0723876953125;2.10999999467276;212;100 mA
35.9020289093561;-0.699737548828125;-0.0718994140625;2.11999999464751;213;100 mA
35.9120289093308;-0.699676513671875;-0.07196044921875;2.12999999462227;214;100 mA
35.9220289093056;-0.69970703125;-0.072235107421875;2.13999999459702;215;100 mA
35.9320289092803;-0.69970703125;-0.072357177734375;2.14999999457177;216;100 mA
35.9420289092551;-0.69964599609375;-0.072509765625;2.15999999454652;217;100 mA
35.9520289092299;-0.699737548828125;-0.07269287109375;2.16999999452128;218;100 mA
35.9620289092046;-0.69970703125;-0.07257080078125;2.17999999449603;219;100 mA
35.9720289091794;-0.699737548828125;-0.07257080078125;2.18999999447078;220;100 mA
35.9820289091541;-0.699676513671875;-0.07220458984375;2.19999999444553;221;100 mA
35.9920289091289;-0.699676513671875;-0.072052001953125;2.20999999442029;222;100 mA
36.0020289091036;-0.69970703125;-0.072113037109375;2.21999999439504;223;100 mA
36.0120289090784;-0.69970703125;-0.07220458984375;2.22999999436979;224;100 mA
36.0220289090531;-0.699737548828125;-0.072509765625;2.23999999434454;225;100 mA
36.0320289090279;-0.69970703125;-0.072845458984375;2.2499999943193;226;100 mA
36.0420289090026;-0.699737548828125;-0.0723876953125;2.25999999429405;227;100 mA
36.0520289089774;-0.699737548828125;-0.072235107421875;2.2699999942688;228;100 mA
36.0620289089521;-0.69976806640625;-0.07183837890625;2.27999999424355;229;100 mA
36.0720289089269;-0.69970703125;-0.07177734375;2.28999999421831;230;100 mA
36.0820289089016;-0.699676513671875;-0.071685791015625;2.29999999419306;231;100 mA
36.0920289088764;-0.699676513671875;-0.07135009765625;2.30999999416781;232;100 mA
36.1020289088511;-0.69976806640625;-0.071197509765625;2.31999999414256;233;100 mA
36.1120289088259;-0.69970703125;-0.071563720703125;2.32999999411732;234;100 mA
36.1220289088006;-0.699737548828125;-0.071197509765625;2.33999999409207;235;100 mA
36.1320289087754;-0.699676513671875;-0.0712890625;2.34999999406682;236;100 mA
36.1420289087501;-0.699676513671875;-0.070770263671875;2.35999999404157;237;100 mA
36.1520289087249;-0.69970703125;-0.070831298828125;2.36999999401633;238;100 mA
36.1620289086997;-0.69964599609375;-0.07086181640625;2.37999999399108;239;100 mA
36.1720289086744;-0.699676513671875;-0.071014404296875;2.38999999396583;240;100 mA
36.1820289086492;-0.699737548828125;-0.070709228515625;2.39999999394058;241;100 mA
36.1920289086239;-0.699737548828125;-0.071014404296875;2.40999999391533;242;100 mA
36.2020289085987;-0.699676513671875;-0.070526123046875;2.41999999389009;243;100 mA
36.2120289085734;-0.699737548828125;-0.070709228515625;2.42999999386484;244;100 mA
36.2220289085482;-0.699737548828125;-0.070281982421875;2.43999999383959;245;100 mA
36.2320289085229;-0.69970703125;-0.070465087890625;2.44999999381434;246;100 mA
36.2420289084977;-0.699737548828125;-0.070404052734375;2.4599999937891;247;100 mA
36.2520289084724;-0.699737548828125;-0.070556640625;2.46999999376385;248;100 mA
36.2620289084472;-0.699737548828125;-0.07061767578125;2.4799999937386;249;100 mA
36.2720289084219;-0.69976806640625;-0.071044921875;2.48999999371335;250;100 mA
36.2820289083967;-0.69970703125;-0.0706787109375;2.49999999368811;251;100 mA
36.2920289083714;-0.699737548828125;-0.070648193359375;2.50999999366286;252;100 mA
36.3020289083462;-0.69970703125;-0.0703125;2.51999999363761;253;100 mA
36.3120289083209;-0.699737548828125;-0.070281982421875;2.52999999361236;254;100 mA
36.3220289082957;-0.699676513671875;-0.070526123046875;2.53999999358712;255;100 mA
36.3320289082704;-0.699737548828125;-0.07049560546875;2.54999999356187;256;100 mA
36.3420289082452;-0.69976806640625;-0.070709228515625;2.55999999353662;257;100 mA
36.3520289082199;-0.699676513671875;-0.071014404296875;2.56999999351137;258;100 mA
36.3620289081947;-0.69970703125;-0.07098388671875;2.57999999348613;259;100 mA
36.3720289081695;-0.69970703125;-0.071044921875;2.58999999346088;260;100 mA
36.3820289081442;-0.69970703125;-0.07073974609375;2.59999999343563;261;100 mA
36.392028908119;-0.69964599609375;-0.070556640625;2.60999999341038;262;100 mA
36.4020289080937;-0.69970703125;-0.070526123046875;2.61999999338514;263;100 mA
36.4120289080685;-0.699737548828125;-0.0704345703125;2.62999999335989;264;100 mA
36.4220289080432;-0.69976806640625;-0.07049560546875;2.63999999333464;265;100 mA
36.432028908018;-0.69970703125;-0.070770263671875;2.64999999330939;266;100 mA
36.4420289079927;-0.699676513671875;-0.0704345703125;2.65999999328415;267;100 mA
36.4520289079675;-0.699676513671875;-0.070465087890625;2.6699999932589;268;100 mA
36.4620289079422;-0.699737548828125;-0.0701904296875;2.67999999323365;269;100 mA
36.472028907917;-0.69976806640625;-0.07025146484375;2.6899999932084;270;100 mA
36.4820289078917;-0.699676513671875;-0.0701904296875;2.69999999318316;271;100 mA
36.4920289078665;-0.699737548828125;-0.069976806640625;2.70999999315791;272;100 mA
36.5020289078412;-0.699676513671875;-0.06988525390625;2.71999999313266;273;100 mA
36.512028907816;-0.69976806640625;-0.07037353515625;2.72999999310741;274;100 mA
36.5220289077907;-0.699737548828125;-0.070068359375;2.73999999308217;275;100 mA
36.5320289077655;-0.69970703125;-0.070159912109375;2.74999999305692;276;100 mA
36.5420289077402;-0.699676513671875;-0.069610595703125;2.75999999303167;277;100 mA
36.552028907715;-0.69970703125;-0.06964111328125;2.76999999300642;278;100 mA
36.5620289076898;-0.699737548828125;-0.069671630859375;2.77999999298117;279;100 mA
36.5720289076645;-0.699737548828125;-0.069793701171875;2.78999999295593;280;100 mA
36.5820289076393;-0.699737548828125;-0.069549560546875;2.79999999293068;281;100 mA
36.592028907614;-0.69970703125;-0.0699462890625;2.80999999290543;282;100 mA
36.6020289075888;-0.699737548828125;-0.069580078125;2.81999999288018;283;100 mA
36.6120289075635;-0.69970703125;-0.06982421875;2.82999999285494;284;100 mA
36.6220289075383;-0.699737548828125;-0.069427490234375;2.83999999282969;285;100 mA
36.632028907513;-0.699737548828125;-0.069610595703125;2.84999999280444;286;100 mA
36.6420289074878;-0.69970703125;-0.069549560546875;2.85999999277919;287;100 mA
36.6520289074625;-0.699737548828125;-0.06976318359375;2.86999999275395;288;100 mA
36.6620289074373;-0.699737548828125;-0.0699462890625;2.8799999927287;289;100 mA
36.672028907412;-0.69970703125;-0.07049560546875;2.88999999270345;290;100 mA
36.6820289073868;-0.699737548828125;-0.070343017578125;2.8999999926782;291;100 mA
36.6920289073615;-0.69976806640625;-0.0706787109375;2.90999999265296;292;100 mA
36.7020289073363;-0.69970703125;-0.0706787109375;2.91999999262771;293;100 mA
36.712028907311;-0.699676513671875;-0.0709228515625;2.92999999260246;294;100 mA
36.7220289072858;-0.69970703125;-0.07122802734375;2.93999999257721;295;100 mA
36.7320289072605;-0.699737548828125;-0.0711669921875;2.94999999255197;296;100 mA
36.7420289072353;-0.69970703125;-0.0712890625;2.95999999252672;297;100 mA
36.75202890721;-0.699737548828125;-0.07147216796875;2.96999999250147;298;100 mA
36.7620289071848;-0.699737548828125;-0.071441650390625;2.97999999247622;299;100 mA
36.7720289071596;-0.69970703125;-0.07147216796875;2.98999999245098;300;100 mA
36.7820289071343;-0.699737548828125;-0.071197509765625;2.99999999242573;301;100 mA
36.7920289071091;-0.69970703125;-0.07110595703125;3.00999999240048;302;100 mA
36.8020289070838;-0.69970703125;-0.071197509765625;3.01999999237523;303;100 mA
36.8120289070586;-0.69970703125;-0.07122802734375;3.02999999234999;304;100 mA
36.8220289070333;-0.699737548828125;-0.071319580078125;3.03999999232474;305;100 mA
36.8320289070081;-0.699737548828125;-0.07159423828125;3.04999999229949;306;100 mA
36.8420289069828;-0.699737548828125;-0.07122802734375;3.05999999227424;307;100 mA
36.8520289069576;-0.69976806640625;-0.071319580078125;3.069999992249;308;100 mA
36.8620289069323;-0.699676513671875;-0.071044921875;3.07999999222375;309;100 mA
36.8720289069071;-0.69970703125;-0.07110595703125;3.0899999921985;310;100 mA
36.8820289068818;-0.69970703125;-0.07098388671875;3.09999999217325;311;100 mA
36.8920289068566;-0.699676513671875;-0.070709228515625;3.109999992148;312;100 mA
36.9020289068313;-0.69976806640625;-0.07049560546875;3.11999999212276;313;100 mA
36.9120289068061;-0.69964599609375;-0.0709228515625;3.12999999209751;314;100 mA
36.9220289067808;-0.69970703125;-0.070465087890625;3.13999999207226;315;100 mA
36.9320289067556;-0.69964599609375;-0.070526123046875;3.14999999204701;316;100 mA
36.9420289067303;-0.699676513671875;-0.069976806640625;3.15999999202177;317;100 mA
36.9520289067051;-0.69970703125;-0.070037841796875;3.16999999199652;318;100 mA
36.9620289066798;-0.699615478515625;-0.070068359375;3.17999999197127;319;100 mA
36.9720289066546;-0.699676513671875;-0.070281982421875;3.18999999194602;320;100 mA
36.9820289066294;-0.699737548828125;-0.070098876953125;3.19999999192078;321;100 mA
36.9920289066041;-0.699676513671875;-0.070526123046875;3.20999999189553;322;100 mA
37.0020289065789;-0.699676513671875;-0.07025146484375;3.21999999187028;323;100 mA
37.0120289065536;-0.69970703125;-0.070556640625;3.22999999184503;324;100 mA
37.0220289065284;-0.699737548828125;-0.070159912109375;3.23999999181979;325;100 mA
37.0320289065031;-0.69970703125;-0.07025146484375;3.24999999179454;326;100 mA
37.0420289064779;-0.69970703125;-0.070159912109375;3.25999999176929;327;100 mA
37.0520289064526;-0.699737548828125;-0.07037353515625;3.26999999174404;328;100 mA
37.0620289064274;-0.69970703125;-0.070556640625;3.2799999917188;329;100 mA
37.0720289064021;-0.69976806640625;-0.071014404296875;3.28999999169355;330;100 mA
37.0820289063769;-0.69970703125;-0.070831298828125;3.2999999916683;331;100 mA
37.0920289063516;-0.69976806640625;-0.0709228515625;3.30999999164305;332;100 mA
37.1020289063264;-0.69976806640625;-0.070648193359375;3.31999999161781;333;100 mA
37.1120289063011;-0.69970703125;-0.07061767578125;3.32999999159256;334;100 mA
37.1220289062759;-0.699737548828125;-0.070709228515625;3.33999999156731;335;100 mA
37.1320289062506;-0.699676513671875;-0.070526123046875;3.34999999154206;336;100 mA
37.1420289062254;-0.69970703125;-0.070587158203125;3.35999999151682;337;100 mA
37.1520289062001;-0.69970703125;-0.070770263671875;3.36999999149157;338;100 mA
37.1620289061749;-0.69976806640625;-0.070831298828125;3.37999999146632;339;100 mA
37.1720289061496;-0.69970703125;-0.070892333984375;3.38999999144107;340;100 mA
37.1820289061244;-0.699676513671875;-0.070709228515625;3.39999999141583;341;100 mA
37.1920289060992;-0.69970703125;-0.07061767578125;3.40999999139058;342;100 mA
37.2020289060739;-0.699676513671875;-0.07061767578125;3.41999999136533;343;100 mA
37.2120289060487;-0.69970703125;-0.07049560546875;3.42999999134008;344;100 mA
37.2220289060234;-0.699737548828125;-0.07037353515625;3.43999999131483;345;100 mA
37.2320289059982;-0.69970703125;-0.070556640625;3.44999999128959;346;100 mA
37.2420289059729;-0.69970703125;-0.070159912109375;3.45999999126434;347;100 mA
37.2520289059477;-0.699737548828125;-0.070281982421875;3.46999999123909;348;100 mA
37.2620289059224;-0.699676513671875;-0.070068359375;3.47999999121384;349;100 mA
37.2720289058972;-0.69970703125;-0.070281982421875;3.4899999911886;350;100 mA
37.2820289058719;-0.699676513671875;-0.0701904296875;3.49999999116335;351;100 mA
37.2920289058467;-0.699737548828125;-0.070037841796875;3.5099999911381;352;100 mA
37.3020289058214;-0.69970703125;-0.069854736328125;3.51999999111285;353;100 mA
37.3120289057962;-0.69970703125;-0.07025146484375;3.52999999108761;354;100 mA
37.3220289057709;-0.699676513671875;-0.069793701171875;3.53999999106236;355;100 mA
37.3320289057457;-0.699737548828125;-0.06988525390625;3.54999999103711;356;100 mA
37.3420289057204;-0.69970703125;-0.069366455078125;3.55999999101186;357;100 mA
37.3520289056952;-0.69970703125;-0.0694580078125;3.56999999098662;358;100 mA
37.3620289056699;-0.699737548828125;-0.069427490234375;3.57999999096137;359;100 mA
37.3720289056447;-0.69976806640625;-0.06964111328125;3.58999999093612;360;100 mA
37.3820289056194;-0.699676513671875;-0.069366455078125;3.59999999091087;361;100 mA
37.3920289055942;-0.69970703125;-0.069732666015625;3.60999999088563;362;100 mA
37.402028905569;-0.69976806640625;-0.069305419921875;3.61999999086038;363;100 mA
37.4120289055437;-0.699676513671875;-0.0694580078125;3.62999999083513;364;100 mA
37.4220289055185;-0.699737548828125;-0.068878173828125;3.63999999080988;365;100 mA
37.4320289054932;-0.69970703125;-0.06890869140625;3.64999999078464;366;100 mA
37.442028905468;-0.69970703125;-0.068817138671875;3.65999999075939;367;100 mA
37.4520289054427;-0.699676513671875;-0.069061279296875;3.66999999073414;368;100 mA
37.4620289054175;-0.699737548828125;-0.06927490234375;3.67999999070889;369;100 mA
37.4720289053922;-0.69970703125;-0.069854736328125;3.68999999068365;370;100 mA
37.482028905367;-0.69976806640625;-0.069793701171875;3.6999999906584;371;100 mA
37.4920289053417;-0.699676513671875;-0.070037841796875;3.70999999063315;372;100 mA
37.5020289053165;-0.699737548828125;-0.069854736328125;3.7199999906079;373;100 mA
37.5120289052912;-0.699676513671875;-0.069915771484375;3.72999999058266;374;100 mA
37.522028905266;-0.69964599609375;-0.070037841796875;3.73999999055741;375;100 mA
37.5320289052407;-0.699676513671875;-0.069915771484375;3.74999999053216;376;100 mA
37.5420289052155;-0.69970703125;-0.0699462890625;3.75999999050691;377;100 mA
37.5520289051902;-0.699737548828125;-0.0701904296875;3.76999999048167;378;100 mA
37.562028905165;-0.699737548828125;-0.070159912109375;3.77999999045642;379;100 mA
37.5720289051397;-0.69970703125;-0.070220947265625;3.78999999043117;380;100 mA
37.5820289051145;-0.69970703125;-0.069976806640625;3.79999999040592;381;100 mA
37.5920289050893;-0.699676513671875;-0.06988525390625;3.80999999038067;382;100 mA
37.602028905064;-0.699676513671875;-0.06988525390625;3.81999999035543;383;100 mA
37.6120289050388;-0.699737548828125;-0.069793701171875;3.82999999033018;384;100 mA
37.6220289050135;-0.69970703125;-0.06976318359375;3.83999999030493;385;100 mA
37.6320289049883;-0.699676513671875;-0.069976806640625;3.84999999027968;386;100 mA
37.642028904963;-0.699737548828125;-0.069580078125;3.85999999025444;387;100 mA
37.6520289049378;-0.69970703125;-0.06964111328125;3.86999999022919;388;100 mA
37.6620289049125;-0.699676513671875;-0.069305419921875;3.87999999020394;389;100 mA
37.6720289048873;-0.69970703125;-0.069366455078125;3.88999999017869;390;100 mA
37.682028904862;-0.69964599609375;-0.06927490234375;3.89999999015345;391;100 mA
37.6920289048368;-0.699737548828125;-0.069244384765625;3.9099999901282;392;100 mA
37.7020289048115;-0.69970703125;-0.069305419921875;3.91999999010295;393;100 mA
37.7120289047863;-0.699676513671875;-0.07000732421875;3.9299999900777;394;100 mA
37.722028904761;-0.69970703125;-0.06982421875;3.93999999005246;395;100 mA
37.7320289047358;-0.69970703125;-0.070098876953125;3.94999999002721;396;100 mA
37.7420289047105;-0.69976806640625;-0.06976318359375;3.95999999000196;397;100 mA
37.7520289046853;-0.699676513671875;-0.069915771484375;3.96999998997671;398;100 mA
37.76202890466;-0.699737548828125;-0.07000732421875;3.97999998995147;399;100 mA
37.7720289046348;-0.699737548828125;-0.070220947265625;3.98999998992622;400;100 mA
37.7820289046095;-0.699737548828125;-0.070098876953125;3.99999998990097;401;100 mA
37.7920289045843;-0.699737548828125;-0.070587158203125;4.00999998987572;402;100 mA
37.8020289045591;-0.699737548828125;-0.07037353515625;4.01999998985048;403;100 mA
37.8120289045338;-0.699737548828125;-0.07061767578125;4.02999998982523;404;100 mA
37.8220289045086;-0.699676513671875;-0.070220947265625;4.03999998979998;405;100 mA
37.8320289044833;-0.699737548828125;-0.0703125;4.04999998977473;406;100 mA
37.8420289044581;-0.699737548828125;-0.070220947265625;4.05999998974949;407;100 mA
37.8520289044328;-0.69970703125;-0.070404052734375;4.06999998972424;408;100 mA
37.8620289044076;-0.699737548828125;-0.070526123046875;4.07999998969899;409;100 mA
37.8720289043823;-0.699737548828125;-0.07086181640625;4.08999998967374;410;100 mA
37.8820289043571;-0.699737548828125;-0.070556640625;4.0999999896485;411;100 mA
37.8920289043318;-0.69970703125;-0.07061767578125;4.10999998962325;412;100 mA
37.9020289043066;-0.699737548828125;-0.070343017578125;4.119999989598;413;100 mA
37.9120289042813;-0.699737548828125;-0.070343017578125;4.12999998957275;414;100 mA
37.9220289042561;-0.69970703125;-0.070281982421875;4.1399999895475;415;100 mA
37.9320289042308;-0.69976806640625;-0.070098876953125;4.14999998952226;416;100 mA
37.9420289042056;-0.69970703125;-0.070098876953125;4.15999998949701;417;100 mA
37.9520289041803;-0.699676513671875;-0.070281982421875;4.16999998947176;418;100 mA
37.9620289041551;-0.69970703125;-0.070220947265625;4.17999998944651;419;100 mA
37.9720289041298;-0.69970703125;-0.070281982421875;4.18999998942127;420;100 mA
37.9820289041046;-0.69964599609375;-0.07000732421875;4.19999998939602;421;100 mA
37.9920289040793;-0.699676513671875;-0.069915771484375;4.20999998937077;422;100 mA
38.0020289040541;-0.69970703125;-0.069915771484375;4.21999998934552;423;100 mA
38.0120289040289;-0.69970703125;-0.06988525390625;4.22999998932028;424;100 mA
38.0220289040036;-0.699676513671875;-0.06982421875;4.23999998929503;425;100 mA
38.0320289039784;-0.69976806640625;-0.070037841796875;4.24999998926978;426;100 mA
38.0420289039531;-0.699737548828125;-0.0697021484375;4.25999998924453;427;100 mA
38.0520289039279;-0.69970703125;-0.06982421875;4.26999998921929;428;100 mA
38.0620289039026;-0.699798583984375;-0.069549560546875;4.27999998919404;429;100 mA
38.0720289038774;-0.69970703125;-0.069549560546875;4.28999998916879;430;100 mA
38.0820289038521;-0.699676513671875;-0.069366455078125;4.29999998914354;431;100 mA
38.0920289038269;-0.699676513671875;-0.06927490234375;4.3099999891183;432;100 mA
38.1020289038016;-0.69970703125;-0.0692138671875;4.31999998909305;433;100 mA
38.1120289037764;-0.69976806640625;-0.069854736328125;4.3299999890678;434;100 mA
38.1220289037511;-0.699737548828125;-0.06964111328125;4.33999998904255;435;100 mA
38.1320289037259;-0.69970703125;-0.069915771484375;4.34999998901731;436;100 mA
38.1420289037006;-0.69964599609375;-0.069610595703125;4.35999998899206;437;100 mA
38.1520289036754;-0.69964599609375;-0.069793701171875;4.36999998896681;438;100 mA
38.1620289036501;-0.699737548828125;-0.069854736328125;4.37999998894156;439;100 mA
38.1720289036249;-0.69970703125;-0.07000732421875;4.38999998891632;440;100 mA
38.1820289035996;-0.69970703125;-0.06976318359375;4.39999998889107;441;100 mA
38.1920289035744;-0.69964599609375;-0.070068359375;4.40999998886582;442;100 mA
38.2020289035491;-0.69970703125;-0.069793701171875;4.41999998884057;443;100 mA
38.2120289035239;-0.69964599609375;-0.07000732421875;4.42999998881533;444;100 mA
38.2220289034987;-0.699676513671875;-0.06964111328125;4.43999998879008;445;100 mA
38.2320289034734;-0.69970703125;-0.069732666015625;4.44999998876483;446;100 mA
38.2420289034482;-0.69970703125;-0.069671630859375;4.45999998873958;447;100 mA
38.2520289034229;-0.69970703125;-0.069793701171875;4.46999998871433;448;100 mA
38.2620289033977;-0.699737548828125;-0.07000732421875;4.47999998868909;449;100 mA
38.2720289033724;-0.69976806640625;-0.0704345703125;4.48999998866384;450;100 mA
38.2820289033472;-0.69976806640625;-0.0703125;4.49999998863859;451;100 mA
38.2920289033219;-0.69970703125;-0.070556640625;4.50999998861334;452;100 mA
38.3020289032967;-0.69976806640625;-0.070404052734375;4.5199999885881;453;100 mA
38.3120289032714;-0.69964599609375;-0.07049560546875;4.52999998856285;454;100 mA
38.3220289032462;-0.699737548828125;-0.070556640625;4.5399999885376;455;100 mA
38.3320289032209;-0.69970703125;-0.07037353515625;4.54999998851235;456;100 mA
38.3420289031957;-0.699737548828125;-0.070343017578125;4.55999998848711;457;100 mA
38.3520289031704;-0.69970703125;-0.070526123046875;4.56999998846186;458;100 mA
38.3620289031452;-0.699737548828125;-0.070465087890625;4.57999998843661;459;100 mA
38.3720289031199;-0.699737548828125;-0.07049560546875;4.58999998841136;460;100 mA
38.3820289030947;-0.69970703125;-0.070220947265625;4.59999998838612;461;100 mA
38.3920289030694;-0.699737548828125;-0.070098876953125;4.60999998836087;462;100 mA
38.4020289030442;-0.699676513671875;-0.070098876953125;4.61999998833562;463;100 mA
38.4120289030189;-0.699676513671875;-0.070037841796875;4.62999998831037;464;100 mA
38.4220289029937;-0.699737548828125;-0.069976806640625;4.63999998828513;465;100 mA
38.4320289029685;-0.69976806640625;-0.070220947265625;4.64999998825988;466;100 mA
38.4420289029432;-0.69976806640625;-0.0699462890625;4.65999998823463;467;100 mA
38.452028902918;-0.699737548828125;-0.070098876953125;4.66999998820938;468;100 mA
38.4620289028927;-0.69970703125;-0.06982421875;4.67999998818414;469;100 mA
38.4720289028675;-0.699676513671875;-0.0699462890625;4.68999998815889;470;100 mA
38.4820289028422;-0.69970703125;-0.06982421875;4.69999998813364;471;100 mA
38.492028902817;-0.699737548828125;-0.069732666015625;4.70999998810839;472;100 mA
38.5020289027917;-0.699737548828125;-0.069671630859375;4.71999998808315;473;100 mA
38.5120289027665;-0.699676513671875;-0.070220947265625;4.7299999880579;474;100 mA
38.5220289027412;-0.699737548828125;-0.07000732421875;4.73999998803265;475;100 mA
38.532028902716;-0.699737548828125;-0.0703125;4.7499999880074;476;100 mA
38.5420289026907;-0.699737548828125;-0.07000732421875;4.75999998798216;477;100 mA
38.5520289026655;-0.699737548828125;-0.070098876953125;4.76999998795691;478;100 mA
38.5620289026402;-0.699676513671875;-0.070098876953125;4.77999998793166;479;100 mA
38.572028902615;-0.699676513671875;-0.0701904296875;4.78999998790641;480;100 mA
38.5820289025897;-0.69970703125;-0.07000732421875;4.79999998788116;481;100 mA
38.5920289025645;-0.699676513671875;-0.070343017578125;4.80999998785592;482;100 mA
38.6020289025392;-0.69970703125;-0.07012939453125;4.81999998783067;483;100 mA
38.612028902514;-0.69970703125;-0.070404052734375;4.82999998780542;484;100 mA
38.6220289024888;-0.699737548828125;-0.0701904296875;4.83999998778017;485;100 mA
38.6320289024635;-0.69970703125;-0.070343017578125;4.84999998775493;486;100 mA
38.6420289024383;-0.699676513671875;-0.07049560546875;4.85999998772968;487;100 mA
38.652028902413;-0.69970703125;-0.070648193359375;4.86999998770443;488;100 mA
38.6620289023878;-0.699676513671875;-0.07086181640625;4.87999998767918;489;100 mA
38.6720289023625;-0.69964599609375;-0.0711669921875;4.88999998765394;490;100 mA
38.6820289023373;-0.699676513671875;-0.071014404296875;4.89999998762869;491;100 mA
38.692028902312;-0.69976806640625;-0.07110595703125;4.90999998760344;492;100 mA
38.7020289022868;-0.699676513671875;-0.070831298828125;4.91999998757819;493;100 mA
38.7120289022615;-0.69970703125;-0.070770263671875;4.92999998755295;494;100 mA
38.7220289022363;-0.699737548828125;-0.07073974609375;4.9399999875277;495;100 mA
38.732028902211;-0.69970703125;-0.070526123046875;4.94999998750245;496;100 mA
38.7420289021858;-0.69970703125;-0.070465087890625;4.9599999874772;497;100 mA
38.7520289021605;-0.69976806640625;-0.0706787109375;4.96999998745196;498;100 mA
38.7620289021353;-0.699676513671875;-0.070587158203125;4.97999998742671;499;100 mA
38.77202890211;-0.699676513671875;-0.0706787109375;4.98999998740146;500;100 mA
38.7820289020848;-0.699737548828125;-0.070465087890625;4.99999998737621;501;100 mA
38.7920289020595;-0.69970703125;-0.070404052734375;5.00999998735097;502;100 mA
38.8020289020343;-0.699737548828125;-0.070343017578125;5.01999998732572;503;100 mA
38.812028902009;-0.699676513671875;-0.070343017578125;5.02999998730047;504;100 mA
38.8220289019838;-0.69970703125;-0.070159912109375;5.03999998727522;505;100 mA
38.8320289019586;-0.69964599609375;-0.070465087890625;5.04999998724998;506;100 mA
38.8420289019333;-0.69976806640625;-0.07012939453125;5.05999998722473;507;100 mA
38.8520289019081;-0.69964599609375;-0.070404052734375;5.06999998719948;508;100 mA
38.8620289018828;-0.69970703125;-0.070068359375;5.07999998717423;509;100 mA
38.8720289018576;-0.69970703125;-0.070220947265625;5.08999998714899;510;100 mA
38.8820289018323;-0.69964599609375;-0.069976806640625;5.09999998712374;511;100 mA
38.8920289018071;-0.69970703125;-0.069976806640625;5.10999998709849;512;100 mA
38.9020289017818;-0.699737548828125;-0.069854736328125;5.11999998707324;513;100 mA
38.9120289017566;-0.69970703125;-0.07037353515625;5.129999987048;514;100 mA
38.9220289017313;-0.69970703125;-0.070098876953125;5.13999998702275;515;100 mA
38.9320289017061;-0.699737548828125;-0.07037353515625;5.1499999869975;516;100 mA
38.9420289016808;-0.699737548828125;-0.07012939453125;5.15999998697225;517;100 mA
38.9520289016556;-0.69970703125;-0.070343017578125;5.169999986947;518;100 mA
38.9620289016303;-0.699676513671875;-0.0704345703125;5.17999998692176;519;100 mA
38.9720289016051;-0.69970703125;-0.070648193359375;5.18999998689651;520;100 mA
38.9820289015798;-0.699737548828125;-0.070587158203125;5.19999998687126;521;100 mA
38.9920289015546;-0.699737548828125;-0.07098388671875;5.20999998684601;522;100 mA
39.0020289015293;-0.699737548828125;-0.070831298828125;5.21999998682077;523;100 mA
39.0120289015041;-0.699676513671875;-0.070953369140625;5.22999998679552;524;100 mA
39.0220289014788;-0.699676513671875;-0.070648193359375;5.23999998677027;525;100 mA
39.0320289014536;-0.699676513671875;-0.0706787109375;5.24999998674502;526;100 mA
39.0420289014284;-0.69970703125;-0.0706787109375;5.25999998671978;527;100 mA
39.0520289014031;-0.69970703125;-0.070648193359375;5.26999998669453;528;100 mA
39.0620289013779;-0.69970703125;-0.070831298828125;5.27999998666928;529;100 mA
39.0720289013526;-0.69970703125;-0.071014404296875;5.28999998664403;530;100 mA
39.0820289013274;-0.69964599609375;-0.0709228515625;5.29999998661879;531;100 mA
39.0920289013021;-0.699737548828125;-0.071044921875;5.30999998659354;532;100 mA
39.1020289012769;-0.699737548828125;-0.0709228515625;5.31999998656829;533;100 mA
39.1120289012516;-0.69970703125;-0.070953369140625;5.32999998654304;534;100 mA
39.1220289012264;-0.699737548828125;-0.071014404296875;5.3399999865178;535;100 mA
39.1320289012011;-0.69970703125;-0.07080078125;5.34999998649255;536;100 mA
39.1420289011759;-0.699737548828125;-0.070709228515625;5.3599999864673;537;100 mA
39.1520289011506;-0.699676513671875;-0.0709228515625;5.36999998644205;538;100 mA
39.1620289011254;-0.699676513671875;-0.070770263671875;5.37999998641681;539;100 mA
39.1720289011001;-0.699737548828125;-0.070953369140625;5.38999998639156;540;100 mA
39.1820289010749;-0.69970703125;-0.07073974609375;5.39999998636631;541;100 mA
39.1920289010496;-0.699737548828125;-0.0706787109375;5.40999998634106;542;100 mA
39.2020289010244;-0.69970703125;-0.070648193359375;5.41999998631582;543;100 mA
39.2120289009991;-0.69970703125;-0.070648193359375;5.42999998629057;544;100 mA
39.2220289009739;-0.69970703125;-0.070465087890625;5.43999998626532;545;100 mA
39.2320289009486;-0.69970703125;-0.070648193359375;5.44999998624007;546;100 mA
39.2420289009234;-0.69970703125;-0.0701904296875;5.45999998621483;547;100 mA
39.2520289008982;-0.699737548828125;-0.07025146484375;5.46999998618958;548;100 mA
39.2620289008729;-0.699737548828125;-0.06976318359375;5.47999998616433;549;100 mA
39.2720289008477;-0.699676513671875;-0.0697021484375;5.48999998613908;550;100 mA
39.2820289008224;-0.69970703125;-0.0693359375;5.49999998611383;551;100 mA
39.2920289007972;-0.69970703125;-0.069183349609375;5.50999998608859;552;100 mA
39.3020289007719;-0.699737548828125;-0.068939208984375;5.51999998606334;553;100 mA
39.3120289007467;-0.69970703125;-0.0693359375;5.52999998603809;554;100 mA
39.3220289007214;-0.69970703125;-0.068939208984375;5.53999998601284;555;100 mA
39.3320289006962;-0.69970703125;-0.069091796875;5.5499999859876;556;100 mA
39.3420289006709;-0.69970703125;-0.0687255859375;5.55999998596235;557;100 mA
39.3520289006457;-0.69970703125;-0.068756103515625;5.5699999859371;558;100 mA
39.3620289006204;-0.69970703125;-0.068695068359375;5.57999998591185;559;100 mA
39.3720289005952;-0.69970703125;-0.068756103515625;5.58999998588661;560;100 mA
39.3820289005699;-0.699737548828125;-0.06854248046875;5.59999998586136;561;100 mA
39.3920289005447;-0.69970703125;-0.0687255859375;5.60999998583611;562;100 mA
39.4020289005194;-0.699676513671875;-0.068450927734375;5.61999998581086;563;100 mA
39.4120289004942;-0.69970703125;-0.068603515625;5.62999998578562;564;100 mA
39.4220289004689;-0.69970703125;-0.06829833984375;5.63999998576037;565;100 mA
39.4320289004437;-0.699737548828125;-0.068328857421875;5.64999998573512;566;100 mA
39.4420289004184;-0.699737548828125;-0.06829833984375;5.65999998570987;567;100 mA
39.4520289003932;-0.699737548828125;-0.068389892578125;5.66999998568463;568;100 mA
39.462028900368;-0.699676513671875;-0.0684814453125;5.67999998565938;569;100 mA
39.4720289003427;-0.699737548828125;-0.06878662109375;5.68999998563413;570;100 mA
39.4820289003175;-0.699737548828125;-0.068603515625;5.69999998560888;571;100 mA
39.4920289002922;-0.699676513671875;-0.06866455078125;5.70999998558364;572;100 mA
39.502028900267;-0.699676513671875;-0.06842041015625;5.71999998555839;573;100 mA
39.5120289002417;-0.699737548828125;-0.068389892578125;5.72999998553314;574;100 mA
39.5220289002165;-0.69970703125;-0.06842041015625;5.73999998550789;575;100 mA
39.5320289001912;-0.69970703125;-0.068206787109375;5.74999998548265;576;100 mA
39.542028900166;-0.69970703125;-0.06817626953125;5.7599999854574;577;100 mA
39.5520289001407;-0.69970703125;-0.06842041015625;5.76999998543215;578;100 mA
39.5620289001155;-0.699737548828125;-0.068450927734375;5.7799999854069;579;100 mA
39.5720289000902;-0.69970703125;-0.06866455078125;5.78999998538166;580;100 mA
39.582028900065;-0.699676513671875;-0.068450927734375;5.79999998535641;581;100 mA
39.5920289000397;-0.699676513671875;-0.068359375;5.80999998533116;582;100 mA
39.6020289000145;-0.69970703125;-0.068359375;5.81999998530591;583;100 mA
39.6120288999892;-0.69976806640625;-0.068267822265625;5.82999998528066;584;100 mA
39.622028899964;-0.699737548828125;-0.068084716796875;5.83999998525542;585;100 mA
39.6320288999387;-0.699798583984375;-0.068267822265625;5.84999998523017;586;100 mA
39.6420288999135;-0.69970703125;-0.06787109375;5.85999998520492;587;100 mA
39.6520288998883;-0.69970703125;-0.068023681640625;5.86999998517967;588;100 mA
39.662028899863;-0.69970703125;-0.067657470703125;5.87999998515443;589;100 mA
39.6720288998378;-0.69976806640625;-0.06781005859375;5.88999998512918;590;100 mA
39.6820288998125;-0.699737548828125;-0.067626953125;5.89999998510393;591;100 mA
39.6920288997873;-0.699737548828125;-0.067596435546875;5.90999998507868;592;100 mA
39.702028899762;-0.699737548828125;-0.06744384765625;5.91999998505344;593;100 mA
39.7120288997368;-0.69970703125;-0.067840576171875;5.92999998502819;594;100 mA
39.7220288997115;-0.699676513671875;-0.0675048828125;5.93999998500294;595;100 mA
39.7320288996863;-0.69970703125;-0.067657470703125;5.94999998497769;596;100 mA
39.742028899661;-0.699676513671875;-0.06732177734375;5.95999998495245;597;100 mA
39.7520288996358;-0.69970703125;-0.0673828125;5.9699999849272;598;100 mA
39.7620288996105;-0.699737548828125;-0.067413330078125;5.97999998490195;599;100 mA
39.7720288995853;-0.69970703125;-0.067535400390625;5.9899999848767;600;100 mA
39.78202889956;-0.699676513671875;-0.067413330078125;5.99999998485146;601;100 mA
39.7920288995348;-0.69970703125;-0.067626953125;6.00999998482621;602;100 mA
39.8020288995095;-0.699676513671875;-0.0673828125;6.01999998480096;603;100 mA
39.8120288994843;-0.699737548828125;-0.06744384765625;6.02999998477571;604;100 mA
39.822028899459;-0.69976806640625;-0.067108154296875;6.03999998475047;605;100 mA
39.8320288994338;-0.69976806640625;-0.067047119140625;6.04999998472522;606;100 mA
39.8420288994085;-0.699737548828125;-0.067047119140625;6.05999998469997;607;100 mA
39.8520288993833;-0.69976806640625;-0.067047119140625;6.06999998467472;608;100 mA
39.8620288993581;-0.69970703125;-0.06719970703125;6.07999998464948;609;100 mA
39.8720288993328;-0.69970703125;-0.067413330078125;6.08999998462423;610;100 mA
39.8820288993076;-0.69970703125;-0.06732177734375;6.09999998459898;611;100 mA
39.8920288992823;-0.699676513671875;-0.067413330078125;6.10999998457373;612;100 mA
39.9020288992571;-0.699737548828125;-0.067352294921875;6.11999998454849;613;100 mA
39.9120288992318;-0.69970703125;-0.0675048828125;6.12999998452324;614;100 mA
39.9220288992066;-0.699676513671875;-0.067657470703125;6.13999998449799;615;100 mA
39.9320288991813;-0.69970703125;-0.0675048828125;6.14999998447274;616;100 mA
39.9420288991561;-0.69970703125;-0.067474365234375;6.1599999844475;617;100 mA
39.9520288991308;-0.699676513671875;-0.06768798828125;6.16999998442225;618;100 mA
39.9620288991056;-0.699737548828125;-0.067596435546875;6.179999984397;619;100 mA
39.9720288990803;-0.69970703125;-0.067718505859375;6.18999998437175;620;100 mA
39.9820288990551;-0.69970703125;-0.06744384765625;6.1999999843465;621;100 mA
39.9920288990298;-0.69976806640625;-0.06732177734375;6.20999998432126;622;100 mA
40.0020288990046;-0.699737548828125;-0.067291259765625;6.21999998429601;623;100 mA
40.0120288989793;-0.69970703125;-0.06732177734375;6.22999998427076;624;100 mA
40.0220288989541;-0.69970703125;-0.067138671875;6.23999998424551;625;100 mA
40.0320288989288;-0.699676513671875;-0.06732177734375;6.24999998422027;626;100 mA
40.0420288989036;-0.699737548828125;-0.066864013671875;6.25999998419502;627;100 mA
40.0520288988783;-0.699737548828125;-0.066986083984375;6.26999998416977;628;100 mA
40.0620288988531;-0.699798583984375;-0.066619873046875;6.27999998414452;629;100 mA
40.0720288988279;-0.699676513671875;-0.066741943359375;6.28999998411928;630;100 mA
40.0820288988026;-0.699676513671875;-0.066619873046875;6.29999998409403;631;100 mA
40.0920288987774;-0.69970703125;-0.066680908203125;6.30999998406878;632;100 mA
40.1020288987521;-0.69976806640625;-0.066650390625;6.31999998404353;633;100 mA
40.1120288987269;-0.699676513671875;-0.067138671875;6.32999998401829;634;100 mA
40.1220288987016;-0.69970703125;-0.066925048828125;6.33999998399304;635;100 mA
40.1320288986764;-0.699798583984375;-0.067108154296875;6.34999998396779;636;100 mA
40.1420288986511;-0.699737548828125;-0.066802978515625;6.35999998394254;637;100 mA
40.1520288986259;-0.69970703125;-0.066864013671875;6.3699999839173;638;100 mA
40.1620288986006;-0.69970703125;-0.06695556640625;6.37999998389205;639;100 mA
40.1720288985754;-0.699676513671875;-0.06707763671875;6.3899999838668;640;100 mA
40.1820288985501;-0.699737548828125;-0.066925048828125;6.39999998384155;641;100 mA
40.1920288985249;-0.699737548828125;-0.067047119140625;6.40999998381631;642;100 mA
40.2020288984996;-0.699737548828125;-0.066802978515625;6.41999998379106;643;100 mA
40.2120288984744;-0.69970703125;-0.0667724609375;6.42999998376581;644;100 mA
40.2220288984491;-0.699676513671875;-0.066436767578125;6.43999998374056;645;100 mA
40.2320288984239;-0.699737548828125;-0.066375732421875;6.44999998371532;646;100 mA
40.2420288983986;-0.69976806640625;-0.066436767578125;6.45999998369007;647;100 mA
40.2520288983734;-0.699676513671875;-0.06646728515625;6.46999998366482;648;100 mA
40.2620288983481;-0.69976806640625;-0.066680908203125;6.47999998363957;649;100 mA
40.2720288983229;-0.699798583984375;-0.066986083984375;6.48999998361433;650;100 mA
40.2820288982977;-0.69976806640625;-0.066925048828125;6.49999998358908;651;100 mA
40.2920288982724;-0.699737548828125;-0.06695556640625;6.50999998356383;652;100 mA
40.3020288982472;-0.69976806640625;-0.066802978515625;6.51999998353858;653;100 mA
40.3120288982219;-0.699737548828125;-0.066802978515625;6.52999998351333;654;100 mA
40.3220288981967;-0.69976806640625;-0.0667724609375;6.53999998348809;655;100 mA
40.3320288981714;-0.69970703125;-0.0665283203125;6.54999998346284;656;100 mA
40.3420288981462;-0.69970703125;-0.06640625;6.55999998343759;657;100 mA
40.3520288981209;-0.69976806640625;-0.066680908203125;6.56999998341234;658;100 mA
40.3620288980957;-0.699676513671875;-0.06658935546875;6.5799999833871;659;100 mA
40.3720288980704;-0.699676513671875;-0.0667724609375;6.58999998336185;660;100 mA
40.3820288980452;-0.699737548828125;-0.066497802734375;6.5999999833366;661;100 mA
40.3920288980199;-0.699737548828125;-0.06646728515625;6.60999998331135;662;100 mA
40.4020288979947;-0.699737548828125;-0.06646728515625;6.61999998328611;663;100 mA
40.4120288979694;-0.699737548828125;-0.066619873046875;6.62999998326086;664;100 mA
40.4220288979442;-0.699676513671875;-0.066497802734375;6.63999998323561;665;100 mA
40.4320288979189;-0.69970703125;-0.066864013671875;6.64999998321036;666;100 mA
40.4420288978937;-0.699676513671875;-0.0665283203125;6.65999998318512;667;100 mA
40.4520288978684;-0.699676513671875;-0.066741943359375;6.66999998315987;668;100 mA
40.4620288978432;-0.699676513671875;-0.066375732421875;6.67999998313462;669;100 mA
40.4720288978179;-0.69970703125;-0.06658935546875;6.68999998310937;670;100 mA
40.4820288977927;-0.699676513671875;-0.066497802734375;6.69999998308413;671;100 mA
40.4920288977675;-0.69970703125;-0.066619873046875;6.70999998305888;672;100 mA
40.5020288977422;-0.69976806640625;-0.066680908203125;6.71999998303363;673;100 mA
40.512028897717;-0.699737548828125;-0.067291259765625;6.72999998300838;674;100 mA
40.5220288976917;-0.69970703125;-0.067169189453125;6.73999998298314;675;100 mA
40.5320288976665;-0.699737548828125;-0.067413330078125;6.74999998295789;676;100 mA
40.5420288976412;-0.699737548828125;-0.06719970703125;6.75999998293264;677;100 mA
40.552028897616;-0.69970703125;-0.067291259765625;6.76999998290739;678;100 mA
40.5620288975907;-0.699676513671875;-0.0673828125;6.77999998288215;679;100 mA
40.5720288975655;-0.69970703125;-0.067474365234375;6.7899999828569;680;100 mA
40.5820288975402;-0.699798583984375;-0.067352294921875;6.79999998283165;681;100 mA
40.592028897515;-0.699676513671875;-0.06756591796875;6.8099999828064;682;100 mA
40.6020288974897;-0.69970703125;-0.0675048828125;6.81999998278116;683;100 mA
40.6120288974645;-0.699676513671875;-0.067596435546875;6.82999998275591;684;100 mA
40.6220288974392;-0.69970703125;-0.0673828125;6.83999998273066;685;100 mA
40.632028897414;-0.69970703125;-0.067291259765625;6.84999998270541;686;100 mA
40.6420288973887;-0.699737548828125;-0.06719970703125;6.85999998268016;687;100 mA
40.6520288973635;-0.699737548828125;-0.067108154296875;6.86999998265492;688;100 mA
40.6620288973382;-0.699737548828125;-0.067108154296875;6.87999998262967;689;100 mA
40.672028897313;-0.699737548828125;-0.067291259765625;6.88999998260442;690;100 mA
40.6820288972878;-0.69970703125;-0.067108154296875;6.89999998257917;691;100 mA
40.6920288972625;-0.699737548828125;-0.06719970703125;6.90999998255393;692;100 mA
40.7020288972373;-0.699737548828125;-0.067138671875;6.91999998252868;693;100 mA
40.712028897212;-0.69976806640625;-0.06732177734375;6.92999998250343;694;100 mA
40.7220288971868;-0.69970703125;-0.06744384765625;6.93999998247818;695;100 mA
40.7320288971615;-0.699676513671875;-0.06732177734375;6.94999998245294;696;100 mA
40.7420288971363;-0.69970703125;-0.06732177734375;6.95999998242769;697;100 mA
40.752028897111;-0.699737548828125;-0.067657470703125;6.96999998240244;698;100 mA
40.7620288970858;-0.699737548828125;-0.067596435546875;6.97999998237719;699;100 mA
40.7720288970605;-0.69964599609375;-0.06781005859375;6.98999998235195;700;100 mA
40.7820288970353;-0.69970703125;-0.06756591796875;6.9999999823267;701;100 mA
40.79202889701;-0.699676513671875;-0.0675048828125;7.00999998230145;702;100 mA
40.8020288969848;-0.699676513671875;-0.067474365234375;7.0199999822762;703;100 mA
40.8120288969595;-0.699737548828125;-0.067535400390625;7.02999998225096;704;100 mA
40.8220288969343;-0.69976806640625;-0.0673828125;7.03999998222571;705;100 mA
40.832028896909;-0.69970703125;-0.067657470703125;7.04999998220046;706;100 mA
40.8420288968838;-0.699676513671875;-0.06732177734375;7.05999998217521;707;100 mA
40.8520288968585;-0.69970703125;-0.067535400390625;7.06999998214997;708;100 mA
40.8620288968333;-0.699676513671875;-0.0672607421875;7.07999998212472;709;100 mA
40.872028896808;-0.699737548828125;-0.0673828125;7.08999998209947;710;100 mA
40.8820288967828;-0.69970703125;-0.06719970703125;7.09999998207422;711;100 mA
40.8920288967576;-0.69970703125;-0.067230224609375;7.10999998204898;712;100 mA
40.9020288967323;-0.69964599609375;-0.06719970703125;7.11999998202373;713;100 mA
40.9120288967071;-0.69970703125;-0.067657470703125;7.12999998199848;714;100 mA
40.9220288966818;-0.699737548828125;-0.067413330078125;7.13999998197323;715;100 mA
40.9320288966566;-0.69970703125;-0.067535400390625;7.14999998194799;716;100 mA
40.9420288966313;-0.69976806640625;-0.067230224609375;7.15999998192274;717;100 mA
40.9520288966061;-0.699737548828125;-0.067230224609375;7.16999998189749;718;100 mA
40.9620288965808;-0.699676513671875;-0.0672607421875;7.17999998187224;719;100 mA
40.9720288965556;-0.699737548828125;-0.067413330078125;7.189999981847;720;100 mA
40.9820288965303;-0.69970703125;-0.0673828125;7.19999998182175;721;100 mA
40.9920288965051;-0.69970703125;-0.067626953125;7.2099999817965;722;100 mA
41.0020288964798;-0.699737548828125;-0.06756591796875;7.21999998177125;723;100 mA
41.0120288964546;-0.699737548828125;-0.06768798828125;7.229999981746;724;100 mA
41.0220288964293;-0.699737548828125;-0.06744384765625;7.23999998172076;725;100 mA
41.0320288964041;-0.69970703125;-0.067352294921875;7.24999998169551;726;100 mA
41.0420288963788;-0.69970703125;-0.067352294921875;7.25999998167026;727;100 mA
41.0520288963536;-0.699737548828125;-0.067291259765625;7.26999998164501;728;100 mA
41.0620288963283;-0.69970703125;-0.0673828125;7.27999998161977;729;100 mA
41.0720288963031;-0.699798583984375;-0.067535400390625;7.28999998159452;730;100 mA
41.0820288962778;-0.69970703125;-0.067352294921875;7.29999998156927;731;100 mA
41.0920288962526;-0.69970703125;-0.06732177734375;7.30999998154402;732;100 mA
41.1020288962274;-0.699737548828125;-0.067108154296875;7.31999998151878;733;100 mA
41.1120288962021;-0.69976806640625;-0.06707763671875;7.32999998149353;734;100 mA
41.1220288961769;-0.699737548828125;-0.06707763671875;7.33999998146828;735;100 mA
41.1320288961516;-0.699676513671875;-0.0667724609375;7.34999998144303;736;100 mA
41.1420288961264;-0.699737548828125;-0.066680908203125;7.35999998141779;737;100 mA
41.1520288961011;-0.69970703125;-0.066864013671875;7.36999998139254;738;100 mA
41.1620288960759;-0.69964599609375;-0.066650390625;7.37999998136729;739;100 mA
41.1720288960506;-0.699676513671875;-0.066741943359375;7.38999998134204;740;100 mA
41.1820288960254;-0.699737548828125;-0.066314697265625;7.3999999813168;741;100 mA
41.1920288960001;-0.69976806640625;-0.066192626953125;7.40999998129155;742;100 mA
41.2020288959749;-0.699676513671875;-0.06610107421875;7.4199999812663;743;100 mA
41.2120288959496;-0.699737548828125;-0.066131591796875;7.42999998124105;744;100 mA
41.2220288959244;-0.699737548828125;-0.06591796875;7.43999998121581;745;100 mA
41.2320288958991;-0.699737548828125;-0.066192626953125;7.44999998119056;746;100 mA
41.2420288958739;-0.69964599609375;-0.06585693359375;7.45999998116531;747;100 mA
41.2520288958486;-0.69964599609375;-0.066070556640625;7.46999998114006;748;100 mA
41.2620288958234;-0.69970703125;-0.065765380859375;7.47999998111482;749;100 mA
41.2720288957981;-0.699737548828125;-0.06591796875;7.48999998108957;750;100 mA
41.2820288957729;-0.69976806640625;-0.065826416015625;7.49999998106432;751;100 mA
41.2920288957476;-0.69976806640625;-0.06591796875;7.50999998103907;752;100 mA
41.3020288957224;-0.69970703125;-0.06597900390625;7.51999998101383;753;100 mA
41.3120288956972;-0.699737548828125;-0.066436767578125;7.52999998098858;754;100 mA
41.3220288956719;-0.699737548828125;-0.06634521484375;7.53999998096333;755;100 mA
41.3320288956467;-0.699676513671875;-0.0665283203125;7.54999998093808;756;100 mA
41.3420288956214;-0.699737548828125;-0.066314697265625;7.55999998091283;757;100 mA
41.3520288955962;-0.69970703125;-0.06634521484375;7.56999998088759;758;100 mA
41.3620288955709;-0.69970703125;-0.066436767578125;7.57999998086234;759;100 mA
41.3720288955457;-0.699676513671875;-0.06646728515625;7.58999998083709;760;100 mA
41.3820288955204;-0.699737548828125;-0.066375732421875;7.59999998081184;761;100 mA
41.3920288954952;-0.699737548828125;-0.066558837890625;7.6099999807866;762;100 mA
41.4020288954699;-0.699737548828125;-0.066558837890625;7.61999998076135;763;100 mA
41.4120288954447;-0.699737548828125;-0.066680908203125;7.6299999807361;764;100 mA
41.4220288954194;-0.699737548828125;-0.0665283203125;7.63999998071085;765;100 mA
41.4320288953942;-0.69970703125;-0.066497802734375;7.64999998068561;766;100 mA
41.4420288953689;-0.699737548828125;-0.066558837890625;7.65999998066036;767;100 mA
41.4520288953437;-0.69970703125;-0.0665283203125;7.66999998063511;768;100 mA
41.4620288953184;-0.699737548828125;-0.066650390625;7.67999998060986;769;100 mA
41.4720288952932;-0.69970703125;-0.066802978515625;7.68999998058462;770;100 mA
41.4820288952679;-0.69970703125;-0.06671142578125;7.69999998055937;771;100 mA
41.4920288952427;-0.699737548828125;-0.066741943359375;7.70999998053412;772;100 mA
41.5020288952174;-0.699737548828125;-0.06658935546875;7.71999998050887;773;100 mA
41.5120288951922;-0.69970703125;-0.066558837890625;7.72999998048363;774;100 mA
41.522028895167;-0.699737548828125;-0.066497802734375;7.73999998045838;775;100 mA
41.5320288951417;-0.69970703125;-0.066253662109375;7.74999998043313;776;100 mA
41.5420288951165;-0.69970703125;-0.066162109375;7.75999998040788;777;100 mA
41.5520288950912;-0.69970703125;-0.066497802734375;7.76999998038264;778;100 mA
41.562028895066;-0.69970703125;-0.066375732421875;7.77999998035739;779;100 mA
41.5720288950407;-0.699737548828125;-0.06658935546875;7.78999998033214;780;100 mA
41.5820288950155;-0.69970703125;-0.06634521484375;7.79999998030689;781;100 mA
41.5920288949902;-0.69976806640625;-0.06634521484375;7.80999998028165;782;100 mA
41.602028894965;-0.69970703125;-0.066314697265625;7.8199999802564;783;100 mA
41.6120288949397;-0.69970703125;-0.066375732421875;7.82999998023115;784;100 mA
41.6220288949145;-0.699737548828125;-0.066192626953125;7.8399999802059;785;100 mA
41.6320288948892;-0.699737548828125;-0.066436767578125;7.84999998018066;786;100 mA
41.642028894864;-0.69970703125;-0.066162109375;7.85999998015541;787;100 mA
41.6520288948387;-0.699737548828125;-0.066375732421875;7.86999998013016;788;100 mA
41.6620288948135;-0.69976806640625;-0.0660400390625;7.87999998010491;789;100 mA
41.6720288947882;-0.699737548828125;-0.066131591796875;7.88999998007966;790;100 mA
41.682028894763;-0.69970703125;-0.06591796875;7.89999998005442;791;100 mA
41.6920288947377;-0.699737548828125;-0.065948486328125;7.90999998002917;792;100 mA
41.7020288947125;-0.69970703125;-0.065948486328125;7.91999998000392;793;100 mA
41.7120288946873;-0.699676513671875;-0.066375732421875;7.92999997997867;794;100 mA
41.722028894662;-0.69970703125;-0.066162109375;7.93999997995343;795;100 mA
41.7320288946368;-0.699676513671875;-0.066314697265625;7.94999997992818;796;100 mA
41.7420288946115;-0.69970703125;-0.06610107421875;7.95999997990293;797;100 mA
41.7520288945863;-0.69970703125;-0.06610107421875;7.96999997987768;798;100 mA
41.762028894561;-0.699737548828125;-0.066070556640625;7.97999997985244;799;100 mA
41.7720288945358;-0.699676513671875;-0.066070556640625;7.98999997982719;800;100 mA
41.7820288945105;-0.69970703125;-0.06597900390625;7.99999997980194;801;100 mA
41.7920288944853;-0.699676513671875;-0.066314697265625;8.00999997977669;802;100 mA
41.80202889446;-0.699737548828125;-0.06646728515625;8.01999997975145;803;100 mA
41.8120288944348;-0.699676513671875;-0.0667724609375;8.0299999797262;804;100 mA
41.8220288944095;-0.699737548828125;-0.0667724609375;8.03999997970095;805;100 mA
41.8320288943843;-0.69976806640625;-0.066802978515625;8.0499999796757;806;100 mA
41.842028894359;-0.69964599609375;-0.06689453125;8.05999997965046;807;100 mA
41.8520288943338;-0.699798583984375;-0.06683349609375;8.06999997962521;808;100 mA
41.8620288943085;-0.699737548828125;-0.066864013671875;8.07999997959996;809;100 mA
41.8720288942833;-0.69970703125;-0.06695556640625;8.08999997957471;810;100 mA
41.882028894258;-0.699737548828125;-0.066802978515625;8.09999997954947;811;100 mA
41.8920288942328;-0.699737548828125;-0.066864013671875;8.10999997952422;812;100 mA
41.9020288942075;-0.699676513671875;-0.066802978515625;8.11999997949897;813;100 mA
41.9120288941823;-0.699737548828125;-0.066864013671875;8.12999997947372;814;100 mA
41.9220288941571;-0.699676513671875;-0.06689453125;8.13999997944848;815;100 mA
41.9320288941318;-0.699737548828125;-0.066802978515625;8.14999997942323;816;100 mA
41.9420288941066;-0.699737548828125;-0.06683349609375;8.15999997939798;817;100 mA
41.9520288940813;-0.699737548828125;-0.067291259765625;8.16999997937273;818;100 mA
41.9620288940561;-0.699676513671875;-0.0672607421875;8.17999997934749;819;100 mA
41.9720288940308;-0.69970703125;-0.0675048828125;8.18999997932224;820;100 mA
41.9820288940056;-0.699676513671875;-0.067291259765625;8.19999997929699;821;100 mA
41.9920288939803;-0.699737548828125;-0.067291259765625;8.20999997927174;822;100 mA
42.0020288939551;-0.699676513671875;-0.067291259765625;8.2199999792465;823;100 mA
42.0120288939298;-0.69976806640625;-0.067413330078125;8.22999997922125;824;100 mA
42.0220288939046;-0.699737548828125;-0.067291259765625;8.239999979196;825;100 mA
42.0320288938793;-0.699737548828125;-0.067657470703125;8.24999997917075;826;100 mA
42.0420288938541;-0.699676513671875;-0.067535400390625;8.2599999791455;827;100 mA
42.0520288938288;-0.69970703125;-0.067901611328125;8.26999997912026;828;100 mA
42.0620288938036;-0.69970703125;-0.067779541015625;8.27999997909501;829;100 mA
42.0720288937783;-0.69976806640625;-0.068023681640625;8.28999997906976;830;100 mA
42.0820288937531;-0.69970703125;-0.067962646484375;8.29999997904451;831;100 mA
42.0920288937278;-0.699737548828125;-0.068084716796875;8.30999997901927;832;100 mA
42.1020288937026;-0.69970703125;-0.068145751953125;8.31999997899402;833;100 mA
42.1120288936773;-0.699737548828125;-0.068634033203125;8.32999997896877;834;100 mA
42.1220288936521;-0.699798583984375;-0.06854248046875;8.33999997894352;835;100 mA
42.1320288936269;-0.699676513671875;-0.068878173828125;8.34999997891828;836;100 mA
42.1420288936016;-0.69970703125;-0.06878662109375;8.35999997889303;837;100 mA
42.1520288935764;-0.69976806640625;-0.068878173828125;8.36999997886778;838;100 mA
42.1620288935511;-0.699676513671875;-0.068817138671875;8.37999997884253;839;100 mA
42.1720288935259;-0.69970703125;-0.068817138671875;8.38999997881729;840;100 mA
42.1820288935006;-0.69976806640625;-0.068695068359375;8.39999997879204;841;100 mA
42.1920288934754;-0.699737548828125;-0.068878173828125;8.40999997876679;842;100 mA
42.2020288934501;-0.699676513671875;-0.06890869140625;8.41999997874154;843;100 mA
42.2120288934249;-0.69970703125;-0.069091796875;8.4299999787163;844;100 mA
42.2220288933996;-0.69976806640625;-0.069000244140625;8.43999997869105;845;100 mA
42.2320288933744;-0.69976806640625;-0.06890869140625;8.4499999786658;846;100 mA
42.2420288933491;-0.699737548828125;-0.06884765625;8.45999997864055;847;100 mA
42.2520288933239;-0.69970703125;-0.068756103515625;8.46999997861531;848;100 mA
42.2620288932986;-0.699676513671875;-0.068756103515625;8.47999997859006;849;100 mA
42.2720288932734;-0.699737548828125;-0.068817138671875;8.48999997856481;850;100 mA
42.2820288932481;-0.69970703125;-0.068450927734375;8.49999997853956;851;100 mA
42.2920288932229;-0.69970703125;-0.068389892578125;8.50999997851432;852;100 mA
42.3020288931976;-0.69970703125;-0.068206787109375;8.51999997848907;853;100 mA
42.3120288931724;-0.699737548828125;-0.068145751953125;8.52999997846382;854;100 mA
42.3220288931471;-0.69970703125;-0.0679931640625;8.53999997843857;855;100 mA
42.3320288931219;-0.699737548828125;-0.06768798828125;8.54999997841333;856;100 mA
42.3420288930967;-0.69970703125;-0.067474365234375;8.55999997838808;857;100 mA
42.3520288930714;-0.699676513671875;-0.06768798828125;8.56999997836283;858;100 mA
42.3620288930462;-0.699676513671875;-0.06744384765625;8.57999997833758;859;100 mA
42.3720288930209;-0.69970703125;-0.06756591796875;8.58999997831233;860;100 mA
42.3820288929957;-0.699676513671875;-0.067230224609375;8.59999997828709;861;100 mA
42.3920288929704;-0.699737548828125;-0.067108154296875;8.60999997826184;862;100 mA
42.4020288929452;-0.699737548828125;-0.0670166015625;8.61999997823659;863;100 mA
42.4120288929199;-0.69970703125;-0.06707763671875;8.62999997821134;864;100 mA
42.4220288928947;-0.69976806640625;-0.06683349609375;8.6399999781861;865;100 mA
42.4320288928694;-0.69976806640625;-0.0670166015625;8.64999997816085;866;100 mA
42.4420288928442;-0.699737548828125;-0.066619873046875;8.6599999781356;867;100 mA
42.4520288928189;-0.69976806640625;-0.066741943359375;8.66999997811035;868;100 mA
42.4620288927937;-0.69976806640625;-0.066375732421875;8.67999997808511;869;100 mA
42.4720288927684;-0.699737548828125;-0.06640625;8.68999997805986;870;100 mA
42.4820288927432;-0.69970703125;-0.066253662109375;8.69999997803461;871;100 mA
42.4920288927179;-0.69970703125;-0.066314697265625;8.70999997800936;872;100 mA
42.5020288926927;-0.69976806640625;-0.0662841796875;8.71999997798412;873;100 mA
42.5120288926674;-0.699737548828125;-0.066619873046875;8.72999997795887;874;100 mA
42.5220288926422;-0.699676513671875;-0.066497802734375;8.73999997793362;875;100 mA
42.5320288926169;-0.699676513671875;-0.066619873046875;8.74999997790837;876;100 mA
42.5420288925917;-0.69970703125;-0.066375732421875;8.75999997788313;877;100 mA
42.5520288925665;-0.699737548828125;-0.06640625;8.76999997785788;878;100 mA
42.5620288925412;-0.699676513671875;-0.066436767578125;8.77999997783263;879;100 mA
42.572028892516;-0.69976806640625;-0.066497802734375;8.78999997780738;880;100 mA
42.5820288924907;-0.69970703125;-0.06640625;8.79999997778214;881;100 mA
42.5920288924655;-0.699737548828125;-0.066619873046875;8.80999997775689;882;100 mA
42.6020288924402;-0.69970703125;-0.066619873046875;8.81999997773164;883;100 mA
42.612028892415;-0.699737548828125;-0.0667724609375;8.82999997770639;884;100 mA
42.6220288923897;-0.699798583984375;-0.066650390625;8.83999997768115;885;100 mA
42.6320288923645;-0.69970703125;-0.066619873046875;8.8499999776559;886;100 mA
42.6420288923392;-0.69970703125;-0.066619873046875;8.85999997763065;887;100 mA
42.652028892314;-0.69970703125;-0.066558837890625;8.8699999776054;888;100 mA
42.6620288922887;-0.699676513671875;-0.06658935546875;8.87999997758016;889;100 mA
42.6720288922635;-0.699737548828125;-0.066802978515625;8.88999997755491;890;100 mA
42.6820288922382;-0.699676513671875;-0.066680908203125;8.89999997752966;891;100 mA
42.692028892213;-0.699737548828125;-0.0667724609375;8.90999997750441;892;100 mA
42.7020288921877;-0.699737548828125;-0.066680908203125;8.91999997747916;893;100 mA
42.7120288921625;-0.69970703125;-0.066741943359375;8.92999997745392;894;100 mA
42.7220288921372;-0.699676513671875;-0.066680908203125;8.93999997742867;895;100 mA
42.732028892112;-0.69970703125;-0.06640625;8.94999997740342;896;100 mA
42.7420288920868;-0.699676513671875;-0.06622314453125;8.95999997737817;897;100 mA
42.7520288920615;-0.699737548828125;-0.06640625;8.96999997735293;898;100 mA
42.7620288920363;-0.69964599609375;-0.066162109375;8.97999997732768;899;100 mA
42.772028892011;-0.699737548828125;-0.066253662109375;8.98999997730243;900;100 mA
42.7820288919858;-0.69970703125;-0.06597900390625;8.99999997727718;901;100 mA
42.7920288919605;-0.69976806640625;-0.065948486328125;9.00999997725194;902;100 mA
42.8020288919353;-0.699798583984375;-0.065887451171875;9.01999997722669;903;100 mA
42.81202889191;-0.69970703125;-0.06591796875;9.02999997720144;904;100 mA
42.8220288918848;-0.69976806640625;-0.065704345703125;9.03999997717619;905;100 mA
42.8320288918595;-0.69970703125;-0.06591796875;9.04999997715095;906;100 mA
42.8420288918343;-0.699798583984375;-0.06561279296875;9.0599999771257;907;100 mA
42.852028891809;-0.699737548828125;-0.065673828125;9.06999997710045;908;100 mA
42.8620288917838;-0.69976806640625;-0.0653076171875;9.0799999770752;909;100 mA
42.8720288917585;-0.699737548828125;-0.065277099609375;9.08999997704996;910;100 mA
42.8820288917333;-0.69970703125;-0.06512451171875;9.09999997702471;911;100 mA
42.892028891708;-0.699737548828125;-0.065185546875;9.10999997699946;912;100 mA
42.9020288916828;-0.69976806640625;-0.065216064453125;9.11999997697421;913;100 mA
42.9120288916575;-0.69970703125;-0.065582275390625;9.12999997694897;914;100 mA
42.9220288916323;-0.69970703125;-0.0655517578125;9.13999997692372;915;100 mA
42.932028891607;-0.699676513671875;-0.065826416015625;9.14999997689847;916;100 mA
42.9420288915818;-0.69970703125;-0.065765380859375;9.15999997687322;917;100 mA
42.9520288915566;-0.69970703125;-0.06585693359375;9.16999997684798;918;100 mA
42.9620288915313;-0.69970703125;-0.065948486328125;9.17999997682273;919;100 mA
42.9720288915061;-0.699737548828125;-0.065948486328125;9.18999997679748;920;100 mA
42.9820288914808;-0.699676513671875;-0.06585693359375;9.19999997677223;921;100 mA
42.9920288914556;-0.69970703125;-0.065948486328125;9.20999997674699;922;100 mA
43.0020288914303;-0.699737548828125;-0.065887451171875;9.21999997672174;923;100 mA
43.0120288914051;-0.699676513671875;-0.065948486328125;9.22999997669649;924;100 mA
43.0220288913798;-0.69976806640625;-0.065765380859375;9.23999997667124;925;100 mA
43.0320288913546;-0.69970703125;-0.065704345703125;9.249999976646;926;100 mA
43.0420288913293;-0.699737548828125;-0.065704345703125;9.25999997662075;927;100 mA
43.0520288913041;-0.699737548828125;-0.065704345703125;9.2699999765955;928;100 mA
43.0620288912788;-0.699676513671875;-0.06573486328125;9.27999997657025;929;100 mA
43.0720288912536;-0.699737548828125;-0.06591796875;9.289999976545;930;100 mA
43.0820288912283;-0.69970703125;-0.06573486328125;9.29999997651976;931;100 mA
43.0920288912031;-0.69970703125;-0.06585693359375;9.30999997649451;932;100 mA
43.1020288911778;-0.699676513671875;-0.065704345703125;9.31999997646926;933;100 mA
43.1120288911526;-0.699676513671875;-0.06573486328125;9.32999997644401;934;100 mA
43.1220288911273;-0.69970703125;-0.065643310546875;9.33999997641877;935;100 mA
43.1320288911021;-0.69970703125;-0.065460205078125;9.34999997639352;936;100 mA
43.1420288910768;-0.69970703125;-0.0653076171875;9.35999997636827;937;100 mA
43.1520288910516;-0.69976806640625;-0.065643310546875;9.36999997634302;938;100 mA
43.1620288910264;-0.699737548828125;-0.06549072265625;9.37999997631778;939;100 mA
43.1720288910011;-0.699676513671875;-0.06573486328125;9.38999997629253;940;100 mA
43.1820288909759;-0.699676513671875;-0.0655517578125;9.39999997626728;941;100 mA
43.1920288909506;-0.69976806640625;-0.065582275390625;9.40999997624203;942;100 mA
43.2020288909254;-0.69976806640625;-0.065521240234375;9.41999997621679;943;100 mA
43.2120288909001;-0.69970703125;-0.0655517578125;9.42999997619154;944;100 mA
43.2220288908749;-0.699798583984375;-0.065277099609375;9.43999997616629;945;100 mA
43.2320288908496;-0.699676513671875;-0.0654296875;9.44999997614104;946;100 mA
43.2420288908244;-0.69970703125;-0.065185546875;9.4599999761158;947;100 mA
43.2520288907991;-0.69976806640625;-0.065338134765625;9.46999997609055;948;100 mA
43.2620288907739;-0.69976806640625;-0.065093994140625;9.4799999760653;949;100 mA
43.2720288907486;-0.699737548828125;-0.065155029296875;9.48999997604005;950;100 mA
43.2820288907234;-0.69976806640625;-0.065032958984375;9.49999997601481;951;100 mA
43.2920288906981;-0.699676513671875;-0.06512451171875;9.50999997598956;952;100 mA
43.3020288906729;-0.69970703125;-0.065155029296875;9.51999997596431;953;100 mA
43.3120288906476;-0.69976806640625;-0.065460205078125;9.52999997593906;954;100 mA
43.3220288906224;-0.69976806640625;-0.06536865234375;9.53999997591382;955;100 mA
43.3320288905971;-0.699737548828125;-0.065521240234375;9.54999997588857;956;100 mA
43.3420288905719;-0.699737548828125;-0.065338134765625;9.55999997586332;957;100 mA
43.3520288905466;-0.699737548828125;-0.0654296875;9.56999997583807;958;100 mA
43.3620288905214;-0.69970703125;-0.06549072265625;9.57999997581283;959;100 mA
43.3720288904962;-0.69970703125;-0.065521240234375;9.58999997578758;960;100 mA
43.3820288904709;-0.699737548828125;-0.065460205078125;9.59999997576233;961;100 mA
43.3920288904457;-0.69970703125;-0.06561279296875;9.60999997573708;962;100 mA
43.4020288904204;-0.69970703125;-0.065643310546875;9.61999997571183;963;100 mA
43.4120288903952;-0.69970703125;-0.065765380859375;9.62999997568659;964;100 mA
43.4220288903699;-0.69970703125;-0.065582275390625;9.63999997566134;965;100 mA
43.4320288903447;-0.69976806640625;-0.06536865234375;9.64999997563609;966;100 mA
43.4420288903194;-0.699737548828125;-0.065216064453125;9.65999997561084;967;100 mA
43.4520288902942;-0.699737548828125;-0.065032958984375;9.6699999755856;968;100 mA
43.4620288902689;-0.699737548828125;-0.064910888671875;9.67999997556035;969;100 mA
43.4720288902437;-0.69976806640625;-0.065032958984375;9.6899999755351;970;100 mA
43.4820288902184;-0.69970703125;-0.0648193359375;9.69999997550985;971;100 mA
43.4920288901932;-0.69976806640625;-0.064910888671875;9.70999997548461;972;100 mA
43.5020288901679;-0.699798583984375;-0.064788818359375;9.71999997545936;973;100 mA
43.5120288901427;-0.699676513671875;-0.064849853515625;9.72999997543411;974;100 mA
43.5220288901174;-0.699676513671875;-0.064788818359375;9.73999997540886;975;100 mA
43.5320288900922;-0.69970703125;-0.06463623046875;9.74999997538362;976;100 mA
43.5420288900669;-0.69964599609375;-0.064483642578125;9.75999997535837;977;100 mA
43.5520288900417;-0.699676513671875;-0.06475830078125;9.76999997533312;978;100 mA
43.5620288900164;-0.69970703125;-0.0645751953125;9.77999997530787;979;100 mA
43.5720288899912;-0.699676513671875;-0.064727783203125;9.78999997528263;980;100 mA
43.582028889966;-0.6998291015625;-0.064453125;9.79999997525738;981;100 mA
43.5920288899407;-0.699737548828125;-0.064453125;9.80999997523213;982;100 mA
43.6020288899155;-0.69970703125;-0.064453125;9.81999997520688;983;100 mA
43.6120288898902;-0.69970703125;-0.0645751953125;9.82999997518164;984;100 mA
43.622028889865;-0.69976806640625;-0.064422607421875;9.83999997515639;985;100 mA
43.6320288898397;-0.69970703125;-0.064666748046875;9.84999997513114;986;100 mA
43.6420288898145;-0.699676513671875;-0.06451416015625;9.85999997510589;987;100 mA
43.6520288897892;-0.699737548828125;-0.064727783203125;9.86999997508065;988;100 mA
43.662028889764;-0.699737548828125;-0.06451416015625;9.8799999750554;989;100 mA
43.6720288897387;-0.69976806640625;-0.064605712890625;9.88999997503015;990;100 mA
43.6820288897135;-0.69970703125;-0.064483642578125;9.8999999750049;991;100 mA
43.6920288896882;-0.699676513671875;-0.064544677734375;9.90999997497966;992;100 mA
43.702028889663;-0.69970703125;-0.06451416015625;9.91999997495441;993;100 mA
43.7120288896377;-0.69970703125;-0.0648193359375;9.92999997492916;994;100 mA
43.7220288896125;-0.69970703125;-0.064788818359375;9.93999997490391;995;100 mA
43.7320288895872;-0.69970703125;-0.064971923828125;9.94999997487866;996;100 mA
43.742028889562;-0.699676513671875;-0.064849853515625;9.95999997485342;997;100 mA
43.7520288895367;-0.699737548828125;-0.06494140625;9.96999997482817;998;100 mA
43.7620288895115;-0.699737548828125;-0.0650634765625;9.97999997480292;999;100 mA
43.7720288894863;-0.699737548828125;-0.065155029296875;9.98999997477767;1000;100 mA
