Time (s);WE(1).Potential (V);WE(1).Current (A);Corrected time (s);Index;Current range
74.4153398121193;-0.8001708984375;-0.34222412109375;0;1;100 mA
74.4253398120941;-0.79986572265625;-0.25311279296875;0.00999999997475243;2;100 mA
74.4353398120688;-0.799560546875;-0.209259033203125;0.0199999999495049;3;100 mA
74.4453398120436;-0.799560546875;-0.181976318359375;0.0299999999242573;4;100 mA
74.4553398120183;-0.79986572265625;-0.164093017578125;0.0399999998990097;5;100 mA
74.4653398119931;-0.8001708984375;-0.150665283203125;0.0499999998737621;6;100 mA
74.4753398119678;-0.79925537109375;-0.140045166015625;0.0599999998485146;7;100 mA
74.4853398119426;-0.79986572265625;-0.13189697265625;0.069999999823267;8;100 mA
74.4953398119173;-0.79986572265625;-0.12493896484375;0.0799999997980194;9;100 mA
74.5053398118921;-0.79986572265625;-0.118988037109375;0.0899999997727718;10;100 mA
74.5153398118669;-0.79925537109375;-0.11370849609375;0.0999999997475243;11;100 mA
74.5253398118416;-0.799560546875;-0.109283447265625;0.109999999722277;12;100 mA
74.5353398118164;-0.799560546875;-0.105743408203125;0.119999999697029;13;100 mA
74.5453398117911;-0.79925537109375;-0.102813720703125;0.129999999671782;14;100 mA
74.5553398117659;-0.79986572265625;-0.10003662109375;0.139999999646534;15;100 mA
74.5653398117406;-0.79986572265625;-0.09808349609375;0.149999999621286;16;100 mA
74.5753398117154;-0.799560546875;-0.096649169921875;0.159999999596039;17;100 mA
74.5853398116901;-0.799560546875;-0.094879150390625;0.169999999570791;18;100 mA
74.5953398116649;-0.79925537109375;-0.0928955078125;0.179999999545544;19;100 mA
74.6053398116396;-0.799560546875;-0.09112548828125;0.189999999520296;20;100 mA
74.6153398116144;-0.799560546875;-0.08990478515625;0.199999999495049;21;100 mA
74.6253398115891;-0.799560546875;-0.088958740234375;0.209999999469801;22;100 mA
74.6353398115639;-0.799560546875;-0.087921142578125;0.219999999444553;23;100 mA
74.6453398115386;-0.799560546875;-0.0870361328125;0.229999999419306;24;100 mA
74.6553398115134;-0.79925537109375;-0.086151123046875;0.239999999394058;25;100 mA
74.6653398114881;-0.799560546875;-0.085479736328125;0.249999999368811;26;100 mA
74.6753398114629;-0.7989501953125;-0.08441162109375;0.259999999343563;27;100 mA
74.6853398114376;-0.79925537109375;-0.08343505859375;0.269999999318316;28;100 mA
74.6953398114124;-0.799560546875;-0.08294677734375;0.279999999293068;29;100 mA
74.7053398113871;-0.799560546875;-0.082427978515625;0.28999999926782;30;100 mA
74.7153398113619;-0.799560546875;-0.081939697265625;0.299999999242573;31;100 mA
74.7253398113367;-0.79986572265625;-0.0821533203125;0.309999999217325;32;100 mA
74.7353398113114;-0.79925537109375;-0.081756591796875;0.319999999192078;33;100 mA
74.7453398112862;-0.7989501953125;-0.081573486328125;0.32999999916683;34;100 mA
74.7553398112609;-0.79986572265625;-0.080535888671875;0.339999999141583;35;100 mA
74.7653398112357;-0.7989501953125;-0.0799560546875;0.349999999116335;36;100 mA
74.7753398112104;-0.7989501953125;-0.079742431640625;0.359999999091087;37;100 mA
74.7853398111852;-0.79986572265625;-0.079925537109375;0.36999999906584;38;100 mA
74.7953398111599;-0.79925537109375;-0.07916259765625;0.379999999040592;39;100 mA
74.8053398111347;-0.799560546875;-0.079376220703125;0.389999999015345;40;100 mA
74.8153398111094;-0.79986572265625;-0.078704833984375;0.399999998990097;41;100 mA
74.8253398110842;-0.7989501953125;-0.0789794921875;0.40999999896485;42;100 mA
74.8353398110589;-0.79986572265625;-0.07806396484375;0.419999998939602;43;100 mA
74.8453398110337;-0.799560546875;-0.0780029296875;0.429999998914354;44;100 mA
74.8553398110084;-0.79925537109375;-0.077545166015625;0.439999998889107;45;100 mA
74.8653398109832;-0.7989501953125;-0.078125;0.449999998863859;46;100 mA
74.8753398109579;-0.79925537109375;-0.077789306640625;0.459999998838612;47;100 mA
74.8853398109327;-0.79925537109375;-0.07855224609375;0.469999998813364;48;100 mA
74.8953398109074;-0.79925537109375;-0.07830810546875;0.479999998788116;49;100 mA
74.9053398108822;-0.79925537109375;-0.07843017578125;0.489999998762869;50;100 mA
74.9153398108569;-0.79986572265625;-0.07781982421875;0.499999998737621;51;100 mA
74.9253398108317;-0.799560546875;-0.07769775390625;0.509999998712374;52;100 mA
74.9353398108065;-0.79925537109375;-0.07763671875;0.519999998687126;53;100 mA
74.9453398107812;-0.79925537109375;-0.077850341796875;0.529999998661879;54;100 mA
74.955339810756;-0.799560546875;-0.077392578125;0.539999998636631;55;100 mA
74.9653398107307;-0.799560546875;-0.07745361328125;0.549999998611383;56;100 mA
74.9753398107055;-0.799560546875;-0.07763671875;0.559999998586136;57;100 mA
74.9853398106802;-0.799560546875;-0.077606201171875;0.569999998560888;58;100 mA
74.995339810655;-0.799560546875;-0.077178955078125;0.579999998535641;59;100 mA
75.0053398106297;-0.79925537109375;-0.07672119140625;0.589999998510393;60;100 mA
75.0153398106045;-0.799560546875;-0.076690673828125;0.599999998485146;61;100 mA
75.0253398105792;-0.799560546875;-0.076812744140625;0.609999998459898;62;100 mA
75.035339810554;-0.799560546875;-0.07647705078125;0.61999999843465;63;100 mA
75.0453398105287;-0.79986572265625;-0.076324462890625;0.629999998409403;64;100 mA
75.0553398105035;-0.799560546875;-0.0758056640625;0.639999998384155;65;100 mA
75.0653398104782;-0.79986572265625;-0.075775146484375;0.649999998358908;66;100 mA
75.075339810453;-0.799560546875;-0.0753173828125;0.65999999833366;67;100 mA
75.0853398104277;-0.79925537109375;-0.075042724609375;0.669999998308413;68;100 mA
75.0953398104025;-0.799560546875;-0.07513427734375;0.679999998283165;69;100 mA
75.1053398103772;-0.799560546875;-0.07513427734375;0.689999998257917;70;100 mA
75.115339810352;-0.7989501953125;-0.07476806640625;0.69999999823267;71;100 mA
75.1253398103268;-0.799560546875;-0.075103759765625;0.709999998207422;72;100 mA
75.1353398103015;-0.799560546875;-0.07452392578125;0.719999998182175;73;100 mA
75.1453398102763;-0.799560546875;-0.074432373046875;0.729999998156927;74;100 mA
75.155339810251;-0.799560546875;-0.073577880859375;0.73999999813168;75;100 mA
75.1653398102258;-0.799560546875;-0.073486328125;0.749999998106432;76;100 mA
75.1753398102005;-0.79986572265625;-0.073516845703125;0.759999998081184;77;100 mA
75.1853398101753;-0.799560546875;-0.0740966796875;0.769999998055937;78;100 mA
75.19533981015;-0.799560546875;-0.07366943359375;0.779999998030689;79;100 mA
75.2053398101248;-0.79925537109375;-0.074249267578125;0.789999998005442;80;100 mA
75.2153398100995;-0.799560546875;-0.073822021484375;0.799999997980194;81;100 mA
75.2253398100743;-0.7989501953125;-0.07427978515625;0.809999997954947;82;100 mA
75.235339810049;-0.79986572265625;-0.073516845703125;0.819999997929699;83;100 mA
75.2453398100238;-0.8001708984375;-0.073577880859375;0.829999997904451;84;100 mA
75.2553398099985;-0.79925537109375;-0.073333740234375;0.839999997879204;85;100 mA
75.2653398099733;-0.79925537109375;-0.074066162109375;0.849999997853956;86;100 mA
75.275339809948;-0.79986572265625;-0.073822021484375;0.859999997828709;87;100 mA
75.2853398099228;-0.79986572265625;-0.074554443359375;0.869999997803461;88;100 mA
75.2953398098975;-0.79986572265625;-0.07421875;0.879999997778214;89;100 mA
75.3053398098723;-0.799560546875;-0.07440185546875;0.889999997752966;90;100 mA
75.315339809847;-0.799560546875;-0.0738525390625;0.899999997727718;91;100 mA
75.3253398098218;-0.799560546875;-0.0738525390625;0.909999997702471;92;100 mA
75.3353398097966;-0.79925537109375;-0.07391357421875;0.919999997677223;93;100 mA
75.3453398097713;-0.799560546875;-0.07415771484375;0.929999997651976;94;100 mA
75.3553398097461;-0.79925537109375;-0.073699951171875;0.939999997626728;95;100 mA
75.3653398097208;-0.79986572265625;-0.0738525390625;0.949999997601481;96;100 mA
75.3753398096956;-0.799560546875;-0.073974609375;0.959999997576233;97;100 mA
75.3853398096703;-0.79925537109375;-0.07403564453125;0.969999997550985;98;100 mA
75.3953398096451;-0.79986572265625;-0.07366943359375;0.979999997525738;99;100 mA
75.4053398096198;-0.799560546875;-0.073394775390625;0.98999999750049;100;100 mA
75.4153398095946;-0.799560546875;-0.073577880859375;0.999999997475243;101;100 mA
75.4253398095693;-0.799560546875;-0.073974609375;1.00999999745;102;100 mA
75.4353398095441;-0.7989501953125;-0.073822021484375;1.01999999742475;103;100 mA
75.4453398095188;-0.79986572265625;-0.07379150390625;1.0299999973995;104;100 mA
75.4553398094936;-0.799560546875;-0.07330322265625;1.03999999737425;105;100 mA
75.4653398094683;-0.799560546875;-0.07330322265625;1.049999997349;106;100 mA
75.4753398094431;-0.7989501953125;-0.072784423828125;1.05999999732376;107;100 mA
75.4853398094178;-0.799560546875;-0.07257080078125;1.06999999729851;108;100 mA
75.4953398093926;-0.799560546875;-0.07281494140625;1.07999999727326;109;100 mA
75.5053398093673;-0.79986572265625;-0.0731201171875;1.08999999724801;110;100 mA
75.5153398093421;-0.799560546875;-0.073150634765625;1.09999999722277;111;100 mA
75.5253398093168;-0.79925537109375;-0.073974609375;1.10999999719752;112;100 mA
75.5353398092916;-0.799560546875;-0.07379150390625;1.11999999717227;113;100 mA
75.5453398092664;-0.79925537109375;-0.07415771484375;1.12999999714702;114;100 mA
75.5553398092411;-0.79986572265625;-0.07354736328125;1.13999999712178;115;100 mA
75.5653398092159;-0.79864501953125;-0.073516845703125;1.14999999709653;116;100 mA
75.5753398091906;-0.799560546875;-0.07342529296875;1.15999999707128;117;100 mA
75.5853398091654;-0.799560546875;-0.0740966796875;1.16999999704603;118;100 mA
75.5953398091401;-0.79986572265625;-0.0736083984375;1.17999999702079;119;100 mA
75.6053398091149;-0.8001708984375;-0.07427978515625;1.18999999699554;120;100 mA
75.6153398090896;-0.79925537109375;-0.07391357421875;1.19999999697029;121;100 mA
75.6253398090644;-0.79986572265625;-0.074462890625;1.20999999694504;122;100 mA
75.6353398090391;-0.79925537109375;-0.073822021484375;1.2199999969198;123;100 mA
75.6453398090139;-0.799560546875;-0.073944091796875;1.22999999689455;124;100 mA
75.6553398089886;-0.79925537109375;-0.07373046875;1.2399999968693;125;100 mA
75.6653398089634;-0.799560546875;-0.074432373046875;1.24999999684405;126;100 mA
75.6753398089381;-0.799560546875;-0.074188232421875;1.25999999681881;127;100 mA
75.6853398089129;-0.799560546875;-0.074798583984375;1.26999999679356;128;100 mA
75.6953398088876;-0.799560546875;-0.074493408203125;1.27999999676831;129;100 mA
75.7053398088624;-0.79925537109375;-0.07464599609375;1.28999999674306;130;100 mA
75.7153398088371;-0.79986572265625;-0.074188232421875;1.29999999671782;131;100 mA
75.7253398088119;-0.799560546875;-0.074066162109375;1.30999999669257;132;100 mA
75.7353398087866;-0.799560546875;-0.07415771484375;1.31999999666732;133;100 mA
75.7453398087614;-0.799560546875;-0.0743408203125;1.32999999664207;134;100 mA
75.7553398087362;-0.79925537109375;-0.07415771484375;1.33999999661683;135;100 mA
75.7653398087109;-0.79925537109375;-0.0743408203125;1.34999999659158;136;100 mA
75.7753398086857;-0.799560546875;-0.074554443359375;1.35999999656633;137;100 mA
75.7853398086604;-0.79986572265625;-0.0745849609375;1.36999999654108;138;100 mA
75.7953398086352;-0.79925537109375;-0.074127197265625;1.37999999651583;139;100 mA
75.8053398086099;-0.79925537109375;-0.073638916015625;1.38999999649059;140;100 mA
75.8153398085847;-0.79925537109375;-0.073638916015625;1.39999999646534;141;100 mA
75.8253398085594;-0.8001708984375;-0.07379150390625;1.40999999644009;142;100 mA
75.8353398085342;-0.799560546875;-0.07366943359375;1.41999999641484;143;100 mA
75.8453398085089;-0.799560546875;-0.073760986328125;1.4299999963896;144;100 mA
75.8553398084837;-0.799560546875;-0.07342529296875;1.43999999636435;145;100 mA
75.8653398084584;-0.799560546875;-0.07354736328125;1.4499999963391;146;100 mA
75.8753398084332;-0.79986572265625;-0.0731201171875;1.45999999631385;147;100 mA
75.8853398084079;-0.79986572265625;-0.0728759765625;1.46999999628861;148;100 mA
75.8953398083827;-0.799560546875;-0.072845458984375;1.47999999626336;149;100 mA
75.9053398083574;-0.799560546875;-0.07293701171875;1.48999999623811;150;100 mA
75.9153398083322;-0.799560546875;-0.072784423828125;1.49999999621286;151;100 mA
75.9253398083069;-0.7989501953125;-0.073455810546875;1.50999999618762;152;100 mA
75.9353398082817;-0.799560546875;-0.0732421875;1.51999999616237;153;100 mA
75.9453398082564;-0.8001708984375;-0.073638916015625;1.52999999613712;154;100 mA
75.9553398082312;-0.79925537109375;-0.0731201171875;1.53999999611187;155;100 mA
75.965339808206;-0.799560546875;-0.073089599609375;1.54999999608663;156;100 mA
75.9753398081807;-0.79925537109375;-0.073089599609375;1.55999999606138;157;100 mA
75.9853398081555;-0.79925537109375;-0.073699951171875;1.56999999603613;158;100 mA
75.9953398081302;-0.7989501953125;-0.0732421875;1.57999999601088;159;100 mA
76.005339808105;-0.799560546875;-0.073883056640625;1.58999999598564;160;100 mA
76.0153398080797;-0.799560546875;-0.07354736328125;1.59999999596039;161;100 mA
76.0253398080545;-0.79986572265625;-0.0740966796875;1.60999999593514;162;100 mA
76.0353398080292;-0.79986572265625;-0.073516845703125;1.61999999590989;163;100 mA
76.045339808004;-0.79925537109375;-0.07366943359375;1.62999999588465;164;100 mA
76.0553398079787;-0.79986572265625;-0.073486328125;1.6399999958594;165;100 mA
76.0653398079535;-0.799560546875;-0.07415771484375;1.64999999583415;166;100 mA
76.0753398079282;-0.79925537109375;-0.074005126953125;1.6599999958089;167;100 mA
76.085339807903;-0.79986572265625;-0.07464599609375;1.66999999578366;168;100 mA
76.0953398078777;-0.79986572265625;-0.074493408203125;1.67999999575841;169;100 mA
76.1053398078525;-0.8001708984375;-0.07470703125;1.68999999573316;170;100 mA
76.1153398078272;-0.79925537109375;-0.074371337890625;1.69999999570791;171;100 mA
76.125339807802;-0.79925537109375;-0.074371337890625;1.70999999568267;172;100 mA
76.1353398077767;-0.799560546875;-0.074615478515625;1.71999999565742;173;100 mA
76.1453398077515;-0.7989501953125;-0.074859619140625;1.72999999563217;174;100 mA
76.1553398077263;-0.79986572265625;-0.074737548828125;1.73999999560692;175;100 mA
76.165339807701;-0.79986572265625;-0.074920654296875;1.74999999558167;176;100 mA
76.1753398076758;-0.79925537109375;-0.075164794921875;1.75999999555643;177;100 mA
76.1853398076505;-0.799560546875;-0.0751953125;1.76999999553118;178;100 mA
76.1953398076253;-0.79986572265625;-0.0748291015625;1.77999999550593;179;100 mA
76.2053398076;-0.79986572265625;-0.0743408203125;1.78999999548068;180;100 mA
76.2153398075748;-0.79986572265625;-0.074310302734375;1.79999999545544;181;100 mA
76.2253398075495;-0.79986572265625;-0.0745849609375;1.80999999543019;182;100 mA
76.2353398075243;-0.79986572265625;-0.074554443359375;1.81999999540494;183;100 mA
76.245339807499;-0.79925537109375;-0.074859619140625;1.82999999537969;184;100 mA
76.2553398074738;-0.79925537109375;-0.07470703125;1.83999999535445;185;100 mA
76.2653398074485;-0.79925537109375;-0.0750732421875;1.8499999953292;186;100 mA
76.2753398074233;-0.799560546875;-0.074798583984375;1.85999999530395;187;100 mA
76.285339807398;-0.79925537109375;-0.07464599609375;1.8699999952787;188;100 mA
76.2953398073728;-0.799560546875;-0.074676513671875;1.87999999525346;189;100 mA
76.3053398073475;-0.79925537109375;-0.074951171875;1.88999999522821;190;100 mA
76.3153398073223;-0.79925537109375;-0.074798583984375;1.89999999520296;191;100 mA
76.325339807297;-0.79986572265625;-0.07574462890625;1.90999999517771;192;100 mA
76.3353398072718;-0.799560546875;-0.075653076171875;1.91999999515247;193;100 mA
76.3453398072465;-0.79986572265625;-0.07611083984375;1.92999999512722;194;100 mA
76.3553398072213;-0.799560546875;-0.07562255859375;1.93999999510197;195;100 mA
76.3653398071961;-0.79986572265625;-0.0755615234375;1.94999999507672;196;100 mA
76.3753398071708;-0.79986572265625;-0.075439453125;1.95999999505148;197;100 mA
76.3853398071456;-0.799560546875;-0.07598876953125;1.96999999502623;198;100 mA
76.3953398071203;-0.799560546875;-0.075653076171875;1.97999999500098;199;100 mA
76.4053398070951;-0.799560546875;-0.076385498046875;1.98999999497573;200;100 mA
76.4153398070698;-0.799560546875;-0.07635498046875;1.99999999495049;201;100 mA
76.4253398070446;-0.79925537109375;-0.076873779296875;2.00999999492524;202;100 mA
76.4353398070193;-0.79925537109375;-0.076324462890625;2.01999999489999;203;100 mA
76.4453398069941;-0.79986572265625;-0.076263427734375;2.02999999487474;204;100 mA
76.4553398069688;-0.799560546875;-0.075897216796875;2.0399999948495;205;100 mA
76.4653398069436;-0.799560546875;-0.0762939453125;2.04999999482425;206;100 mA
76.4753398069183;-0.7989501953125;-0.076141357421875;2.059999994799;207;100 mA
76.4853398068931;-0.8001708984375;-0.07659912109375;2.06999999477375;208;100 mA
76.4953398068678;-0.799560546875;-0.07647705078125;2.0799999947485;209;100 mA
76.5053398068426;-0.799560546875;-0.076568603515625;2.08999999472326;210;100 mA
76.5153398068173;-0.799560546875;-0.076141357421875;2.09999999469801;211;100 mA
76.5253398067921;-0.799560546875;-0.07586669921875;2.10999999467276;212;100 mA
76.5353398067668;-0.799560546875;-0.075927734375;2.11999999464751;213;100 mA
76.5453398067416;-0.7989501953125;-0.075927734375;2.12999999462227;214;100 mA
76.5553398067163;-0.799560546875;-0.075653076171875;2.13999999459702;215;100 mA
76.5653398066911;-0.79925537109375;-0.07574462890625;2.14999999457177;216;100 mA
76.5753398066659;-0.799560546875;-0.075927734375;2.15999999454652;217;100 mA
76.5853398066406;-0.79925537109375;-0.0760498046875;2.16999999452128;218;100 mA
76.5953398066154;-0.799560546875;-0.075714111328125;2.17999999449603;219;100 mA
76.6053398065901;-0.799560546875;-0.075225830078125;2.18999999447078;220;100 mA
76.6153398065649;-0.799560546875;-0.07513427734375;2.19999999444553;221;100 mA
76.6253398065396;-0.79986572265625;-0.075225830078125;2.20999999442029;222;100 mA
76.6353398065144;-0.79925537109375;-0.07489013671875;2.21999999439504;223;100 mA
76.6453398064891;-0.799560546875;-0.0748291015625;2.22999999436979;224;100 mA
76.6553398064639;-0.79925537109375;-0.074249267578125;2.23999999434454;225;100 mA
76.6653398064386;-0.79986572265625;-0.0743408203125;2.2499999943193;226;100 mA
76.6753398064134;-0.8001708984375;-0.073883056640625;2.25999999429405;227;100 mA
76.6853398063881;-0.79925537109375;-0.07379150390625;2.2699999942688;228;100 mA
76.6953398063629;-0.799560546875;-0.073760986328125;2.27999999424355;229;100 mA
76.7053398063376;-0.79986572265625;-0.074066162109375;2.28999999421831;230;100 mA
76.7153398063124;-0.79986572265625;-0.073822021484375;2.29999999419306;231;100 mA
76.7253398062871;-0.799560546875;-0.074554443359375;2.30999999416781;232;100 mA
76.7353398062619;-0.79986572265625;-0.074249267578125;2.31999999414256;233;100 mA
76.7453398062366;-0.7989501953125;-0.07452392578125;2.32999999411732;234;100 mA
76.7553398062114;-0.799560546875;-0.073822021484375;2.33999999409207;235;100 mA
76.7653398061861;-0.79925537109375;-0.07366943359375;2.34999999406682;236;100 mA
76.7753398061609;-0.8001708984375;-0.073486328125;2.35999999404157;237;100 mA
76.7853398061357;-0.79986572265625;-0.07415771484375;2.36999999401633;238;100 mA
76.7953398061104;-0.79925537109375;-0.07391357421875;2.37999999399108;239;100 mA
76.8053398060852;-0.79925537109375;-0.0745849609375;2.38999999396583;240;100 mA
76.8153398060599;-0.799560546875;-0.074615478515625;2.39999999394058;241;100 mA
76.8253398060347;-0.79925537109375;-0.075103759765625;2.40999999391533;242;100 mA
76.8353398060094;-0.799560546875;-0.074615478515625;2.41999999389009;243;100 mA
76.8453398059842;-0.79986572265625;-0.074462890625;2.42999999386484;244;100 mA
76.8553398059589;-0.799560546875;-0.073974609375;2.43999999383959;245;100 mA
76.8653398059337;-0.799560546875;-0.074310302734375;2.44999999381434;246;100 mA
76.8753398059084;-0.799560546875;-0.07391357421875;2.4599999937891;247;100 mA
76.8853398058832;-0.799560546875;-0.07415771484375;2.46999999376385;248;100 mA
76.8953398058579;-0.79986572265625;-0.073974609375;2.4799999937386;249;100 mA
76.9053398058327;-0.7989501953125;-0.074005126953125;2.48999999371335;250;100 mA
76.9153398058074;-0.799560546875;-0.073760986328125;2.49999999368811;251;100 mA
76.9253398057822;-0.799560546875;-0.073486328125;2.50999999366286;252;100 mA
76.9353398057569;-0.799560546875;-0.073638916015625;2.51999999363761;253;100 mA
76.9453398057317;-0.79925537109375;-0.073577880859375;2.52999999361236;254;100 mA
76.9553398057064;-0.799560546875;-0.0732421875;2.53999999358712;255;100 mA
76.9653398056812;-0.79925537109375;-0.073150634765625;2.54999999356187;256;100 mA
76.9753398056559;-0.7989501953125;-0.073272705078125;2.55999999353662;257;100 mA
76.9853398056307;-0.799560546875;-0.073272705078125;2.56999999351137;258;100 mA
76.9953398056055;-0.79925537109375;-0.072998046875;2.57999999348613;259;100 mA
77.0053398055802;-0.799560546875;-0.072540283203125;2.58999999346088;260;100 mA
77.015339805555;-0.799560546875;-0.072601318359375;2.59999999343563;261;100 mA
77.0253398055297;-0.79925537109375;-0.07275390625;2.60999999341038;262;100 mA
77.0353398055045;-0.799560546875;-0.072540283203125;2.61999999338514;263;100 mA
77.0453398054792;-0.799560546875;-0.07257080078125;2.62999999335989;264;100 mA
77.055339805454;-0.7989501953125;-0.072113037109375;2.63999999333464;265;100 mA
77.0653398054287;-0.79925537109375;-0.072265625;2.64999999330939;266;100 mA
77.0753398054035;-0.7989501953125;-0.07183837890625;2.65999999328415;267;100 mA
77.0853398053782;-0.799560546875;-0.07177734375;2.6699999932589;268;100 mA
77.095339805353;-0.79925537109375;-0.07171630859375;2.67999999323365;269;100 mA
77.1053398053277;-0.799560546875;-0.0721435546875;2.6899999932084;270;100 mA
77.1153398053025;-0.79925537109375;-0.072021484375;2.69999999318316;271;100 mA
77.1253398052772;-0.799560546875;-0.072967529296875;2.70999999315791;272;100 mA
77.135339805252;-0.79925537109375;-0.072784423828125;2.71999999313266;273;100 mA
77.1453398052267;-0.799560546875;-0.0732421875;2.72999999310741;274;100 mA
77.1553398052015;-0.799560546875;-0.07275390625;2.73999999308217;275;100 mA
77.1653398051762;-0.79925537109375;-0.072784423828125;2.74999999305692;276;100 mA
77.175339805151;-0.7989501953125;-0.072662353515625;2.75999999303167;277;100 mA
77.1853398051257;-0.79925537109375;-0.07318115234375;2.76999999300642;278;100 mA
77.1953398051005;-0.79925537109375;-0.07269287109375;2.77999999298117;279;100 mA
77.2053398050753;-0.79986572265625;-0.07305908203125;2.78999999295593;280;100 mA
77.21533980505;-0.799560546875;-0.072906494140625;2.79999999293068;281;100 mA
77.2253398050248;-0.79925537109375;-0.073272705078125;2.80999999290543;282;100 mA
77.2353398049995;-0.7989501953125;-0.072906494140625;2.81999999288018;283;100 mA
77.2453398049743;-0.799560546875;-0.0728759765625;2.82999999285494;284;100 mA
77.255339804949;-0.799560546875;-0.0726318359375;2.83999999282969;285;100 mA
77.2653398049238;-0.799560546875;-0.072998046875;2.84999999280444;286;100 mA
77.2753398048985;-0.799560546875;-0.07275390625;2.85999999277919;287;100 mA
77.2853398048733;-0.79986572265625;-0.0728759765625;2.86999999275395;288;100 mA
77.295339804848;-0.79986572265625;-0.0726318359375;2.8799999927287;289;100 mA
77.3053398048228;-0.799560546875;-0.072479248046875;2.88999999270345;290;100 mA
77.3153398047975;-0.79986572265625;-0.072174072265625;2.8999999926782;291;100 mA
77.3253398047723;-0.79925537109375;-0.0718994140625;2.90999999265296;292;100 mA
77.335339804747;-0.8001708984375;-0.07208251953125;2.91999999262771;293;100 mA
77.3453398047218;-0.799560546875;-0.07208251953125;2.92999999260246;294;100 mA
77.3553398046965;-0.79925537109375;-0.072021484375;2.93999999257721;295;100 mA
77.3653398046713;-0.799560546875;-0.071990966796875;2.94999999255197;296;100 mA
77.375339804646;-0.7989501953125;-0.072296142578125;2.95999999252672;297;100 mA
77.3853398046208;-0.799560546875;-0.072296142578125;2.96999999250147;298;100 mA
77.3953398045956;-0.799560546875;-0.07220458984375;2.97999999247622;299;100 mA
77.4053398045703;-0.799560546875;-0.07183837890625;2.98999999245098;300;100 mA
77.4153398045451;-0.8001708984375;-0.071868896484375;2.99999999242573;301;100 mA
77.4253398045198;-0.799560546875;-0.072052001953125;3.00999999240048;302;100 mA
77.4353398044946;-0.79925537109375;-0.071929931640625;3.01999999237523;303;100 mA
77.4453398044693;-0.799560546875;-0.072021484375;3.02999999234999;304;100 mA
77.4553398044441;-0.799560546875;-0.071685791015625;3.03999999232474;305;100 mA
77.4653398044188;-0.799560546875;-0.071807861328125;3.04999999229949;306;100 mA
77.4753398043936;-0.79986572265625;-0.07135009765625;3.05999999227424;307;100 mA
77.4853398043683;-0.799560546875;-0.071197509765625;3.069999992249;308;100 mA
77.4953398043431;-0.79986572265625;-0.0709228515625;3.07999999222375;309;100 mA
77.5053398043178;-0.79925537109375;-0.071136474609375;3.0899999921985;310;100 mA
77.5153398042926;-0.799560546875;-0.070831298828125;3.09999999217325;311;100 mA
77.5253398042673;-0.799560546875;-0.07147216796875;3.109999992148;312;100 mA
77.5353398042421;-0.79925537109375;-0.0711669921875;3.11999999212276;313;100 mA
77.5453398042168;-0.79925537109375;-0.071380615234375;3.12999999209751;314;100 mA
77.5553398041916;-0.79925537109375;-0.0709228515625;3.13999999207226;315;100 mA
77.5653398041663;-0.79986572265625;-0.070953369140625;3.14999999204701;316;100 mA
77.5753398041411;-0.79986572265625;-0.070831298828125;3.15999999202177;317;100 mA
77.5853398041158;-0.799560546875;-0.071258544921875;3.16999999199652;318;100 mA
77.5953398040906;-0.79925537109375;-0.070831298828125;3.17999999197127;319;100 mA
77.6053398040654;-0.799560546875;-0.0711669921875;3.18999999194602;320;100 mA
77.6153398040401;-0.79986572265625;-0.071136474609375;3.19999999192078;321;100 mA
77.6253398040149;-0.79864501953125;-0.071502685546875;3.20999999189553;322;100 mA
77.6353398039896;-0.799560546875;-0.071197509765625;3.21999999187028;323;100 mA
77.6453398039644;-0.7989501953125;-0.07110595703125;3.22999999184503;324;100 mA
77.6553398039391;-0.79925537109375;-0.070953369140625;3.23999999181979;325;100 mA
77.6653398039139;-0.79986572265625;-0.071319580078125;3.24999999179454;326;100 mA
77.6753398038886;-0.79925537109375;-0.071197509765625;3.25999999176929;327;100 mA
77.6853398038634;-0.799560546875;-0.071258544921875;3.26999999174404;328;100 mA
77.6953398038381;-0.799560546875;-0.071075439453125;3.2799999917188;329;100 mA
77.7053398038129;-0.79986572265625;-0.070892333984375;3.28999999169355;330;100 mA
77.7153398037876;-0.799560546875;-0.0706787109375;3.2999999916683;331;100 mA
77.7253398037624;-0.79925537109375;-0.070281982421875;3.30999999164305;332;100 mA
77.7353398037371;-0.79925537109375;-0.070404052734375;3.31999999161781;333;100 mA
77.7453398037119;-0.799560546875;-0.0703125;3.32999999159256;334;100 mA
77.7553398036866;-0.79986572265625;-0.070220947265625;3.33999999156731;335;100 mA
77.7653398036614;-0.7989501953125;-0.0704345703125;3.34999999154206;336;100 mA
77.7753398036361;-0.7989501953125;-0.070892333984375;3.35999999151682;337;100 mA
77.7853398036109;-0.799560546875;-0.071136474609375;3.36999999149157;338;100 mA
77.7953398035856;-0.7989501953125;-0.071136474609375;3.37999999146632;339;100 mA
77.8053398035604;-0.799560546875;-0.07080078125;3.38999999144107;340;100 mA
77.8153398035352;-0.79925537109375;-0.0709228515625;3.39999999141583;341;100 mA
77.8253398035099;-0.79986572265625;-0.0711669921875;3.40999999139058;342;100 mA
77.8353398034847;-0.799560546875;-0.071136474609375;3.41999999136533;343;100 mA
77.8453398034594;-0.799560546875;-0.0714111328125;3.42999999134008;344;100 mA
77.8553398034342;-0.799560546875;-0.071319580078125;3.43999999131483;345;100 mA
77.8653398034089;-0.79925537109375;-0.07171630859375;3.44999999128959;346;100 mA
77.8753398033837;-0.79925537109375;-0.07159423828125;3.45999999126434;347;100 mA
77.8853398033584;-0.79986572265625;-0.07171630859375;3.46999999123909;348;100 mA
77.8953398033332;-0.79925537109375;-0.0716552734375;3.47999999121384;349;100 mA
77.9053398033079;-0.79986572265625;-0.072021484375;3.4899999911886;350;100 mA
77.9153398032827;-0.799560546875;-0.071807861328125;3.49999999116335;351;100 mA
77.9253398032574;-0.7989501953125;-0.072540283203125;3.5099999911381;352;100 mA
77.9353398032322;-0.79986572265625;-0.072265625;3.51999999111285;353;100 mA
77.9453398032069;-0.799560546875;-0.072509765625;3.52999999108761;354;100 mA
77.9553398031817;-0.799560546875;-0.072052001953125;3.53999999106236;355;100 mA
77.9653398031564;-0.79986572265625;-0.072021484375;3.54999999103711;356;100 mA
77.9753398031312;-0.79986572265625;-0.07183837890625;3.55999999101186;357;100 mA
77.9853398031059;-0.799560546875;-0.07220458984375;3.56999999098662;358;100 mA
77.9953398030807;-0.79986572265625;-0.071746826171875;3.57999999096137;359;100 mA
78.0053398030554;-0.79986572265625;-0.071929931640625;3.58999999093612;360;100 mA
78.0153398030302;-0.799560546875;-0.071746826171875;3.59999999091087;361;100 mA
78.025339803005;-0.799560546875;-0.0718994140625;3.60999999088563;362;100 mA
78.0353398029797;-0.7989501953125;-0.071502685546875;3.61999999086038;363;100 mA
78.0453398029545;-0.7989501953125;-0.071319580078125;3.62999999083513;364;100 mA
78.0553398029292;-0.799560546875;-0.071014404296875;3.63999999080988;365;100 mA
78.065339802904;-0.79925537109375;-0.071258544921875;3.64999999078464;366;100 mA
78.0753398028787;-0.799560546875;-0.071044921875;3.65999999075939;367;100 mA
78.0853398028535;-0.79925537109375;-0.071136474609375;3.66999999073414;368;100 mA
78.0953398028282;-0.79925537109375;-0.071014404296875;3.67999999070889;369;100 mA
78.105339802803;-0.79925537109375;-0.0709228515625;3.68999999068365;370;100 mA
78.1153398027777;-0.7989501953125;-0.070770263671875;3.6999999906584;371;100 mA
78.1253398027525;-0.799560546875;-0.070465087890625;3.70999999063315;372;100 mA
78.1353398027272;-0.79986572265625;-0.070526123046875;3.7199999906079;373;100 mA
78.145339802702;-0.799560546875;-0.07037353515625;3.72999999058266;374;100 mA
78.1553398026767;-0.799560546875;-0.0701904296875;3.73999999055741;375;100 mA
78.1653398026515;-0.799560546875;-0.07025146484375;3.74999999053216;376;100 mA
78.1753398026262;-0.79925537109375;-0.070465087890625;3.75999999050691;377;100 mA
78.185339802601;-0.79925537109375;-0.070526123046875;3.76999999048167;378;100 mA
78.1953398025757;-0.799560546875;-0.070465087890625;3.77999999045642;379;100 mA
78.2053398025505;-0.79925537109375;-0.070159912109375;3.78999999043117;380;100 mA
78.2153398025252;-0.79925537109375;-0.070220947265625;3.79999999040592;381;100 mA
78.2253398025;-0.79925537109375;-0.07037353515625;3.80999999038067;382;100 mA
78.2353398024748;-0.799560546875;-0.070220947265625;3.81999999035543;383;100 mA
78.2453398024495;-0.799560546875;-0.07025146484375;3.82999999033018;384;100 mA
78.2553398024243;-0.79986572265625;-0.069976806640625;3.83999999030493;385;100 mA
78.265339802399;-0.799560546875;-0.070220947265625;3.84999999027968;386;100 mA
78.2753398023738;-0.799560546875;-0.0699462890625;3.85999999025444;387;100 mA
78.2853398023485;-0.8001708984375;-0.0699462890625;3.86999999022919;388;100 mA
78.2953398023233;-0.79925537109375;-0.06982421875;3.87999999020394;389;100 mA
78.305339802298;-0.79925537109375;-0.070159912109375;3.88999999017869;390;100 mA
78.3153398022728;-0.79925537109375;-0.07000732421875;3.89999999015345;391;100 mA
78.3253398022475;-0.799560546875;-0.0706787109375;3.9099999901282;392;100 mA
78.3353398022223;-0.79925537109375;-0.070526123046875;3.91999999010295;393;100 mA
78.345339802197;-0.799560546875;-0.07080078125;3.9299999900777;394;100 mA
78.3553398021718;-0.799560546875;-0.070404052734375;3.93999999005246;395;100 mA
78.3653398021465;-0.79986572265625;-0.070404052734375;3.94999999002721;396;100 mA
78.3753398021213;-0.799560546875;-0.070281982421875;3.95999999000196;397;100 mA
78.385339802096;-0.799560546875;-0.07061767578125;3.96999998997671;398;100 mA
78.3953398020708;-0.799560546875;-0.07025146484375;3.97999998995147;399;100 mA
78.4053398020455;-0.799560546875;-0.0704345703125;3.98999998992622;400;100 mA
78.4153398020203;-0.7989501953125;-0.070526123046875;3.99999998990097;401;100 mA
78.4253398019951;-0.79925537109375;-0.070831298828125;4.00999998987572;402;100 mA
78.4353398019698;-0.799560546875;-0.07073974609375;4.01999998985048;403;100 mA
78.4453398019446;-0.799560546875;-0.0706787109375;4.02999998982523;404;100 mA
78.4553398019193;-0.799560546875;-0.07061767578125;4.03999998979998;405;100 mA
78.4653398018941;-0.799560546875;-0.07086181640625;4.04999998977473;406;100 mA
78.4753398018688;-0.7989501953125;-0.070770263671875;4.05999998974949;407;100 mA
78.4853398018436;-0.79925537109375;-0.07080078125;4.06999998972424;408;100 mA
78.4953398018183;-0.79864501953125;-0.070770263671875;4.07999998969899;409;100 mA
78.5053398017931;-0.799560546875;-0.070709228515625;4.08999998967374;410;100 mA
78.5153398017678;-0.79986572265625;-0.0706787109375;4.0999999896485;411;100 mA
78.5253398017426;-0.79925537109375;-0.070465087890625;4.10999998962325;412;100 mA
78.5353398017173;-0.79986572265625;-0.07073974609375;4.119999989598;413;100 mA
78.5453398016921;-0.79925537109375;-0.07073974609375;4.12999998957275;414;100 mA
78.5553398016668;-0.79925537109375;-0.070709228515625;4.1399999895475;415;100 mA
78.5653398016416;-0.79925537109375;-0.070770263671875;4.14999998952226;416;100 mA
78.5753398016163;-0.79925537109375;-0.070831298828125;4.15999998949701;417;100 mA
78.5853398015911;-0.79925537109375;-0.07073974609375;4.16999998947176;418;100 mA
78.5953398015658;-0.7989501953125;-0.070556640625;4.17999998944651;419;100 mA
78.6053398015406;-0.7989501953125;-0.070220947265625;4.18999998942127;420;100 mA
78.6153398015153;-0.79925537109375;-0.0703125;4.19999998939602;421;100 mA
78.6253398014901;-0.7989501953125;-0.070556640625;4.20999998937077;422;100 mA
78.6353398014649;-0.7989501953125;-0.070587158203125;4.21999998934552;423;100 mA
78.6453398014396;-0.799560546875;-0.070831298828125;4.22999998932028;424;100 mA
78.6553398014144;-0.799560546875;-0.0706787109375;4.23999998929503;425;100 mA
78.6653398013891;-0.7989501953125;-0.0709228515625;4.24999998926978;426;100 mA
78.6753398013639;-0.79986572265625;-0.07061767578125;4.25999998924453;427;100 mA
78.6853398013386;-0.79986572265625;-0.07061767578125;4.26999998921929;428;100 mA
78.6953398013134;-0.799560546875;-0.0704345703125;4.27999998919404;429;100 mA
78.7053398012881;-0.799560546875;-0.070770263671875;4.28999998916879;430;100 mA
78.7153398012629;-0.799560546875;-0.070556640625;4.29999998914354;431;100 mA
78.7253398012376;-0.799560546875;-0.071136474609375;4.3099999891183;432;100 mA
78.7353398012124;-0.799560546875;-0.070953369140625;4.31999998909305;433;100 mA
78.7453398011871;-0.799560546875;-0.071197509765625;4.3299999890678;434;100 mA
78.7553398011619;-0.79925537109375;-0.070892333984375;4.33999998904255;435;100 mA
78.7653398011366;-0.79925537109375;-0.07098388671875;4.34999998901731;436;100 mA
78.7753398011114;-0.799560546875;-0.071014404296875;4.35999998899206;437;100 mA
78.7853398010861;-0.799560546875;-0.07147216796875;4.36999998896681;438;100 mA
78.7953398010609;-0.799560546875;-0.071197509765625;4.37999998894156;439;100 mA
78.8053398010356;-0.799560546875;-0.0714111328125;4.38999998891632;440;100 mA
78.8153398010104;-0.79925537109375;-0.0714111328125;4.39999998889107;441;100 mA
78.8253398009851;-0.79986572265625;-0.071533203125;4.40999998886582;442;100 mA
78.8353398009599;-0.7989501953125;-0.071258544921875;4.41999998884057;443;100 mA
78.8453398009347;-0.79925537109375;-0.071014404296875;4.42999998881533;444;100 mA
78.8553398009094;-0.79925537109375;-0.070953369140625;4.43999998879008;445;100 mA
78.8653398008842;-0.799560546875;-0.071136474609375;4.44999998876483;446;100 mA
78.8753398008589;-0.79925537109375;-0.071075439453125;4.45999998873958;447;100 mA
78.8853398008337;-0.79925537109375;-0.071014404296875;4.46999998871433;448;100 mA
78.8953398008084;-0.799560546875;-0.070892333984375;4.47999998868909;449;100 mA
78.9053398007832;-0.799560546875;-0.070648193359375;4.48999998866384;450;100 mA
78.9153398007579;-0.7989501953125;-0.07049560546875;4.49999998863859;451;100 mA
78.9253398007327;-0.79925537109375;-0.070098876953125;4.50999998861334;452;100 mA
78.9353398007074;-0.79986572265625;-0.0701904296875;4.5199999885881;453;100 mA
78.9453398006822;-0.799560546875;-0.070098876953125;4.52999998856285;454;100 mA
78.9553398006569;-0.7989501953125;-0.070037841796875;4.5399999885376;455;100 mA
78.9653398006317;-0.79986572265625;-0.0701904296875;4.54999998851235;456;100 mA
78.9753398006064;-0.79986572265625;-0.0703125;4.55999998848711;457;100 mA
78.9853398005812;-0.799560546875;-0.0703125;4.56999998846186;458;100 mA
78.9953398005559;-0.79925537109375;-0.070159912109375;4.57999998843661;459;100 mA
79.0053398005307;-0.79925537109375;-0.06982421875;4.58999998841136;460;100 mA
79.0153398005054;-0.79925537109375;-0.069793701171875;4.59999998838612;461;100 mA
79.0253398004802;-0.79986572265625;-0.069976806640625;4.60999998836087;462;100 mA
79.0353398004549;-0.79925537109375;-0.069915771484375;4.61999998833562;463;100 mA
79.0453398004297;-0.79925537109375;-0.070159912109375;4.62999998831037;464;100 mA
79.0553398004045;-0.8001708984375;-0.070037841796875;4.63999998828513;465;100 mA
79.0653398003792;-0.7989501953125;-0.070281982421875;4.64999998825988;466;100 mA
79.075339800354;-0.7989501953125;-0.069915771484375;4.65999998823463;467;100 mA
79.0853398003287;-0.799560546875;-0.06988525390625;4.66999998820938;468;100 mA
79.0953398003035;-0.79986572265625;-0.069671630859375;4.67999998818414;469;100 mA
79.1053398002782;-0.79925537109375;-0.070037841796875;4.68999998815889;470;100 mA
79.115339800253;-0.799560546875;-0.06988525390625;4.69999998813364;471;100 mA
79.1253398002277;-0.79925537109375;-0.0704345703125;4.70999998810839;472;100 mA
79.1353398002025;-0.7989501953125;-0.070281982421875;4.71999998808315;473;100 mA
79.1453398001772;-0.79986572265625;-0.0704345703125;4.7299999880579;474;100 mA
79.155339800152;-0.79986572265625;-0.070098876953125;4.73999998803265;475;100 mA
79.1653398001267;-0.799560546875;-0.07000732421875;4.7499999880074;476;100 mA
79.1753398001015;-0.799560546875;-0.06982421875;4.75999998798216;477;100 mA
79.1853398000762;-0.79925537109375;-0.069976806640625;4.76999998795691;478;100 mA
79.195339800051;-0.79925537109375;-0.069610595703125;4.77999998793166;479;100 mA
79.2053398000257;-0.799560546875;-0.0697021484375;4.78999998790641;480;100 mA
79.2153398000005;-0.799560546875;-0.06982421875;4.79999998788116;481;100 mA
79.2253397999752;-0.79986572265625;-0.069976806640625;4.80999998785592;482;100 mA
79.23533979995;-0.79925537109375;-0.06988525390625;4.81999998783067;483;100 mA
79.2453397999247;-0.79986572265625;-0.0697021484375;4.82999998780542;484;100 mA
79.2553397998995;-0.799560546875;-0.0697021484375;4.83999998778017;485;100 mA
79.2653397998743;-0.799560546875;-0.069915771484375;4.84999998775493;486;100 mA
79.275339799849;-0.79925537109375;-0.069915771484375;4.85999998772968;487;100 mA
79.2853397998238;-0.79925537109375;-0.069854736328125;4.86999998770443;488;100 mA
79.2953397997985;-0.799560546875;-0.06982421875;4.87999998767918;489;100 mA
79.3053397997733;-0.799560546875;-0.0697021484375;4.88999998765394;490;100 mA
79.315339799748;-0.79986572265625;-0.06964111328125;4.89999998762869;491;100 mA
79.3253397997228;-0.799560546875;-0.0693359375;4.90999998760344;492;100 mA
79.3353397996975;-0.799560546875;-0.069427490234375;4.91999998757819;493;100 mA
79.3453397996723;-0.799560546875;-0.069305419921875;4.92999998755295;494;100 mA
79.355339799647;-0.79925537109375;-0.069244384765625;4.9399999875277;495;100 mA
79.3653397996218;-0.799560546875;-0.06939697265625;4.94999998750245;496;100 mA
79.3753397995965;-0.799560546875;-0.069610595703125;4.9599999874772;497;100 mA
79.3853397995713;-0.79986572265625;-0.069610595703125;4.96999998745196;498;100 mA
79.395339799546;-0.79925537109375;-0.069610595703125;4.97999998742671;499;100 mA
79.4053397995208;-0.7989501953125;-0.06939697265625;4.98999998740146;500;100 mA
79.4153397994955;-0.799560546875;-0.069488525390625;4.99999998737621;501;100 mA
79.4253397994703;-0.799560546875;-0.069671630859375;5.00999998735097;502;100 mA
79.435339799445;-0.799560546875;-0.069580078125;5.01999998732572;503;100 mA
79.4453397994198;-0.799560546875;-0.069580078125;5.02999998730047;504;100 mA
79.4553397993946;-0.79986572265625;-0.069305419921875;5.03999998727522;505;100 mA
79.4653397993693;-0.79986572265625;-0.069305419921875;5.04999998724998;506;100 mA
79.4753397993441;-0.799560546875;-0.068878173828125;5.05999998722473;507;100 mA
79.4853397993188;-0.79925537109375;-0.06878662109375;5.06999998719948;508;100 mA
79.4953397992936;-0.79925537109375;-0.068511962890625;5.07999998717423;509;100 mA
79.5053397992683;-0.799560546875;-0.068878173828125;5.08999998714899;510;100 mA
79.5153397992431;-0.79986572265625;-0.068756103515625;5.09999998712374;511;100 mA
79.5253397992178;-0.7989501953125;-0.069427490234375;5.10999998709849;512;100 mA
79.5353397991926;-0.79986572265625;-0.069427490234375;5.11999998707324;513;100 mA
79.5453397991673;-0.799560546875;-0.069732666015625;5.129999987048;514;100 mA
79.5553397991421;-0.799560546875;-0.069488525390625;5.13999998702275;515;100 mA
79.5653397991168;-0.79925537109375;-0.069549560546875;5.1499999869975;516;100 mA
79.5753397990916;-0.79864501953125;-0.069610595703125;5.15999998697225;517;100 mA
79.5853397990663;-0.799560546875;-0.070068359375;5.169999986947;518;100 mA
79.5953397990411;-0.79925537109375;-0.06988525390625;5.17999998692176;519;100 mA
79.6053397990158;-0.799560546875;-0.070098876953125;5.18999998689651;520;100 mA
79.6153397989906;-0.799560546875;-0.07025146484375;5.19999998687126;521;100 mA
79.6253397989653;-0.799560546875;-0.070404052734375;5.20999998684601;522;100 mA
79.6353397989401;-0.79925537109375;-0.070281982421875;5.21999998682077;523;100 mA
79.6453397989148;-0.79925537109375;-0.070098876953125;5.22999998679552;524;100 mA
79.6553397988896;-0.79925537109375;-0.070068359375;5.23999998677027;525;100 mA
79.6653397988644;-0.79925537109375;-0.070281982421875;5.24999998674502;526;100 mA
79.6753397988391;-0.799560546875;-0.07037353515625;5.25999998671978;527;100 mA
79.6853397988139;-0.799560546875;-0.07049560546875;5.26999998669453;528;100 mA
79.6953397987886;-0.799560546875;-0.070556640625;5.27999998666928;529;100 mA
79.7053397987634;-0.799560546875;-0.070404052734375;5.28999998664403;530;100 mA
79.7153397987381;-0.79925537109375;-0.07025146484375;5.29999998661879;531;100 mA
79.7253397987129;-0.79925537109375;-0.069793701171875;5.30999998659354;532;100 mA
79.7353397986876;-0.799560546875;-0.06976318359375;5.31999998656829;533;100 mA
79.7453397986624;-0.799560546875;-0.069488525390625;5.32999998654304;534;100 mA
79.7553397986371;-0.79925537109375;-0.0693359375;5.3399999865178;535;100 mA
79.7653397986119;-0.799560546875;-0.069366455078125;5.34999998649255;536;100 mA
79.7753397985866;-0.799560546875;-0.069488525390625;5.3599999864673;537;100 mA
79.7853397985614;-0.8001708984375;-0.069488525390625;5.36999998644205;538;100 mA
79.7953397985361;-0.799560546875;-0.069427490234375;5.37999998641681;539;100 mA
79.8053397985109;-0.79925537109375;-0.069122314453125;5.38999998639156;540;100 mA
79.8153397984856;-0.79986572265625;-0.069091796875;5.39999998636631;541;100 mA
79.8253397984604;-0.79925537109375;-0.069183349609375;5.40999998634106;542;100 mA
79.8353397984351;-0.79986572265625;-0.069122314453125;5.41999998631582;543;100 mA
79.8453397984099;-0.799560546875;-0.069244384765625;5.42999998629057;544;100 mA
79.8553397983846;-0.799560546875;-0.06903076171875;5.43999998626532;545;100 mA
79.8653397983594;-0.7989501953125;-0.069091796875;5.44999998624007;546;100 mA
79.8753397983342;-0.79986572265625;-0.06866455078125;5.45999998621483;547;100 mA
79.8853397983089;-0.79925537109375;-0.06854248046875;5.46999998618958;548;100 mA
79.8953397982837;-0.799560546875;-0.068267822265625;5.47999998616433;549;100 mA
79.9053397982584;-0.79925537109375;-0.06854248046875;5.48999998613908;550;100 mA
79.9153397982332;-0.799560546875;-0.068359375;5.49999998611383;551;100 mA
79.9253397982079;-0.799560546875;-0.068939208984375;5.50999998608859;552;100 mA
79.9353397981827;-0.79925537109375;-0.0689697265625;5.51999998606334;553;100 mA
79.9453397981574;-0.799560546875;-0.069366455078125;5.52999998603809;554;100 mA
79.9553397981322;-0.79986572265625;-0.069244384765625;5.53999998601284;555;100 mA
79.9653397981069;-0.799560546875;-0.06939697265625;5.5499999859876;556;100 mA
79.9753397980817;-0.799560546875;-0.069549560546875;5.55999998596235;557;100 mA
79.9853397980564;-0.799560546875;-0.070098876953125;5.5699999859371;558;100 mA
79.9953397980312;-0.79925537109375;-0.070037841796875;5.57999998591185;559;100 mA
80.0053397980059;-0.79925537109375;-0.070343017578125;5.58999998588661;560;100 mA
80.0153397979807;-0.79986572265625;-0.070587158203125;5.59999998586136;561;100 mA
80.0253397979554;-0.79986572265625;-0.07073974609375;5.60999998583611;562;100 mA
80.0353397979302;-0.799560546875;-0.0706787109375;5.61999998581086;563;100 mA
80.0453397979049;-0.799560546875;-0.0704345703125;5.62999998578562;564;100 mA
80.0553397978797;-0.799560546875;-0.070343017578125;5.63999998576037;565;100 mA
80.0653397978544;-0.799560546875;-0.070465087890625;5.64999998573512;566;100 mA
80.0753397978292;-0.79986572265625;-0.070526123046875;5.65999998570987;567;100 mA
80.085339797804;-0.79925537109375;-0.070587158203125;5.66999998568463;568;100 mA
80.0953397977787;-0.799560546875;-0.070587158203125;5.67999998565938;569;100 mA
80.1053397977535;-0.799560546875;-0.07049560546875;5.68999998563413;570;100 mA
80.1153397977282;-0.8001708984375;-0.0704345703125;5.69999998560888;571;100 mA
80.125339797703;-0.79925537109375;-0.07012939453125;5.70999998558364;572;100 mA
80.1353397976777;-0.79925537109375;-0.070220947265625;5.71999998555839;573;100 mA
80.1453397976525;-0.79986572265625;-0.07012939453125;5.72999998553314;574;100 mA
80.1553397976272;-0.7989501953125;-0.070068359375;5.73999998550789;575;100 mA
80.165339797602;-0.79925537109375;-0.070220947265625;5.74999998548265;576;100 mA
80.1753397975767;-0.799560546875;-0.070281982421875;5.7599999854574;577;100 mA
80.1853397975515;-0.799560546875;-0.07025146484375;5.76999998543215;578;100 mA
80.1953397975262;-0.79925537109375;-0.070098876953125;5.7799999854069;579;100 mA
80.205339797501;-0.79925537109375;-0.069732666015625;5.78999998538166;580;100 mA
80.2153397974757;-0.79925537109375;-0.069580078125;5.79999998535641;581;100 mA
80.2253397974505;-0.799560546875;-0.06964111328125;5.80999998533116;582;100 mA
80.2353397974252;-0.79925537109375;-0.069427490234375;5.81999998530591;583;100 mA
80.2453397974;-0.799560546875;-0.069549560546875;5.82999998528066;584;100 mA
80.2553397973747;-0.799560546875;-0.069305419921875;5.83999998525542;585;100 mA
80.2653397973495;-0.79986572265625;-0.069366455078125;5.84999998523017;586;100 mA
80.2753397973242;-0.79986572265625;-0.0689697265625;5.85999998520492;587;100 mA
80.285339797299;-0.79925537109375;-0.068878173828125;5.86999998517967;588;100 mA
80.2953397972738;-0.8001708984375;-0.068695068359375;5.87999998515443;589;100 mA
80.3053397972485;-0.8001708984375;-0.06903076171875;5.88999998512918;590;100 mA
80.3153397972233;-0.79986572265625;-0.0689697265625;5.89999998510393;591;100 mA
80.325339797198;-0.799560546875;-0.069427490234375;5.90999998507868;592;100 mA
80.3353397971728;-0.799560546875;-0.0693359375;5.91999998505344;593;100 mA
80.3453397971475;-0.799560546875;-0.0694580078125;5.92999998502819;594;100 mA
80.3553397971223;-0.799560546875;-0.069091796875;5.93999998500294;595;100 mA
80.365339797097;-0.79986572265625;-0.069000244140625;5.94999998497769;596;100 mA
80.3753397970718;-0.79986572265625;-0.068939208984375;5.95999998495245;597;100 mA
80.3853397970465;-0.799560546875;-0.06915283203125;5.9699999849272;598;100 mA
80.3953397970213;-0.79925537109375;-0.06890869140625;5.97999998490195;599;100 mA
80.405339796996;-0.7989501953125;-0.069061279296875;5.9899999848767;600;100 mA
80.4153397969708;-0.79925537109375;-0.069244384765625;5.99999998485146;601;100 mA
80.4253397969455;-0.79986572265625;-0.069305419921875;6.00999998482621;602;100 mA
80.4353397969203;-0.79925537109375;-0.069183349609375;6.01999998480096;603;100 mA
80.445339796895;-0.79925537109375;-0.068878173828125;6.02999998477571;604;100 mA
80.4553397968698;-0.799560546875;-0.06884765625;6.03999998475047;605;100 mA
80.4653397968445;-0.79986572265625;-0.06903076171875;6.04999998472522;606;100 mA
80.4753397968193;-0.79925537109375;-0.069183349609375;6.05999998469997;607;100 mA
80.4853397967941;-0.799560546875;-0.069244384765625;6.06999998467472;608;100 mA
80.4953397967688;-0.799560546875;-0.069305419921875;6.07999998464948;609;100 mA
80.5053397967436;-0.79925537109375;-0.0692138671875;6.08999998462423;610;100 mA
80.5153397967183;-0.799560546875;-0.069091796875;6.09999998459898;611;100 mA
80.5253397966931;-0.799560546875;-0.0687255859375;6.10999998457373;612;100 mA
80.5353397966678;-0.7989501953125;-0.068695068359375;6.11999998454849;613;100 mA
80.5453397966426;-0.79925537109375;-0.068572998046875;6.12999998452324;614;100 mA
80.5553397966173;-0.799560546875;-0.068511962890625;6.13999998449799;615;100 mA
80.5653397965921;-0.8001708984375;-0.0687255859375;6.14999998447274;616;100 mA
80.5753397965668;-0.799560546875;-0.068817138671875;6.1599999844475;617;100 mA
80.5853397965416;-0.799560546875;-0.06884765625;6.16999998442225;618;100 mA
80.5953397965163;-0.79925537109375;-0.0687255859375;6.179999984397;619;100 mA
80.6053397964911;-0.799560546875;-0.06854248046875;6.18999998437175;620;100 mA
80.6153397964658;-0.799560546875;-0.06854248046875;6.1999999843465;621;100 mA
80.6253397964406;-0.79925537109375;-0.06878662109375;6.20999998432126;622;100 mA
80.6353397964153;-0.799560546875;-0.068817138671875;6.21999998429601;623;100 mA
80.6453397963901;-0.799560546875;-0.069122314453125;6.22999998427076;624;100 mA
80.6553397963648;-0.79986572265625;-0.069122314453125;6.23999998424551;625;100 mA
80.6653397963396;-0.799560546875;-0.069427490234375;6.24999998422027;626;100 mA
80.6753397963143;-0.7989501953125;-0.06927490234375;6.25999998419502;627;100 mA
80.6853397962891;-0.799560546875;-0.0693359375;6.26999998416977;628;100 mA
80.6953397962639;-0.79986572265625;-0.06915283203125;6.27999998414452;629;100 mA
80.7053397962386;-0.79986572265625;-0.069488525390625;6.28999998411928;630;100 mA
80.7153397962134;-0.79925537109375;-0.069366455078125;6.29999998409403;631;100 mA
80.7253397961881;-0.79925537109375;-0.069793701171875;6.30999998406878;632;100 mA
80.7353397961629;-0.799560546875;-0.06964111328125;6.31999998404353;633;100 mA
80.7453397961376;-0.799560546875;-0.06976318359375;6.32999998401829;634;100 mA
80.7553397961124;-0.79925537109375;-0.0694580078125;6.33999998399304;635;100 mA
80.7653397960871;-0.799560546875;-0.06939697265625;6.34999998396779;636;100 mA
80.7753397960619;-0.79986572265625;-0.06939697265625;6.35999998394254;637;100 mA
80.7853397960366;-0.79986572265625;-0.069610595703125;6.3699999839173;638;100 mA
80.7953397960114;-0.799560546875;-0.0694580078125;6.37999998389205;639;100 mA
80.8053397959861;-0.79925537109375;-0.069549560546875;6.3899999838668;640;100 mA
80.8153397959609;-0.79925537109375;-0.069793701171875;6.39999998384155;641;100 mA
80.8253397959356;-0.799560546875;-0.069976806640625;6.40999998381631;642;100 mA
80.8353397959104;-0.799560546875;-0.0699462890625;6.41999998379106;643;100 mA
80.8453397958851;-0.79986572265625;-0.0697021484375;6.42999998376581;644;100 mA
80.8553397958599;-0.799560546875;-0.069610595703125;6.43999998374056;645;100 mA
80.8653397958346;-0.79986572265625;-0.069732666015625;6.44999998371532;646;100 mA
80.8753397958094;-0.799560546875;-0.06982421875;6.45999998369007;647;100 mA
80.8853397957841;-0.79925537109375;-0.069854736328125;6.46999998366482;648;100 mA
80.8953397957589;-0.799560546875;-0.06988525390625;6.47999998363957;649;100 mA
80.9053397957337;-0.79986572265625;-0.069854736328125;6.48999998361433;650;100 mA
80.9153397957084;-0.79986572265625;-0.06988525390625;6.49999998358908;651;100 mA
80.9253397956832;-0.79986572265625;-0.069732666015625;6.50999998356383;652;100 mA
80.9353397956579;-0.79925537109375;-0.06982421875;6.51999998353858;653;100 mA
80.9453397956327;-0.799560546875;-0.069854736328125;6.52999998351333;654;100 mA
80.9553397956074;-0.799560546875;-0.06988525390625;6.53999998348809;655;100 mA
80.9653397955822;-0.79925537109375;-0.070220947265625;6.54999998346284;656;100 mA
80.9753397955569;-0.79986572265625;-0.070343017578125;6.55999998343759;657;100 mA
80.9853397955317;-0.79925537109375;-0.07037353515625;6.56999998341234;658;100 mA
80.9953397955064;-0.799560546875;-0.0701904296875;6.5799999833871;659;100 mA
81.0053397954812;-0.799560546875;-0.06988525390625;6.58999998336185;660;100 mA
81.0153397954559;-0.79925537109375;-0.069793701171875;6.5999999833366;661;100 mA
81.0253397954307;-0.79925537109375;-0.069976806640625;6.60999998331135;662;100 mA
81.0353397954054;-0.79925537109375;-0.0699462890625;6.61999998328611;663;100 mA
81.0453397953802;-0.799560546875;-0.07012939453125;6.62999998326086;664;100 mA
81.0553397953549;-0.799560546875;-0.0699462890625;6.63999998323561;665;100 mA
81.0653397953297;-0.79925537109375;-0.070068359375;6.64999998321036;666;100 mA
81.0753397953044;-0.79986572265625;-0.069732666015625;6.65999998318512;667;100 mA
81.0853397952792;-0.79925537109375;-0.069671630859375;6.66999998315987;668;100 mA
81.0953397952539;-0.79925537109375;-0.069366455078125;6.67999998313462;669;100 mA
81.1053397952287;-0.799560546875;-0.069580078125;6.68999998310937;670;100 mA
81.1153397952035;-0.79864501953125;-0.06939697265625;6.69999998308413;671;100 mA
81.1253397951782;-0.79986572265625;-0.069793701171875;6.70999998305888;672;100 mA
81.135339795153;-0.799560546875;-0.06976318359375;6.71999998303363;673;100 mA
81.1453397951277;-0.799560546875;-0.069854736328125;6.72999998300838;674;100 mA
81.1553397951025;-0.79986572265625;-0.069580078125;6.73999998298314;675;100 mA
81.1653397950772;-0.799560546875;-0.069488525390625;6.74999998295789;676;100 mA
81.175339795052;-0.79925537109375;-0.0694580078125;6.75999998293264;677;100 mA
81.1853397950267;-0.79925537109375;-0.069610595703125;6.76999998290739;678;100 mA
81.1953397950015;-0.79925537109375;-0.0693359375;6.77999998288215;679;100 mA
81.2053397949762;-0.799560546875;-0.06927490234375;6.7899999828569;680;100 mA
81.215339794951;-0.799560546875;-0.069366455078125;6.79999998283165;681;100 mA
81.2253397949257;-0.799560546875;-0.069305419921875;6.8099999828064;682;100 mA
81.2353397949005;-0.799560546875;-0.069244384765625;6.81999998278116;683;100 mA
81.2453397948752;-0.79925537109375;-0.068817138671875;6.82999998275591;684;100 mA
81.25533979485;-0.7989501953125;-0.06866455078125;6.83999998273066;685;100 mA
81.2653397948247;-0.799560546875;-0.068695068359375;6.84999998270541;686;100 mA
81.2753397947995;-0.799560546875;-0.06878662109375;6.85999998268016;687;100 mA
81.2853397947742;-0.799560546875;-0.06878662109375;6.86999998265492;688;100 mA
81.295339794749;-0.799560546875;-0.06878662109375;6.87999998262967;689;100 mA
81.3053397947237;-0.799560546875;-0.0687255859375;6.88999998260442;690;100 mA
81.3153397946985;-0.799560546875;-0.068817138671875;6.89999998257917;691;100 mA
81.3253397946733;-0.79986572265625;-0.06866455078125;6.90999998255393;692;100 mA
81.335339794648;-0.799560546875;-0.06878662109375;6.91999998252868;693;100 mA
81.3453397946228;-0.79986572265625;-0.068878173828125;6.92999998250343;694;100 mA
81.3553397945975;-0.799560546875;-0.068878173828125;6.93999998247818;695;100 mA
81.3653397945723;-0.79864501953125;-0.069183349609375;6.94999998245294;696;100 mA
81.375339794547;-0.79986572265625;-0.0692138671875;6.95999998242769;697;100 mA
81.3853397945218;-0.79925537109375;-0.06927490234375;6.96999998240244;698;100 mA
81.3953397944965;-0.799560546875;-0.069122314453125;6.97999998237719;699;100 mA
81.4053397944713;-0.79986572265625;-0.068939208984375;6.98999998235195;700;100 mA
81.415339794446;-0.79925537109375;-0.06890869140625;6.9999999823267;701;100 mA
81.4253397944208;-0.799560546875;-0.069183349609375;7.00999998230145;702;100 mA
81.4353397943955;-0.799560546875;-0.069183349609375;7.0199999822762;703;100 mA
81.4453397943703;-0.799560546875;-0.069488525390625;7.02999998225096;704;100 mA
81.455339794345;-0.799560546875;-0.0694580078125;7.03999998222571;705;100 mA
81.4653397943198;-0.79925537109375;-0.0697021484375;7.04999998220046;706;100 mA
81.4753397942945;-0.79986572265625;-0.06951904296875;7.05999998217521;707;100 mA
81.4853397942693;-0.799560546875;-0.069580078125;7.06999998214997;708;100 mA
81.495339794244;-0.799560546875;-0.0694580078125;7.07999998212472;709;100 mA
81.5053397942188;-0.79986572265625;-0.069732666015625;7.08999998209947;710;100 mA
81.5153397941936;-0.7989501953125;-0.069580078125;7.09999998207422;711;100 mA
81.5253397941683;-0.799560546875;-0.06988525390625;7.10999998204898;712;100 mA
81.5353397941431;-0.799560546875;-0.06976318359375;7.11999998202373;713;100 mA
81.5453397941178;-0.799560546875;-0.069732666015625;7.12999998199848;714;100 mA
81.5553397940926;-0.79925537109375;-0.06939697265625;7.13999998197323;715;100 mA
81.5653397940673;-0.79986572265625;-0.069244384765625;7.14999998194799;716;100 mA
81.5753397940421;-0.79925537109375;-0.069244384765625;7.15999998192274;717;100 mA
81.5853397940168;-0.799560546875;-0.069366455078125;7.16999998189749;718;100 mA
81.5953397939916;-0.79925537109375;-0.069183349609375;7.17999998187224;719;100 mA
81.6053397939663;-0.79925537109375;-0.069183349609375;7.189999981847;720;100 mA
81.6153397939411;-0.799560546875;-0.06939697265625;7.19999998182175;721;100 mA
81.6253397939158;-0.799560546875;-0.069488525390625;7.2099999817965;722;100 mA
81.6353397938906;-0.79925537109375;-0.069610595703125;7.21999998177125;723;100 mA
81.6453397938653;-0.799560546875;-0.06939697265625;7.229999981746;724;100 mA
81.6553397938401;-0.799560546875;-0.0694580078125;7.23999998172076;725;100 mA
81.6653397938148;-0.79925537109375;-0.069580078125;7.24999998169551;726;100 mA
81.6753397937896;-0.79864501953125;-0.06976318359375;7.25999998167026;727;100 mA
81.6853397937643;-0.79925537109375;-0.06982421875;7.26999998164501;728;100 mA
81.6953397937391;-0.799560546875;-0.069854736328125;7.27999998161977;729;100 mA
81.7053397937138;-0.799560546875;-0.06982421875;7.28999998159452;730;100 mA
81.7153397936886;-0.7989501953125;-0.06982421875;7.29999998156927;731;100 mA
81.7253397936634;-0.799560546875;-0.069580078125;7.30999998154402;732;100 mA
81.7353397936381;-0.8001708984375;-0.069488525390625;7.31999998151878;733;100 mA
81.7453397936129;-0.79925537109375;-0.069366455078125;7.32999998149353;734;100 mA
81.7553397935876;-0.799560546875;-0.069244384765625;7.33999998146828;735;100 mA
81.7653397935624;-0.79925537109375;-0.069488525390625;7.34999998144303;736;100 mA
81.7753397935371;-0.79986572265625;-0.069427490234375;7.35999998141779;737;100 mA
81.7853397935119;-0.79925537109375;-0.069488525390625;7.36999998139254;738;100 mA
81.7953397934866;-0.7989501953125;-0.06939697265625;7.37999998136729;739;100 mA
81.8053397934614;-0.799560546875;-0.06939697265625;7.38999998134204;740;100 mA
81.8153397934361;-0.7989501953125;-0.069488525390625;7.3999999813168;741;100 mA
81.8253397934109;-0.799560546875;-0.069915771484375;7.40999998129155;742;100 mA
81.8353397933856;-0.79986572265625;-0.069976806640625;7.4199999812663;743;100 mA
81.8453397933604;-0.79925537109375;-0.0703125;7.42999998124105;744;100 mA
81.8553397933351;-0.8001708984375;-0.07037353515625;7.43999998121581;745;100 mA
81.8653397933099;-0.79925537109375;-0.0706787109375;7.44999998119056;746;100 mA
81.8753397932846;-0.79925537109375;-0.070526123046875;7.45999998116531;747;100 mA
81.8853397932594;-0.8001708984375;-0.070556640625;7.46999998114006;748;100 mA
81.8953397932341;-0.79925537109375;-0.070343017578125;7.47999998111482;749;100 mA
81.9053397932089;-0.8001708984375;-0.070526123046875;7.48999998108957;750;100 mA
81.9153397931836;-0.79925537109375;-0.07037353515625;7.49999998106432;751;100 mA
81.9253397931584;-0.799560546875;-0.070587158203125;7.50999998103907;752;100 mA
81.9353397931332;-0.799560546875;-0.07049560546875;7.51999998101383;753;100 mA
81.9453397931079;-0.79925537109375;-0.07049560546875;7.52999998098858;754;100 mA
81.9553397930827;-0.799560546875;-0.070343017578125;7.53999998096333;755;100 mA
81.9653397930574;-0.79925537109375;-0.070281982421875;7.54999998093808;756;100 mA
81.9753397930322;-0.799560546875;-0.070343017578125;7.55999998091283;757;100 mA
81.9853397930069;-0.79925537109375;-0.070465087890625;7.56999998088759;758;100 mA
81.9953397929817;-0.799560546875;-0.070281982421875;7.57999998086234;759;100 mA
82.0053397929564;-0.79986572265625;-0.07025146484375;7.58999998083709;760;100 mA
82.0153397929312;-0.8001708984375;-0.07049560546875;7.59999998081184;761;100 mA
82.0253397929059;-0.79925537109375;-0.070526123046875;7.6099999807866;762;100 mA
82.0353397928807;-0.79925537109375;-0.070556640625;7.61999998076135;763;100 mA
82.0453397928554;-0.799560546875;-0.07012939453125;7.6299999807361;764;100 mA
82.0553397928302;-0.79925537109375;-0.069976806640625;7.63999998071085;765;100 mA
82.0653397928049;-0.799560546875;-0.069976806640625;7.64999998068561;766;100 mA
82.0753397927797;-0.79986572265625;-0.069976806640625;7.65999998066036;767;100 mA
82.0853397927544;-0.79925537109375;-0.06982421875;7.66999998063511;768;100 mA
82.0953397927292;-0.79925537109375;-0.069671630859375;7.67999998060986;769;100 mA
82.1053397927039;-0.799560546875;-0.06951904296875;7.68999998058462;770;100 mA
82.1153397926787;-0.79986572265625;-0.069427490234375;7.69999998055937;771;100 mA
82.1253397926534;-0.79925537109375;-0.06915283203125;7.70999998053412;772;100 mA
82.1353397926282;-0.79925537109375;-0.069061279296875;7.71999998050887;773;100 mA
82.145339792603;-0.799560546875;-0.0689697265625;7.72999998048363;774;100 mA
82.1553397925777;-0.79925537109375;-0.068878173828125;7.73999998045838;775;100 mA
82.1653397925525;-0.7989501953125;-0.069183349609375;7.74999998043313;776;100 mA
82.1753397925272;-0.79986572265625;-0.069122314453125;7.75999998040788;777;100 mA
82.185339792502;-0.79925537109375;-0.069061279296875;7.76999998038264;778;100 mA
82.1953397924767;-0.799560546875;-0.06884765625;7.77999998035739;779;100 mA
82.2053397924515;-0.799560546875;-0.068572998046875;7.78999998033214;780;100 mA
82.2153397924262;-0.79986572265625;-0.068450927734375;7.79999998030689;781;100 mA
82.225339792401;-0.79986572265625;-0.06866455078125;7.80999998028165;782;100 mA
82.2353397923757;-0.799560546875;-0.06866455078125;7.8199999802564;783;100 mA
82.2453397923505;-0.79986572265625;-0.068939208984375;7.82999998023115;784;100 mA
82.2553397923252;-0.79986572265625;-0.06903076171875;7.8399999802059;785;100 mA
82.2653397923;-0.79925537109375;-0.06927490234375;7.84999998018066;786;100 mA
82.2753397922747;-0.799560546875;-0.069122314453125;7.85999998015541;787;100 mA
82.2853397922495;-0.799560546875;-0.06903076171875;7.86999998013016;788;100 mA
82.2953397922242;-0.799560546875;-0.068756103515625;7.87999998010491;789;100 mA
82.305339792199;-0.799560546875;-0.0689697265625;7.88999998007966;790;100 mA
82.3153397921737;-0.799560546875;-0.06878662109375;7.89999998005442;791;100 mA
82.3253397921485;-0.8001708984375;-0.069000244140625;7.90999998002917;792;100 mA
82.3353397921232;-0.79925537109375;-0.06890869140625;7.91999998000392;793;100 mA
82.345339792098;-0.799560546875;-0.06890869140625;7.92999997997867;794;100 mA
82.3553397920728;-0.79925537109375;-0.0687255859375;7.93999997995343;795;100 mA
82.3653397920475;-0.799560546875;-0.0687255859375;7.94999997992818;796;100 mA
82.3753397920223;-0.79925537109375;-0.068878173828125;7.95999997990293;797;100 mA
82.385339791997;-0.79986572265625;-0.069122314453125;7.96999997987768;798;100 mA
82.3953397919718;-0.79986572265625;-0.069091796875;7.97999997985244;799;100 mA
82.4053397919465;-0.799560546875;-0.069244384765625;7.98999997982719;800;100 mA
82.4153397919213;-0.799560546875;-0.069610595703125;7.99999997980194;801;100 mA
82.425339791896;-0.799560546875;-0.0697021484375;8.00999997977669;802;100 mA
82.4353397918708;-0.799560546875;-0.06976318359375;8.01999997975145;803;100 mA
82.4453397918455;-0.79986572265625;-0.06939697265625;8.0299999797262;804;100 mA
82.4553397918203;-0.799560546875;-0.06927490234375;8.03999997970095;805;100 mA
82.465339791795;-0.799560546875;-0.069244384765625;8.0499999796757;806;100 mA
82.4753397917698;-0.7989501953125;-0.06927490234375;8.05999997965046;807;100 mA
82.4853397917445;-0.799560546875;-0.069183349609375;8.06999997962521;808;100 mA
82.4953397917193;-0.79986572265625;-0.069061279296875;8.07999997959996;809;100 mA
82.505339791694;-0.799560546875;-0.068878173828125;8.08999997957471;810;100 mA
82.5153397916688;-0.799560546875;-0.068756103515625;8.09999997954947;811;100 mA
82.5253397916435;-0.799560546875;-0.068450927734375;8.10999997952422;812;100 mA
82.5353397916183;-0.79986572265625;-0.068267822265625;8.11999997949897;813;100 mA
82.5453397915931;-0.79986572265625;-0.068145751953125;8.12999997947372;814;100 mA
82.5553397915678;-0.799560546875;-0.0679931640625;8.13999997944848;815;100 mA
82.5653397915426;-0.79986572265625;-0.068267822265625;8.14999997942323;816;100 mA
82.5753397915173;-0.7989501953125;-0.0682373046875;8.15999997939798;817;100 mA
82.5853397914921;-0.79986572265625;-0.0682373046875;8.16999997937273;818;100 mA
82.5953397914668;-0.79925537109375;-0.068023681640625;8.17999997934749;819;100 mA
82.6053397914416;-0.799560546875;-0.067840576171875;8.18999997932224;820;100 mA
82.6153397914163;-0.8001708984375;-0.067718505859375;8.19999997929699;821;100 mA
82.6253397913911;-0.799560546875;-0.06793212890625;8.20999997927174;822;100 mA
82.6353397913658;-0.8001708984375;-0.067840576171875;8.2199999792465;823;100 mA
82.6453397913406;-0.79925537109375;-0.06805419921875;8.22999997922125;824;100 mA
82.6553397913153;-0.79925537109375;-0.06805419921875;8.239999979196;825;100 mA
82.6653397912901;-0.7989501953125;-0.06829833984375;8.24999997917075;826;100 mA
82.6753397912648;-0.79925537109375;-0.068084716796875;8.2599999791455;827;100 mA
82.6853397912396;-0.79925537109375;-0.0679931640625;8.26999997912026;828;100 mA
82.6953397912143;-0.79925537109375;-0.067779541015625;8.27999997909501;829;100 mA
82.7053397911891;-0.79925537109375;-0.0679931640625;8.28999997906976;830;100 mA
82.7153397911638;-0.79986572265625;-0.06793212890625;8.29999997904451;831;100 mA
82.7253397911386;-0.799560546875;-0.06817626953125;8.30999997901927;832;100 mA
82.7353397911133;-0.79925537109375;-0.068267822265625;8.31999997899402;833;100 mA
82.7453397910881;-0.79925537109375;-0.06829833984375;8.32999997896877;834;100 mA
82.7553397910629;-0.799560546875;-0.06817626953125;8.33999997894352;835;100 mA
82.7653397910376;-0.79925537109375;-0.068023681640625;8.34999997891828;836;100 mA
82.7753397910124;-0.799560546875;-0.06805419921875;8.35999997889303;837;100 mA
82.7853397909871;-0.799560546875;-0.068084716796875;8.36999997886778;838;100 mA
82.7953397909619;-0.799560546875;-0.067901611328125;8.37999997884253;839;100 mA
82.8053397909366;-0.799560546875;-0.067840576171875;8.38999997881729;840;100 mA
82.8153397909114;-0.799560546875;-0.067901611328125;8.39999997879204;841;100 mA
82.8253397908861;-0.799560546875;-0.067718505859375;8.40999997876679;842;100 mA
82.8353397908609;-0.8001708984375;-0.067535400390625;8.41999997874154;843;100 mA
82.8453397908356;-0.799560546875;-0.0670166015625;8.4299999787163;844;100 mA
82.8553397908104;-0.79925537109375;-0.066802978515625;8.43999997869105;845;100 mA
82.8653397907851;-0.79986572265625;-0.066802978515625;8.4499999786658;846;100 mA
82.8753397907599;-0.79925537109375;-0.066802978515625;8.45999997864055;847;100 mA
82.8853397907346;-0.79925537109375;-0.0667724609375;8.46999997861531;848;100 mA
82.8953397907094;-0.79925537109375;-0.06671142578125;8.47999997859006;849;100 mA
82.9053397906841;-0.799560546875;-0.066650390625;8.48999997856481;850;100 mA
82.9153397906589;-0.79925537109375;-0.06658935546875;8.49999997853956;851;100 mA
82.9253397906336;-0.79925537109375;-0.06640625;8.50999997851432;852;100 mA
82.9353397906084;-0.799560546875;-0.066375732421875;8.51999997848907;853;100 mA
82.9453397905831;-0.79925537109375;-0.066558837890625;8.52999997846382;854;100 mA
82.9553397905579;-0.799560546875;-0.066619873046875;8.53999997843857;855;100 mA
82.9653397905327;-0.799560546875;-0.067138671875;8.54999997841333;856;100 mA
82.9753397905074;-0.7989501953125;-0.067230224609375;8.55999997838808;857;100 mA
82.9853397904822;-0.799560546875;-0.0673828125;8.56999997836283;858;100 mA
82.9953397904569;-0.799560546875;-0.06732177734375;8.57999997833758;859;100 mA
83.0053397904317;-0.799560546875;-0.067291259765625;8.58999997831233;860;100 mA
83.0153397904064;-0.799560546875;-0.0673828125;8.59999997828709;861;100 mA
83.0253397903812;-0.799560546875;-0.0677490234375;8.60999997826184;862;100 mA
83.0353397903559;-0.799560546875;-0.067779541015625;8.61999997823659;863;100 mA
83.0453397903307;-0.799560546875;-0.06817626953125;8.62999997821134;864;100 mA
83.0553397903054;-0.79925537109375;-0.068450927734375;8.6399999781861;865;100 mA
83.0653397902802;-0.7989501953125;-0.068817138671875;8.64999997816085;866;100 mA
83.0753397902549;-0.79986572265625;-0.068878173828125;8.6599999781356;867;100 mA
83.0853397902297;-0.799560546875;-0.06890869140625;8.66999997811035;868;100 mA
83.0953397902044;-0.79925537109375;-0.068878173828125;8.67999997808511;869;100 mA
83.1053397901792;-0.79986572265625;-0.069122314453125;8.68999997805986;870;100 mA
83.1153397901539;-0.79986572265625;-0.069122314453125;8.69999997803461;871;100 mA
83.1253397901287;-0.8001708984375;-0.06927490234375;8.70999997800936;872;100 mA
83.1353397901034;-0.79986572265625;-0.06927490234375;8.71999997798412;873;100 mA
83.1453397900782;-0.799560546875;-0.069183349609375;8.72999997795887;874;100 mA
83.1553397900529;-0.799560546875;-0.06903076171875;8.73999997793362;875;100 mA
83.1653397900277;-0.79925537109375;-0.068817138671875;8.74999997790837;876;100 mA
83.1753397900025;-0.79925537109375;-0.06878662109375;8.75999997788313;877;100 mA
83.1853397899772;-0.799560546875;-0.0687255859375;8.76999997785788;878;100 mA
83.195339789952;-0.799560546875;-0.068603515625;8.77999997783263;879;100 mA
83.2053397899267;-0.79986572265625;-0.0684814453125;8.78999997780738;880;100 mA
83.2153397899015;-0.79986572265625;-0.068634033203125;8.79999997778214;881;100 mA
83.2253397898762;-0.79925537109375;-0.068511962890625;8.80999997775689;882;100 mA
83.235339789851;-0.79925537109375;-0.068450927734375;8.81999997773164;883;100 mA
83.2453397898257;-0.799560546875;-0.068084716796875;8.82999997770639;884;100 mA
83.2553397898005;-0.79986572265625;-0.06805419921875;8.83999997768115;885;100 mA
83.2653397897752;-0.79925537109375;-0.068206787109375;8.8499999776559;886;100 mA
83.27533978975;-0.799560546875;-0.068450927734375;8.85999997763065;887;100 mA
83.2853397897247;-0.799560546875;-0.0687255859375;8.8699999776054;888;100 mA
83.2953397896995;-0.79925537109375;-0.06890869140625;8.87999997758016;889;100 mA
83.3053397896742;-0.79986572265625;-0.069061279296875;8.88999997755491;890;100 mA
83.315339789649;-0.79925537109375;-0.069061279296875;8.89999997752966;891;100 mA
83.3253397896237;-0.799560546875;-0.0689697265625;8.90999997750441;892;100 mA
83.3353397895985;-0.799560546875;-0.06890869140625;8.91999997747916;893;100 mA
83.3453397895732;-0.799560546875;-0.069000244140625;8.92999997745392;894;100 mA
83.355339789548;-0.799560546875;-0.068939208984375;8.93999997742867;895;100 mA
83.3653397895227;-0.7989501953125;-0.069305419921875;8.94999997740342;896;100 mA
83.3753397894975;-0.799560546875;-0.069244384765625;8.95999997737817;897;100 mA
83.3853397894723;-0.799560546875;-0.069183349609375;8.96999997735293;898;100 mA
83.395339789447;-0.799560546875;-0.06884765625;8.97999997732768;899;100 mA
83.4053397894218;-0.79986572265625;-0.068572998046875;8.98999997730243;900;100 mA
83.4153397893965;-0.799560546875;-0.068328857421875;8.99999997727718;901;100 mA
83.4253397893713;-0.79925537109375;-0.068389892578125;9.00999997725194;902;100 mA
83.435339789346;-0.79986572265625;-0.06817626953125;9.01999997722669;903;100 mA
83.4453397893208;-0.79925537109375;-0.06829833984375;9.02999997720144;904;100 mA
83.4553397892955;-0.7989501953125;-0.068359375;9.03999997717619;905;100 mA
83.4653397892703;-0.799560546875;-0.06854248046875;9.04999997715095;906;100 mA
83.475339789245;-0.79925537109375;-0.068389892578125;9.0599999771257;907;100 mA
83.4853397892198;-0.79986572265625;-0.06829833984375;9.06999997710045;908;100 mA
83.4953397891945;-0.79925537109375;-0.068115234375;9.0799999770752;909;100 mA
83.5053397891693;-0.799560546875;-0.0682373046875;9.08999997704996;910;100 mA
83.515339789144;-0.79986572265625;-0.06817626953125;9.09999997702471;911;100 mA
83.5253397891188;-0.79925537109375;-0.068267822265625;9.10999997699946;912;100 mA
83.5353397890935;-0.79925537109375;-0.068359375;9.11999997697421;913;100 mA
83.5453397890683;-0.8001708984375;-0.068389892578125;9.12999997694897;914;100 mA
83.555339789043;-0.79925537109375;-0.068359375;9.13999997692372;915;100 mA
83.5653397890178;-0.799560546875;-0.06817626953125;9.14999997689847;916;100 mA
83.5753397889926;-0.79925537109375;-0.068206787109375;9.15999997687322;917;100 mA
83.5853397889673;-0.799560546875;-0.068084716796875;9.16999997684798;918;100 mA
83.5953397889421;-0.7989501953125;-0.067901611328125;9.17999997682273;919;100 mA
83.6053397889168;-0.79925537109375;-0.067840576171875;9.18999997679748;920;100 mA
83.6153397888916;-0.799560546875;-0.068023681640625;9.19999997677223;921;100 mA
83.6253397888663;-0.7989501953125;-0.06787109375;9.20999997674699;922;100 mA
83.6353397888411;-0.799560546875;-0.067779541015625;9.21999997672174;923;100 mA
83.6453397888158;-0.79925537109375;-0.067291259765625;9.22999997669649;924;100 mA
83.6553397887906;-0.799560546875;-0.067108154296875;9.23999997667124;925;100 mA
83.6653397887653;-0.79986572265625;-0.0670166015625;9.249999976646;926;100 mA
83.6753397887401;-0.8001708984375;-0.066986083984375;9.25999997662075;927;100 mA
83.6853397887148;-0.7989501953125;-0.066986083984375;9.2699999765955;928;100 mA
83.6953397886896;-0.799560546875;-0.066986083984375;9.27999997657025;929;100 mA
83.7053397886643;-0.8001708984375;-0.06707763671875;9.289999976545;930;100 mA
83.7153397886391;-0.799560546875;-0.06707763671875;9.29999997651976;931;100 mA
83.7253397886138;-0.799560546875;-0.066986083984375;9.30999997649451;932;100 mA
83.7353397885886;-0.79925537109375;-0.066925048828125;9.31999997646926;933;100 mA
83.7453397885633;-0.799560546875;-0.067047119140625;9.32999997644401;934;100 mA
83.7553397885381;-0.799560546875;-0.067047119140625;9.33999997641877;935;100 mA
83.7653397885128;-0.799560546875;-0.0675048828125;9.34999997639352;936;100 mA
83.7753397884876;-0.79986572265625;-0.067596435546875;9.35999997636827;937;100 mA
83.7853397884624;-0.79986572265625;-0.0677490234375;9.36999997634302;938;100 mA
83.7953397884371;-0.799560546875;-0.067657470703125;9.37999997631778;939;100 mA
83.8053397884119;-0.799560546875;-0.067596435546875;9.38999997629253;940;100 mA
83.8153397883866;-0.79925537109375;-0.0675048828125;9.39999997626728;941;100 mA
83.8253397883614;-0.7989501953125;-0.0677490234375;9.40999997624203;942;100 mA
83.8353397883361;-0.799560546875;-0.067596435546875;9.41999997621679;943;100 mA
83.8453397883109;-0.7989501953125;-0.067840576171875;9.42999997619154;944;100 mA
83.8553397882856;-0.79925537109375;-0.067962646484375;9.43999997616629;945;100 mA
83.8653397882604;-0.7989501953125;-0.06829833984375;9.44999997614104;946;100 mA
83.8753397882351;-0.799560546875;-0.068267822265625;9.4599999761158;947;100 mA
83.8853397882099;-0.799560546875;-0.068206787109375;9.46999997609055;948;100 mA
83.8953397881846;-0.799560546875;-0.0679931640625;9.4799999760653;949;100 mA
83.9053397881594;-0.79925537109375;-0.068084716796875;9.48999997604005;950;100 mA
83.9153397881341;-0.79925537109375;-0.0679931640625;9.49999997601481;951;100 mA
83.9253397881089;-0.799560546875;-0.06805419921875;9.50999997598956;952;100 mA
83.9353397880836;-0.79986572265625;-0.068084716796875;9.51999997596431;953;100 mA
83.9453397880584;-0.799560546875;-0.067962646484375;9.52999997593906;954;100 mA
83.9553397880331;-0.79986572265625;-0.067779541015625;9.53999997591382;955;100 mA
83.9653397880079;-0.79925537109375;-0.067413330078125;9.54999997588857;956;100 mA
83.9753397879826;-0.79925537109375;-0.0672607421875;9.55999997586332;957;100 mA
83.9853397879574;-0.799560546875;-0.066986083984375;9.56999997583807;958;100 mA
83.9953397879322;-0.79925537109375;-0.06671142578125;9.57999997581283;959;100 mA
84.0053397879069;-0.79925537109375;-0.0665283203125;9.58999997578758;960;100 mA
84.0153397878817;-0.79986572265625;-0.066650390625;9.59999997576233;961;100 mA
84.0253397878564;-0.79925537109375;-0.0665283203125;9.60999997573708;962;100 mA
84.0353397878312;-0.79925537109375;-0.0665283203125;9.61999997571183;963;100 mA
84.0453397878059;-0.79986572265625;-0.066192626953125;9.62999997568659;964;100 mA
84.0553397877807;-0.7989501953125;-0.066131591796875;9.63999997566134;965;100 mA
84.0653397877554;-0.79925537109375;-0.06622314453125;9.64999997563609;966;100 mA
84.0753397877302;-0.7989501953125;-0.06634521484375;9.65999997561084;967;100 mA
84.0853397877049;-0.7989501953125;-0.066558837890625;9.6699999755856;968;100 mA
84.0953397876797;-0.79925537109375;-0.06658935546875;9.67999997556035;969;100 mA
84.1053397876544;-0.79925537109375;-0.066619873046875;9.6899999755351;970;100 mA
84.1153397876292;-0.799560546875;-0.066558837890625;9.69999997550985;971;100 mA
84.1253397876039;-0.799560546875;-0.06640625;9.70999997548461;972;100 mA
84.1353397875787;-0.799560546875;-0.066314697265625;9.71999997545936;973;100 mA
84.1453397875534;-0.7989501953125;-0.066375732421875;9.72999997543411;974;100 mA
84.1553397875282;-0.799560546875;-0.06634521484375;9.73999997540886;975;100 mA
84.1653397875029;-0.79925537109375;-0.06671142578125;9.74999997538362;976;100 mA
84.1753397874777;-0.799560546875;-0.0667724609375;9.75999997535837;977;100 mA
84.1853397874524;-0.79986572265625;-0.066925048828125;9.76999997533312;978;100 mA
84.1953397874272;-0.8001708984375;-0.0667724609375;9.77999997530787;979;100 mA
84.205339787402;-0.799560546875;-0.066680908203125;9.78999997528263;980;100 mA
84.2153397873767;-0.799560546875;-0.06658935546875;9.79999997525738;981;100 mA
84.2253397873515;-0.79925537109375;-0.0667724609375;9.80999997523213;982;100 mA
84.2353397873262;-0.799560546875;-0.066650390625;9.81999997520688;983;100 mA
84.245339787301;-0.79986572265625;-0.066925048828125;9.82999997518164;984;100 mA
84.2553397872757;-0.799560546875;-0.067047119140625;9.83999997515639;985;100 mA
84.2653397872505;-0.79925537109375;-0.0672607421875;9.84999997513114;986;100 mA
84.2753397872252;-0.799560546875;-0.06719970703125;9.85999997510589;987;100 mA
84.2853397872;-0.79986572265625;-0.067169189453125;9.86999997508065;988;100 mA
84.2953397871747;-0.79925537109375;-0.067108154296875;9.8799999750554;989;100 mA
84.3053397871495;-0.79986572265625;-0.06732177734375;9.88999997503015;990;100 mA
84.3153397871242;-0.79986572265625;-0.067413330078125;9.8999999750049;991;100 mA
84.325339787099;-0.79986572265625;-0.067626953125;9.90999997497966;992;100 mA
84.3353397870737;-0.79925537109375;-0.067901611328125;9.91999997495441;993;100 mA
84.3453397870485;-0.79925537109375;-0.0679931640625;9.92999997492916;994;100 mA
84.3553397870232;-0.79986572265625;-0.068115234375;9.93999997490391;995;100 mA
84.365339786998;-0.79925537109375;-0.06793212890625;9.94999997487866;996;100 mA
84.3753397869727;-0.7989501953125;-0.067962646484375;9.95999997485342;997;100 mA
84.3853397869475;-0.79925537109375;-0.067840576171875;9.96999997482817;998;100 mA
84.3953397869222;-0.79925537109375;-0.067779541015625;9.97999997480292;999;100 mA
84.405339786897;-0.79986572265625;-0.067718505859375;9.98999997477767;1000;100 mA
