Time (s);WE(1).Potential (V);WE(1).Current (A);Corrected time (s);Index;Current range
115.479249708443;-0.9002685546875;-0.34503173828125;0;1;100 mA
115.489249708418;-0.89996337890625;-0.255279541015625;0.00999999997475243;2;100 mA
115.499249708392;-0.89935302734375;-0.2117919921875;0.0199999999495049;3;100 mA
115.509249708367;-0.899658203125;-0.185455322265625;0.0299999999242573;4;100 mA
115.519249708342;-0.899658203125;-0.167083740234375;0.0399999998990097;5;100 mA
115.529249708317;-0.899658203125;-0.152618408203125;0.0499999998737621;6;100 mA
115.539249708291;-0.8990478515625;-0.140533447265625;0.0599999998485146;7;100 mA
115.549249708266;-0.899658203125;-0.1318359375;0.069999999823267;8;100 mA
115.559249708241;-0.899658203125;-0.1248779296875;0.0799999997980194;9;100 mA
115.569249708216;-0.899658203125;-0.11907958984375;0.0899999997727718;10;100 mA
115.57924970819;-0.89996337890625;-0.11395263671875;0.0999999997475243;11;100 mA
115.589249708165;-0.89935302734375;-0.1103515625;0.109999999722277;12;100 mA
115.59924970814;-0.89996337890625;-0.10626220703125;0.119999999697029;13;100 mA
115.609249708115;-0.89935302734375;-0.103302001953125;0.129999999671782;14;100 mA
115.619249708089;-0.89996337890625;-0.09991455078125;0.139999999646534;15;100 mA
115.629249708064;-0.899658203125;-0.09765625;0.149999999621286;16;100 mA
115.639249708039;-0.89935302734375;-0.095794677734375;0.159999999596039;17;100 mA
115.649249708014;-0.89935302734375;-0.094390869140625;0.169999999570791;18;100 mA
115.659249707988;-0.89935302734375;-0.092437744140625;0.179999999545544;19;100 mA
115.669249707963;-0.89996337890625;-0.09149169921875;0.189999999520296;20;100 mA
115.679249707938;-0.8990478515625;-0.08984375;0.199999999495049;21;100 mA
115.689249707913;-0.89996337890625;-0.088897705078125;0.209999999469801;22;100 mA
115.699249707887;-0.899658203125;-0.087249755859375;0.219999999444553;23;100 mA
115.709249707862;-0.89935302734375;-0.08642578125;0.229999999419306;24;100 mA
115.719249707837;-0.8990478515625;-0.085723876953125;0.239999999394058;25;100 mA
115.729249707812;-0.8990478515625;-0.085296630859375;0.249999999368811;26;100 mA
115.739249707786;-0.8990478515625;-0.084808349609375;0.259999999343563;27;100 mA
115.749249707761;-0.89935302734375;-0.08447265625;0.269999999318316;28;100 mA
115.759249707736;-0.899658203125;-0.08349609375;0.279999999293068;29;100 mA
115.769249707711;-0.89935302734375;-0.08282470703125;0.28999999926782;30;100 mA
115.779249707685;-0.89935302734375;-0.08184814453125;0.299999999242573;31;100 mA
115.78924970766;-0.899658203125;-0.081268310546875;0.309999999217325;32;100 mA
115.799249707635;-0.89996337890625;-0.08099365234375;0.319999999192078;33;100 mA
115.80924970761;-0.899658203125;-0.0804443359375;0.32999999916683;34;100 mA
115.819249707585;-0.89935302734375;-0.0802001953125;0.339999999141583;35;100 mA
115.829249707559;-0.9002685546875;-0.0804443359375;0.349999999116335;36;100 mA
115.839249707534;-0.899658203125;-0.08026123046875;0.359999999091087;37;100 mA
115.849249707509;-0.89935302734375;-0.080291748046875;0.36999999906584;38;100 mA
115.859249707484;-0.899658203125;-0.079437255859375;0.379999999040592;39;100 mA
115.869249707458;-0.8990478515625;-0.079071044921875;0.389999999015345;40;100 mA
115.879249707433;-0.89935302734375;-0.078826904296875;0.399999998990097;41;100 mA
115.889249707408;-0.899658203125;-0.078704833984375;0.40999999896485;42;100 mA
115.899249707383;-0.89935302734375;-0.0780029296875;0.419999998939602;43;100 mA
115.909249707357;-0.89935302734375;-0.078155517578125;0.429999998914354;44;100 mA
115.919249707332;-0.89935302734375;-0.0772705078125;0.439999998889107;45;100 mA
115.929249707307;-0.899658203125;-0.077423095703125;0.449999998863859;46;100 mA
115.939249707282;-0.899658203125;-0.0765380859375;0.459999998838612;47;100 mA
115.949249707256;-0.89935302734375;-0.0767822265625;0.469999998813364;48;100 mA
115.959249707231;-0.899658203125;-0.07666015625;0.479999998788116;49;100 mA
115.969249707206;-0.89996337890625;-0.076873779296875;0.489999998762869;50;100 mA
115.979249707181;-0.8990478515625;-0.07659912109375;0.499999998737621;51;100 mA
115.989249707155;-0.89935302734375;-0.077606201171875;0.509999998712374;52;100 mA
115.99924970713;-0.8990478515625;-0.076904296875;0.519999998687126;53;100 mA
116.009249707105;-0.89935302734375;-0.077301025390625;0.529999998661879;54;100 mA
116.01924970708;-0.899658203125;-0.0765380859375;0.539999998636631;55;100 mA
116.029249707054;-0.899658203125;-0.0767822265625;0.549999998611383;56;100 mA
116.039249707029;-0.89935302734375;-0.0770263671875;0.559999998586136;57;100 mA
116.049249707004;-0.89935302734375;-0.077392578125;0.569999998560888;58;100 mA
116.059249706979;-0.9002685546875;-0.07720947265625;0.579999998535641;59;100 mA
116.069249706953;-0.89935302734375;-0.077972412109375;0.589999998510393;60;100 mA
116.079249706928;-0.89935302734375;-0.07781982421875;0.599999998485146;61;100 mA
116.089249706903;-0.89935302734375;-0.078277587890625;0.609999998459898;62;100 mA
116.099249706878;-0.899658203125;-0.077880859375;0.61999999843465;63;100 mA
116.109249706852;-0.899658203125;-0.077972412109375;0.629999998409403;64;100 mA
116.119249706827;-0.899658203125;-0.0780029296875;0.639999998384155;65;100 mA
116.129249706802;-0.89996337890625;-0.078216552734375;0.649999998358908;66;100 mA
116.139249706777;-0.8990478515625;-0.078338623046875;0.65999999833366;67;100 mA
116.149249706751;-0.899658203125;-0.078765869140625;0.669999998308413;68;100 mA
116.159249706726;-0.8990478515625;-0.07843017578125;0.679999998283165;69;100 mA
116.169249706701;-0.89935302734375;-0.07861328125;0.689999998257917;70;100 mA
116.179249706676;-0.89874267578125;-0.078338623046875;0.69999999823267;71;100 mA
116.18924970665;-0.899658203125;-0.0784912109375;0.709999998207422;72;100 mA
116.199249706625;-0.89935302734375;-0.078643798828125;0.719999998182175;73;100 mA
116.2092497066;-0.899658203125;-0.07843017578125;0.729999998156927;74;100 mA
116.219249706575;-0.8990478515625;-0.078216552734375;0.73999999813168;75;100 mA
116.229249706549;-0.899658203125;-0.078582763671875;0.749999998106432;76;100 mA
116.239249706524;-0.89935302734375;-0.078338623046875;0.759999998081184;77;100 mA
116.249249706499;-0.899658203125;-0.0784912109375;0.769999998055937;78;100 mA
116.259249706474;-0.89935302734375;-0.077972412109375;0.779999998030689;79;100 mA
116.269249706448;-0.89935302734375;-0.077972412109375;0.789999998005442;80;100 mA
116.279249706423;-0.899658203125;-0.078033447265625;0.799999997980194;81;100 mA
116.289249706398;-0.89935302734375;-0.078216552734375;0.809999997954947;82;100 mA
116.299249706373;-0.89996337890625;-0.077728271484375;0.819999997929699;83;100 mA
116.309249706347;-0.899658203125;-0.078094482421875;0.829999997904451;84;100 mA
116.319249706322;-0.899658203125;-0.07720947265625;0.839999997879204;85;100 mA
116.329249706297;-0.89935302734375;-0.0775146484375;0.849999997853956;86;100 mA
116.339249706272;-0.89935302734375;-0.07672119140625;0.859999997828709;87;100 mA
116.349249706246;-0.899658203125;-0.07696533203125;0.869999997803461;88;100 mA
116.359249706221;-0.899658203125;-0.07659912109375;0.879999997778214;89;100 mA
116.369249706196;-0.89935302734375;-0.076690673828125;0.889999997752966;90;100 mA
116.379249706171;-0.89935302734375;-0.076202392578125;0.899999997727718;91;100 mA
116.389249706145;-0.899658203125;-0.077117919921875;0.909999997702471;92;100 mA
116.39924970612;-0.89874267578125;-0.076416015625;0.919999997677223;93;100 mA
116.409249706095;-0.89996337890625;-0.076873779296875;0.929999997651976;94;100 mA
116.41924970607;-0.89935302734375;-0.076263427734375;0.939999997626728;95;100 mA
116.429249706044;-0.89935302734375;-0.0765380859375;0.949999997601481;96;100 mA
116.439249706019;-0.89996337890625;-0.076751708984375;0.959999997576233;97;100 mA
116.449249705994;-0.89935302734375;-0.0771484375;0.969999997550985;98;100 mA
116.459249705969;-0.899658203125;-0.0767822265625;0.979999997525738;99;100 mA
116.469249705943;-0.89935302734375;-0.0772705078125;0.98999999750049;100;100 mA
116.479249705918;-0.899658203125;-0.076934814453125;0.999999997475243;101;100 mA
116.489249705893;-0.899658203125;-0.077392578125;1.00999999745;102;100 mA
116.499249705868;-0.899658203125;-0.07708740234375;1.01999999742475;103;100 mA
116.509249705842;-0.899658203125;-0.07720947265625;1.0299999973995;104;100 mA
116.519249705817;-0.8990478515625;-0.07720947265625;1.03999999737425;105;100 mA
116.529249705792;-0.8990478515625;-0.07720947265625;1.049999997349;106;100 mA
116.539249705767;-0.89935302734375;-0.0771484375;1.05999999732376;107;100 mA
116.549249705741;-0.89935302734375;-0.077239990234375;1.06999999729851;108;100 mA
116.559249705716;-0.899658203125;-0.07659912109375;1.07999999727326;109;100 mA
116.569249705691;-0.89935302734375;-0.076385498046875;1.08999999724801;110;100 mA
116.579249705666;-0.89935302734375;-0.075897216796875;1.09999999722277;111;100 mA
116.58924970564;-0.89935302734375;-0.07574462890625;1.10999999719752;112;100 mA
116.599249705615;-0.89935302734375;-0.075927734375;1.11999999717227;113;100 mA
116.60924970559;-0.89935302734375;-0.075653076171875;1.12999999714702;114;100 mA
116.619249705565;-0.899658203125;-0.075469970703125;1.13999999712178;115;100 mA
116.629249705539;-0.899658203125;-0.075714111328125;1.14999999709653;116;100 mA
116.639249705514;-0.89935302734375;-0.075286865234375;1.15999999707128;117;100 mA
116.649249705489;-0.89935302734375;-0.075347900390625;1.16999999704603;118;100 mA
116.659249705464;-0.89935302734375;-0.07464599609375;1.17999999702079;119;100 mA
116.669249705438;-0.899658203125;-0.0745849609375;1.18999999699554;120;100 mA
116.679249705413;-0.89935302734375;-0.074554443359375;1.19999999697029;121;100 mA
116.689249705388;-0.89996337890625;-0.074737548828125;1.20999999694504;122;100 mA
116.699249705363;-0.899658203125;-0.07421875;1.2199999969198;123;100 mA
116.709249705337;-0.899658203125;-0.07470703125;1.22999999689455;124;100 mA
116.719249705312;-0.899658203125;-0.073822021484375;1.2399999968693;125;100 mA
116.729249705287;-0.89935302734375;-0.074188232421875;1.24999999684405;126;100 mA
116.739249705262;-0.899658203125;-0.07330322265625;1.25999999681881;127;100 mA
116.749249705236;-0.89935302734375;-0.0736083984375;1.26999999679356;128;100 mA
116.759249705211;-0.8990478515625;-0.0733642578125;1.27999999676831;129;100 mA
116.769249705186;-0.89935302734375;-0.073577880859375;1.28999999674306;130;100 mA
116.779249705161;-0.89996337890625;-0.073150634765625;1.29999999671782;131;100 mA
116.789249705135;-0.8990478515625;-0.07391357421875;1.30999999669257;132;100 mA
116.79924970511;-0.89935302734375;-0.073089599609375;1.31999999666732;133;100 mA
116.809249705085;-0.8990478515625;-0.073455810546875;1.32999999664207;134;100 mA
116.81924970506;-0.899658203125;-0.07281494140625;1.33999999661683;135;100 mA
116.829249705034;-0.8990478515625;-0.0731201171875;1.34999999659158;136;100 mA
116.839249705009;-0.899658203125;-0.07342529296875;1.35999999656633;137;100 mA
116.849249704984;-0.89935302734375;-0.07391357421875;1.36999999654108;138;100 mA
116.859249704959;-0.89996337890625;-0.0738525390625;1.37999999651583;139;100 mA
116.869249704934;-0.899658203125;-0.074493408203125;1.38999999649059;140;100 mA
116.879249704908;-0.899658203125;-0.0743408203125;1.39999999646534;141;100 mA
116.889249704883;-0.89935302734375;-0.07470703125;1.40999999644009;142;100 mA
116.899249704858;-0.899658203125;-0.0743408203125;1.41999999641484;143;100 mA
116.909249704833;-0.899658203125;-0.074310302734375;1.4299999963896;144;100 mA
116.919249704807;-0.89935302734375;-0.074462890625;1.43999999636435;145;100 mA
116.929249704782;-0.899658203125;-0.074432373046875;1.4499999963391;146;100 mA
116.939249704757;-0.8990478515625;-0.074432373046875;1.45999999631385;147;100 mA
116.949249704732;-0.8990478515625;-0.074432373046875;1.46999999628861;148;100 mA
116.959249704706;-0.89935302734375;-0.073944091796875;1.47999999626336;149;100 mA
116.969249704681;-0.89935302734375;-0.0738525390625;1.48999999623811;150;100 mA
116.979249704656;-0.899658203125;-0.07366943359375;1.49999999621286;151;100 mA
116.989249704631;-0.89935302734375;-0.073822021484375;1.50999999618762;152;100 mA
116.999249704605;-0.899658203125;-0.07415771484375;1.51999999616237;153;100 mA
117.00924970458;-0.89935302734375;-0.074127197265625;1.52999999613712;154;100 mA
117.019249704555;-0.899658203125;-0.074127197265625;1.53999999611187;155;100 mA
117.02924970453;-0.8990478515625;-0.074798583984375;1.54999999608663;156;100 mA
117.039249704504;-0.89935302734375;-0.07440185546875;1.55999999606138;157;100 mA
117.049249704479;-0.899658203125;-0.07464599609375;1.56999999603613;158;100 mA
117.059249704454;-0.899658203125;-0.07403564453125;1.57999999601088;159;100 mA
117.069249704429;-0.89935302734375;-0.0740966796875;1.58999999598564;160;100 mA
117.079249704403;-0.89935302734375;-0.074249267578125;1.59999999596039;161;100 mA
117.089249704378;-0.899658203125;-0.07464599609375;1.60999999593514;162;100 mA
117.099249704353;-0.89935302734375;-0.07421875;1.61999999590989;163;100 mA
117.109249704328;-0.8990478515625;-0.0748291015625;1.62999999588465;164;100 mA
117.119249704302;-0.899658203125;-0.073974609375;1.6399999958594;165;100 mA
117.129249704277;-0.89935302734375;-0.074462890625;1.64999999583415;166;100 mA
117.139249704252;-0.89996337890625;-0.07373046875;1.6599999958089;167;100 mA
117.149249704227;-0.8990478515625;-0.074188232421875;1.66999999578366;168;100 mA
117.159249704201;-0.899658203125;-0.07403564453125;1.67999999575841;169;100 mA
117.169249704176;-0.89935302734375;-0.074371337890625;1.68999999573316;170;100 mA
117.179249704151;-0.89935302734375;-0.07403564453125;1.69999999570791;171;100 mA
117.189249704126;-0.89874267578125;-0.074798583984375;1.70999999568267;172;100 mA
117.1992497041;-0.899658203125;-0.073974609375;1.71999999565742;173;100 mA
117.209249704075;-0.899658203125;-0.07427978515625;1.72999999563217;174;100 mA
117.21924970405;-0.89935302734375;-0.073577880859375;1.73999999560692;175;100 mA
117.229249704025;-0.89935302734375;-0.073822021484375;1.74999999558167;176;100 mA
117.239249703999;-0.89935302734375;-0.074066162109375;1.75999999555643;177;100 mA
117.249249703974;-0.89935302734375;-0.0743408203125;1.76999999553118;178;100 mA
117.259249703949;-0.89935302734375;-0.074127197265625;1.77999999550593;179;100 mA
117.269249703924;-0.89935302734375;-0.07452392578125;1.78999999548068;180;100 mA
117.279249703898;-0.89935302734375;-0.074310302734375;1.79999999545544;181;100 mA
117.289249703873;-0.89935302734375;-0.07464599609375;1.80999999543019;182;100 mA
117.299249703848;-0.89996337890625;-0.074249267578125;1.81999999540494;183;100 mA
117.309249703823;-0.89935302734375;-0.07427978515625;1.82999999537969;184;100 mA
117.319249703797;-0.8990478515625;-0.074493408203125;1.83999999535445;185;100 mA
117.329249703772;-0.89935302734375;-0.07464599609375;1.8499999953292;186;100 mA
117.339249703747;-0.899658203125;-0.0748291015625;1.85999999530395;187;100 mA
117.349249703722;-0.89996337890625;-0.07501220703125;1.8699999952787;188;100 mA
117.359249703696;-0.8990478515625;-0.07452392578125;1.87999999525346;189;100 mA
117.369249703671;-0.8984375;-0.074554443359375;1.88999999522821;190;100 mA
117.379249703646;-0.899658203125;-0.074371337890625;1.89999999520296;191;100 mA
117.389249703621;-0.899658203125;-0.0745849609375;1.90999999517771;192;100 mA
117.399249703595;-0.8990478515625;-0.074951171875;1.91999999515247;193;100 mA
117.40924970357;-0.8990478515625;-0.074981689453125;1.92999999512722;194;100 mA
117.419249703545;-0.89935302734375;-0.074981689453125;1.93999999510197;195;100 mA
117.42924970352;-0.8990478515625;-0.075775146484375;1.94999999507672;196;100 mA
117.439249703494;-0.89996337890625;-0.075531005859375;1.95999999505148;197;100 mA
117.449249703469;-0.89996337890625;-0.07598876953125;1.96999999502623;198;100 mA
117.459249703444;-0.89935302734375;-0.075531005859375;1.97999999500098;199;100 mA
117.469249703419;-0.8990478515625;-0.075714111328125;1.98999999497573;200;100 mA
117.479249703393;-0.899658203125;-0.075958251953125;1.99999999495049;201;100 mA
117.489249703368;-0.899658203125;-0.0765380859375;2.00999999492524;202;100 mA
117.499249703343;-0.899658203125;-0.076202392578125;2.01999999489999;203;100 mA
117.509249703318;-0.899658203125;-0.076873779296875;2.02999999487474;204;100 mA
117.519249703292;-0.8990478515625;-0.076141357421875;2.0399999948495;205;100 mA
117.529249703267;-0.89935302734375;-0.076873779296875;2.04999999482425;206;100 mA
117.539249703242;-0.89996337890625;-0.076385498046875;2.059999994799;207;100 mA
117.549249703217;-0.89935302734375;-0.076995849609375;2.06999999477375;208;100 mA
117.559249703191;-0.89935302734375;-0.076812744140625;2.0799999947485;209;100 mA
117.569249703166;-0.899658203125;-0.077117919921875;2.08999999472326;210;100 mA
117.579249703141;-0.899658203125;-0.07666015625;2.09999999469801;211;100 mA
117.589249703116;-0.899658203125;-0.077392578125;2.10999999467276;212;100 mA
117.59924970309;-0.899658203125;-0.076507568359375;2.11999999464751;213;100 mA
117.609249703065;-0.89935302734375;-0.076751708984375;2.12999999462227;214;100 mA
117.61924970304;-0.8990478515625;-0.07611083984375;2.13999999459702;215;100 mA
117.629249703015;-0.89996337890625;-0.076385498046875;2.14999999457177;216;100 mA
117.639249702989;-0.89996337890625;-0.0765380859375;2.15999999454652;217;100 mA
117.649249702964;-0.89935302734375;-0.076934814453125;2.16999999452128;218;100 mA
117.659249702939;-0.899658203125;-0.07672119140625;2.17999999449603;219;100 mA
117.669249702914;-0.8990478515625;-0.07720947265625;2.18999999447078;220;100 mA
117.679249702888;-0.899658203125;-0.076934814453125;2.19999999444553;221;100 mA
117.689249702863;-0.8990478515625;-0.077239990234375;2.20999999442029;222;100 mA
117.699249702838;-0.89935302734375;-0.076751708984375;2.21999999439504;223;100 mA
117.709249702813;-0.89935302734375;-0.076507568359375;2.22999999436979;224;100 mA
117.719249702787;-0.89874267578125;-0.076324462890625;2.23999999434454;225;100 mA
117.729249702762;-0.89935302734375;-0.076263427734375;2.2499999943193;226;100 mA
117.739249702737;-0.89935302734375;-0.076263427734375;2.25999999429405;227;100 mA
117.749249702712;-0.89935302734375;-0.07647705078125;2.2699999942688;228;100 mA
117.759249702686;-0.899658203125;-0.075958251953125;2.27999999424355;229;100 mA
117.769249702661;-0.89935302734375;-0.075927734375;2.28999999421831;230;100 mA
117.779249702636;-0.8990478515625;-0.075531005859375;2.29999999419306;231;100 mA
117.789249702611;-0.899658203125;-0.075469970703125;2.30999999416781;232;100 mA
117.799249702585;-0.89935302734375;-0.075531005859375;2.31999999414256;233;100 mA
117.80924970256;-0.89996337890625;-0.075225830078125;2.32999999411732;234;100 mA
117.819249702535;-0.899658203125;-0.07489013671875;2.33999999409207;235;100 mA
117.82924970251;-0.8990478515625;-0.0751953125;2.34999999406682;236;100 mA
117.839249702484;-0.89935302734375;-0.074615478515625;2.35999999404157;237;100 mA
117.849249702459;-0.899658203125;-0.074737548828125;2.36999999401633;238;100 mA
117.859249702434;-0.899658203125;-0.07403564453125;2.37999999399108;239;100 mA
117.869249702409;-0.89935302734375;-0.073944091796875;2.38999999396583;240;100 mA
117.879249702384;-0.89935302734375;-0.073883056640625;2.39999999394058;241;100 mA
117.889249702358;-0.89935302734375;-0.074005126953125;2.40999999391533;242;100 mA
117.899249702333;-0.899658203125;-0.073394775390625;2.41999999389009;243;100 mA
117.909249702308;-0.899658203125;-0.07373046875;2.42999999386484;244;100 mA
117.919249702283;-0.89935302734375;-0.072784423828125;2.43999999383959;245;100 mA
117.929249702257;-0.89935302734375;-0.0731201171875;2.44999999381434;246;100 mA
117.939249702232;-0.89935302734375;-0.07232666015625;2.4599999937891;247;100 mA
117.949249702207;-0.899658203125;-0.072723388671875;2.46999999376385;248;100 mA
117.959249702182;-0.899658203125;-0.07257080078125;2.4799999937386;249;100 mA
117.969249702156;-0.89935302734375;-0.07305908203125;2.48999999371335;250;100 mA
117.979249702131;-0.899658203125;-0.07293701171875;2.49999999368811;251;100 mA
117.989249702106;-0.89996337890625;-0.073944091796875;2.50999999366286;252;100 mA
117.999249702081;-0.899658203125;-0.073516845703125;2.51999999363761;253;100 mA
118.009249702055;-0.899658203125;-0.074005126953125;2.52999999361236;254;100 mA
118.01924970203;-0.89996337890625;-0.07354736328125;2.53999999358712;255;100 mA
118.029249702005;-0.89935302734375;-0.073944091796875;2.54999999356187;256;100 mA
118.03924970198;-0.899658203125;-0.07427978515625;2.55999999353662;257;100 mA
118.049249701954;-0.8990478515625;-0.074737548828125;2.56999999351137;258;100 mA
118.059249701929;-0.899658203125;-0.07452392578125;2.57999999348613;259;100 mA
118.069249701904;-0.8990478515625;-0.074951171875;2.58999999346088;260;100 mA
118.079249701879;-0.89996337890625;-0.07476806640625;2.59999999343563;261;100 mA
118.089249701853;-0.89935302734375;-0.075103759765625;2.60999999341038;262;100 mA
118.099249701828;-0.899658203125;-0.07489013671875;2.61999999338514;263;100 mA
118.109249701803;-0.89996337890625;-0.07501220703125;2.62999999335989;264;100 mA
118.119249701778;-0.899658203125;-0.0753173828125;2.63999999333464;265;100 mA
118.129249701752;-0.899658203125;-0.075653076171875;2.64999999330939;266;100 mA
118.139249701727;-0.89935302734375;-0.076080322265625;2.65999999328415;267;100 mA
118.149249701702;-0.899658203125;-0.0765380859375;2.6699999932589;268;100 mA
118.159249701677;-0.89935302734375;-0.07623291015625;2.67999999323365;269;100 mA
118.169249701651;-0.899658203125;-0.076263427734375;2.6899999932084;270;100 mA
118.179249701626;-0.8990478515625;-0.076019287109375;2.69999999318316;271;100 mA
118.189249701601;-0.899658203125;-0.0760498046875;2.70999999315791;272;100 mA
118.199249701576;-0.899658203125;-0.07611083984375;2.71999999313266;273;100 mA
118.20924970155;-0.89935302734375;-0.07586669921875;2.72999999310741;274;100 mA
118.219249701525;-0.89935302734375;-0.0755615234375;2.73999999308217;275;100 mA
118.2292497015;-0.89935302734375;-0.075927734375;2.74999999305692;276;100 mA
118.239249701475;-0.89935302734375;-0.07525634765625;2.75999999303167;277;100 mA
118.249249701449;-0.899658203125;-0.075286865234375;2.76999999300642;278;100 mA
118.259249701424;-0.89935302734375;-0.074493408203125;2.77999999298117;279;100 mA
118.269249701399;-0.89935302734375;-0.074310302734375;2.78999999295593;280;100 mA
118.279249701374;-0.899658203125;-0.07427978515625;2.79999999293068;281;100 mA
118.289249701348;-0.8990478515625;-0.074615478515625;2.80999999290543;282;100 mA
118.299249701323;-0.89996337890625;-0.074371337890625;2.81999999288018;283;100 mA
118.309249701298;-0.89935302734375;-0.075042724609375;2.82999999285494;284;100 mA
118.319249701273;-0.89996337890625;-0.074432373046875;2.83999999282969;285;100 mA
118.329249701247;-0.89935302734375;-0.075042724609375;2.84999999280444;286;100 mA
118.339249701222;-0.899658203125;-0.074493408203125;2.85999999277919;287;100 mA
118.349249701197;-0.899658203125;-0.07501220703125;2.86999999275395;288;100 mA
118.359249701172;-0.89935302734375;-0.074920654296875;2.8799999927287;289;100 mA
118.369249701146;-0.899658203125;-0.075408935546875;2.88999999270345;290;100 mA
118.379249701121;-0.9002685546875;-0.075286865234375;2.8999999926782;291;100 mA
118.389249701096;-0.899658203125;-0.076171875;2.90999999265296;292;100 mA
118.399249701071;-0.899658203125;-0.075653076171875;2.91999999262771;293;100 mA
118.409249701045;-0.8990478515625;-0.076019287109375;2.92999999260246;294;100 mA
118.41924970102;-0.89935302734375;-0.075469970703125;2.93999999257721;295;100 mA
118.429249700995;-0.8990478515625;-0.075714111328125;2.94999999255197;296;100 mA
118.43924970097;-0.89935302734375;-0.075897216796875;2.95999999252672;297;100 mA
118.449249700944;-0.899658203125;-0.0762939453125;2.96999999250147;298;100 mA
118.459249700919;-0.89935302734375;-0.076324462890625;2.97999999247622;299;100 mA
118.469249700894;-0.899658203125;-0.07684326171875;2.98999999245098;300;100 mA
118.479249700869;-0.899658203125;-0.07684326171875;2.99999999242573;301;100 mA
118.489249700843;-0.89935302734375;-0.077178955078125;3.00999999240048;302;100 mA
118.499249700818;-0.89935302734375;-0.07684326171875;3.01999999237523;303;100 mA
118.509249700793;-0.89935302734375;-0.076751708984375;3.02999999234999;304;100 mA
118.519249700768;-0.89935302734375;-0.076873779296875;3.03999999232474;305;100 mA
118.529249700742;-0.899658203125;-0.076934814453125;3.04999999229949;306;100 mA
118.539249700717;-0.89935302734375;-0.077056884765625;3.05999999227424;307;100 mA
118.549249700692;-0.89935302734375;-0.077178955078125;3.069999992249;308;100 mA
118.559249700667;-0.89935302734375;-0.076629638671875;3.07999999222375;309;100 mA
118.569249700641;-0.8990478515625;-0.0765380859375;3.0899999921985;310;100 mA
118.579249700616;-0.89935302734375;-0.0760498046875;3.09999999217325;311;100 mA
118.589249700591;-0.8990478515625;-0.075958251953125;3.109999992148;312;100 mA
118.599249700566;-0.8990478515625;-0.075775146484375;3.11999999212276;313;100 mA
118.60924970054;-0.899658203125;-0.075531005859375;3.12999999209751;314;100 mA
118.619249700515;-0.899658203125;-0.0751953125;3.13999999207226;315;100 mA
118.62924970049;-0.89996337890625;-0.07568359375;3.14999999204701;316;100 mA
118.639249700465;-0.89935302734375;-0.0750732421875;3.15999999202177;317;100 mA
118.649249700439;-0.89996337890625;-0.07525634765625;3.16999999199652;318;100 mA
118.659249700414;-0.89935302734375;-0.0745849609375;3.17999999197127;319;100 mA
118.669249700389;-0.89935302734375;-0.074554443359375;3.18999999194602;320;100 mA
118.679249700364;-0.89935302734375;-0.074554443359375;3.19999999192078;321;100 mA
118.689249700338;-0.899658203125;-0.074859619140625;3.20999999189553;322;100 mA
118.699249700313;-0.89935302734375;-0.074493408203125;3.21999999187028;323;100 mA
118.709249700288;-0.899658203125;-0.075042724609375;3.22999999184503;324;100 mA
118.719249700263;-0.89935302734375;-0.074432373046875;3.23999999181979;325;100 mA
118.729249700237;-0.89935302734375;-0.074859619140625;3.24999999179454;326;100 mA
118.739249700212;-0.89935302734375;-0.07415771484375;3.25999999176929;327;100 mA
118.749249700187;-0.89935302734375;-0.074432373046875;3.26999999174404;328;100 mA
118.759249700162;-0.899658203125;-0.07421875;3.2799999917188;329;100 mA
118.769249700136;-0.89874267578125;-0.07464599609375;3.28999999169355;330;100 mA
118.779249700111;-0.89935302734375;-0.074493408203125;3.2999999916683;331;100 mA
118.789249700086;-0.899658203125;-0.075164794921875;3.30999999164305;332;100 mA
118.799249700061;-0.89935302734375;-0.07452392578125;3.31999999161781;333;100 mA
118.809249700035;-0.89935302734375;-0.074676513671875;3.32999999159256;334;100 mA
118.81924970001;-0.899658203125;-0.074127197265625;3.33999999156731;335;100 mA
118.829249699985;-0.899658203125;-0.07427978515625;3.34999999154206;336;100 mA
118.83924969996;-0.89935302734375;-0.074432373046875;3.35999999151682;337;100 mA
118.849249699934;-0.89996337890625;-0.07470703125;3.36999999149157;338;100 mA
118.859249699909;-0.89935302734375;-0.07470703125;3.37999999146632;339;100 mA
118.869249699884;-0.8990478515625;-0.0750732421875;3.38999999144107;340;100 mA
118.879249699859;-0.89935302734375;-0.074981689453125;3.39999999141583;341;100 mA
118.889249699833;-0.899658203125;-0.075103759765625;3.40999999139058;342;100 mA
118.899249699808;-0.899658203125;-0.07470703125;3.41999999136533;343;100 mA
118.909249699783;-0.899658203125;-0.074432373046875;3.42999999134008;344;100 mA
118.919249699758;-0.899658203125;-0.074462890625;3.43999999131483;345;100 mA
118.929249699733;-0.89996337890625;-0.0745849609375;3.44999999128959;346;100 mA
118.939249699707;-0.8990478515625;-0.074615478515625;3.45999999126434;347;100 mA
118.949249699682;-0.89935302734375;-0.07476806640625;3.46999999123909;348;100 mA
118.959249699657;-0.8990478515625;-0.074188232421875;3.47999999121384;349;100 mA
118.969249699632;-0.899658203125;-0.07415771484375;3.4899999911886;350;100 mA
118.979249699606;-0.89996337890625;-0.0736083984375;3.49999999116335;351;100 mA
118.989249699581;-0.899658203125;-0.073516845703125;3.5099999911381;352;100 mA
118.999249699556;-0.899658203125;-0.073333740234375;3.51999999111285;353;100 mA
119.009249699531;-0.8990478515625;-0.073272705078125;3.52999999108761;354;100 mA
119.019249699505;-0.899658203125;-0.0731201171875;3.53999999106236;355;100 mA
119.02924969948;-0.8990478515625;-0.07391357421875;3.54999999103711;356;100 mA
119.039249699455;-0.89935302734375;-0.073577880859375;3.55999999101186;357;100 mA
119.04924969943;-0.899658203125;-0.074005126953125;3.56999999098662;358;100 mA
119.059249699404;-0.899658203125;-0.07354736328125;3.57999999096137;359;100 mA
119.069249699379;-0.89996337890625;-0.07366943359375;3.58999999093612;360;100 mA
119.079249699354;-0.899658203125;-0.073760986328125;3.59999999091087;361;100 mA
119.089249699329;-0.89935302734375;-0.07421875;3.60999999088563;362;100 mA
119.099249699303;-0.899658203125;-0.074066162109375;3.61999999086038;363;100 mA
119.109249699278;-0.89996337890625;-0.074737548828125;3.62999999083513;364;100 mA
119.119249699253;-0.89935302734375;-0.07415771484375;3.63999999080988;365;100 mA
119.129249699228;-0.8990478515625;-0.074676513671875;3.64999999078464;366;100 mA
119.139249699202;-0.899658203125;-0.07403564453125;3.65999999075939;367;100 mA
119.149249699177;-0.89935302734375;-0.074371337890625;3.66999999073414;368;100 mA
119.159249699152;-0.89996337890625;-0.07421875;3.67999999070889;369;100 mA
119.169249699127;-0.89935302734375;-0.074798583984375;3.68999999068365;370;100 mA
119.179249699101;-0.89935302734375;-0.074951171875;3.6999999906584;371;100 mA
119.189249699076;-0.89935302734375;-0.075836181640625;3.70999999063315;372;100 mA
119.199249699051;-0.899658203125;-0.075469970703125;3.7199999906079;373;100 mA
119.209249699026;-0.89996337890625;-0.075775146484375;3.72999999058266;374;100 mA
119.219249699;-0.89935302734375;-0.075347900390625;3.73999999055741;375;100 mA
119.229249698975;-0.8990478515625;-0.075531005859375;3.74999999053216;376;100 mA
119.23924969895;-0.8990478515625;-0.075653076171875;3.75999999050691;377;100 mA
119.249249698925;-0.89935302734375;-0.075836181640625;3.76999999048167;378;100 mA
119.259249698899;-0.899658203125;-0.075714111328125;3.77999999045642;379;100 mA
119.269249698874;-0.89935302734375;-0.075927734375;3.78999999043117;380;100 mA
119.279249698849;-0.89935302734375;-0.0758056640625;3.79999999040592;381;100 mA
119.289249698824;-0.899658203125;-0.075958251953125;3.80999999038067;382;100 mA
119.299249698798;-0.8990478515625;-0.07562255859375;3.81999999035543;383;100 mA
119.309249698773;-0.899658203125;-0.075531005859375;3.82999999033018;384;100 mA
119.319249698748;-0.899658203125;-0.075653076171875;3.83999999030493;385;100 mA
119.329249698723;-0.89935302734375;-0.075927734375;3.84999999027968;386;100 mA
119.339249698697;-0.8990478515625;-0.076171875;3.85999999025444;387;100 mA
119.349249698672;-0.899658203125;-0.076507568359375;3.86999999022919;388;100 mA
119.359249698647;-0.89935302734375;-0.0760498046875;3.87999999020394;389;100 mA
119.369249698622;-0.89935302734375;-0.076080322265625;3.88999999017869;390;100 mA
119.379249698596;-0.89996337890625;-0.075592041015625;3.89999999015345;391;100 mA
119.389249698571;-0.89935302734375;-0.075408935546875;3.9099999901282;392;100 mA
119.399249698546;-0.899658203125;-0.07501220703125;3.91999999010295;393;100 mA
119.409249698521;-0.8990478515625;-0.074737548828125;3.9299999900777;394;100 mA
119.419249698495;-0.8990478515625;-0.07427978515625;3.93999999005246;395;100 mA
119.42924969847;-0.89874267578125;-0.07470703125;3.94999999002721;396;100 mA
119.439249698445;-0.89935302734375;-0.07403564453125;3.95999999000196;397;100 mA
119.44924969842;-0.899658203125;-0.074127197265625;3.96999998997671;398;100 mA
119.459249698394;-0.89935302734375;-0.073455810546875;3.97999998995147;399;100 mA
119.469249698369;-0.899658203125;-0.0733642578125;3.98999998992622;400;100 mA
119.479249698344;-0.899658203125;-0.073272705078125;3.99999998990097;401;100 mA
119.489249698319;-0.899658203125;-0.0736083984375;4.00999998987572;402;100 mA
119.499249698293;-0.89935302734375;-0.073333740234375;4.01999998985048;403;100 mA
119.509249698268;-0.899658203125;-0.073822021484375;4.02999998982523;404;100 mA
119.519249698243;-0.899658203125;-0.0733642578125;4.03999998979998;405;100 mA
119.529249698218;-0.89996337890625;-0.07379150390625;4.04999998977473;406;100 mA
119.539249698192;-0.89935302734375;-0.073272705078125;4.05999998974949;407;100 mA
119.549249698167;-0.8990478515625;-0.0736083984375;4.06999998972424;408;100 mA
119.559249698142;-0.89935302734375;-0.073455810546875;4.07999998969899;409;100 mA
119.569249698117;-0.899658203125;-0.074005126953125;4.08999998967374;410;100 mA
119.579249698091;-0.89996337890625;-0.07403564453125;4.0999999896485;411;100 mA
119.589249698066;-0.89996337890625;-0.07476806640625;4.10999998962325;412;100 mA
119.599249698041;-0.899658203125;-0.07440185546875;4.119999989598;413;100 mA
119.609249698016;-0.899658203125;-0.074615478515625;4.12999998957275;414;100 mA
119.61924969799;-0.899658203125;-0.0740966796875;4.1399999895475;415;100 mA
119.629249697965;-0.89935302734375;-0.0740966796875;4.14999998952226;416;100 mA
119.63924969794;-0.89935302734375;-0.0740966796875;4.15999998949701;417;100 mA
119.649249697915;-0.899658203125;-0.07403564453125;4.16999998947176;418;100 mA
119.659249697889;-0.8990478515625;-0.0738525390625;4.17999998944651;419;100 mA
119.669249697864;-0.89935302734375;-0.07391357421875;4.18999998942127;420;100 mA
119.679249697839;-0.89935302734375;-0.073699951171875;4.19999998939602;421;100 mA
119.689249697814;-0.899658203125;-0.073699951171875;4.20999998937077;422;100 mA
119.699249697788;-0.8990478515625;-0.073272705078125;4.21999998934552;423;100 mA
119.709249697763;-0.89935302734375;-0.07293701171875;4.22999998932028;424;100 mA
119.719249697738;-0.89935302734375;-0.07281494140625;4.23999998929503;425;100 mA
119.729249697713;-0.899658203125;-0.072662353515625;4.24999998926978;426;100 mA
119.739249697687;-0.89935302734375;-0.072540283203125;4.25999998924453;427;100 mA
119.749249697662;-0.89935302734375;-0.072662353515625;4.26999998921929;428;100 mA
119.759249697637;-0.89935302734375;-0.072235107421875;4.27999998919404;429;100 mA
119.769249697612;-0.899658203125;-0.072296142578125;4.28999998916879;430;100 mA
119.779249697586;-0.89935302734375;-0.0718994140625;4.29999998914354;431;100 mA
119.789249697561;-0.899658203125;-0.0718994140625;4.3099999891183;432;100 mA
119.799249697536;-0.89935302734375;-0.071746826171875;4.31999998909305;433;100 mA
119.809249697511;-0.8990478515625;-0.071807861328125;4.3299999890678;434;100 mA
119.819249697485;-0.899658203125;-0.07171630859375;4.33999998904255;435;100 mA
119.82924969746;-0.899658203125;-0.0723876953125;4.34999998901731;436;100 mA
119.839249697435;-0.89935302734375;-0.07183837890625;4.35999998899206;437;100 mA
119.84924969741;-0.89935302734375;-0.071990966796875;4.36999998896681;438;100 mA
119.859249697384;-0.89996337890625;-0.071319580078125;4.37999998894156;439;100 mA
119.869249697359;-0.89935302734375;-0.071197509765625;4.38999998891632;440;100 mA
119.879249697334;-0.899658203125;-0.071014404296875;4.39999998889107;441;100 mA
119.889249697309;-0.8990478515625;-0.071197509765625;4.40999998886582;442;100 mA
119.899249697283;-0.89935302734375;-0.07073974609375;4.41999998884057;443;100 mA
119.909249697258;-0.89874267578125;-0.071197509765625;4.42999998881533;444;100 mA
119.919249697233;-0.89996337890625;-0.07086181640625;4.43999998879008;445;100 mA
119.929249697208;-0.899658203125;-0.07135009765625;4.44999998876483;446;100 mA
119.939249697183;-0.8990478515625;-0.0709228515625;4.45999998873958;447;100 mA
119.949249697157;-0.899658203125;-0.071258544921875;4.46999998871433;448;100 mA
119.959249697132;-0.89935302734375;-0.07135009765625;4.47999998868909;449;100 mA
119.969249697107;-0.89935302734375;-0.071990966796875;4.48999998866384;450;100 mA
119.979249697082;-0.89996337890625;-0.072296142578125;4.49999998863859;451;100 mA
119.989249697056;-0.89935302734375;-0.07305908203125;4.50999998861334;452;100 mA
119.999249697031;-0.899658203125;-0.072845458984375;4.5199999885881;453;100 mA
120.009249697006;-0.899658203125;-0.0731201171875;4.52999998856285;454;100 mA
120.019249696981;-0.89935302734375;-0.07269287109375;4.5399999885376;455;100 mA
120.029249696955;-0.8990478515625;-0.07269287109375;4.54999998851235;456;100 mA
120.03924969693;-0.8990478515625;-0.072601318359375;4.55999998848711;457;100 mA
120.049249696905;-0.89935302734375;-0.072509765625;4.56999998846186;458;100 mA
120.05924969688;-0.89935302734375;-0.072296142578125;4.57999998843661;459;100 mA
120.069249696854;-0.89935302734375;-0.072540283203125;4.58999998841136;460;100 mA
120.079249696829;-0.899658203125;-0.072418212890625;4.59999998838612;461;100 mA
120.089249696804;-0.89935302734375;-0.072479248046875;4.60999998836087;462;100 mA
120.099249696779;-0.899658203125;-0.072021484375;4.61999998833562;463;100 mA
120.109249696753;-0.8990478515625;-0.071685791015625;4.62999998831037;464;100 mA
120.119249696728;-0.899658203125;-0.07159423828125;4.63999998828513;465;100 mA
120.129249696703;-0.89935302734375;-0.071563720703125;4.64999998825988;466;100 mA
120.139249696678;-0.8990478515625;-0.071563720703125;4.65999998823463;467;100 mA
120.149249696652;-0.89996337890625;-0.07177734375;4.66999998820938;468;100 mA
120.159249696627;-0.89935302734375;-0.071380615234375;4.67999998818414;469;100 mA
120.169249696602;-0.89935302734375;-0.071502685546875;4.68999998815889;470;100 mA
120.179249696577;-0.89935302734375;-0.071136474609375;4.69999998813364;471;100 mA
120.189249696551;-0.899658203125;-0.071136474609375;4.70999998810839;472;100 mA
120.199249696526;-0.8990478515625;-0.071014404296875;4.71999998808315;473;100 mA
120.209249696501;-0.8990478515625;-0.071014404296875;4.7299999880579;474;100 mA
120.219249696476;-0.899658203125;-0.07086181640625;4.73999998803265;475;100 mA
120.22924969645;-0.89935302734375;-0.071563720703125;4.7499999880074;476;100 mA
120.239249696425;-0.89935302734375;-0.0711669921875;4.75999998798216;477;100 mA
120.2492496964;-0.8990478515625;-0.071441650390625;4.76999998795691;478;100 mA
120.259249696375;-0.89935302734375;-0.07098388671875;4.77999998793166;479;100 mA
120.269249696349;-0.89935302734375;-0.07110595703125;4.78999998790641;480;100 mA
120.279249696324;-0.899658203125;-0.07122802734375;4.79999998788116;481;100 mA
120.289249696299;-0.8990478515625;-0.071563720703125;4.80999998785592;482;100 mA
120.299249696274;-0.899658203125;-0.0712890625;4.81999998783067;483;100 mA
120.309249696248;-0.89935302734375;-0.0716552734375;4.82999998780542;484;100 mA
120.319249696223;-0.89935302734375;-0.071197509765625;4.83999998778017;485;100 mA
120.329249696198;-0.89935302734375;-0.071380615234375;4.84999998775493;486;100 mA
120.339249696173;-0.899658203125;-0.07080078125;4.85999998772968;487;100 mA
120.349249696147;-0.899658203125;-0.070831298828125;4.86999998770443;488;100 mA
120.359249696122;-0.89935302734375;-0.0706787109375;4.87999998767918;489;100 mA
120.369249696097;-0.89935302734375;-0.07098388671875;4.88999998765394;490;100 mA
120.379249696072;-0.89935302734375;-0.071075439453125;4.89999998762869;491;100 mA
120.389249696046;-0.89935302734375;-0.07159423828125;4.90999998760344;492;100 mA
120.399249696021;-0.89935302734375;-0.071380615234375;4.91999998757819;493;100 mA
120.409249695996;-0.89996337890625;-0.071624755859375;4.92999998755295;494;100 mA
120.419249695971;-0.9002685546875;-0.071380615234375;4.9399999875277;495;100 mA
120.429249695945;-0.89996337890625;-0.071502685546875;4.94999998750245;496;100 mA
120.43924969592;-0.899658203125;-0.071624755859375;4.9599999874772;497;100 mA
120.449249695895;-0.89996337890625;-0.07159423828125;4.96999998745196;498;100 mA
120.45924969587;-0.899658203125;-0.071441650390625;4.97999998742671;499;100 mA
120.469249695844;-0.89935302734375;-0.071624755859375;4.98999998740146;500;100 mA
120.479249695819;-0.89935302734375;-0.071533203125;4.99999998737621;501;100 mA
120.489249695794;-0.899658203125;-0.07171630859375;5.00999998735097;502;100 mA
120.499249695769;-0.89996337890625;-0.071441650390625;5.01999998732572;503;100 mA
120.509249695743;-0.899658203125;-0.071380615234375;5.02999998730047;504;100 mA
120.519249695718;-0.89996337890625;-0.071502685546875;5.03999998727522;505;100 mA
120.529249695693;-0.899658203125;-0.071746826171875;5.04999998724998;506;100 mA
120.539249695668;-0.89935302734375;-0.07177734375;5.05999998722473;507;100 mA
120.549249695642;-0.899658203125;-0.072235107421875;5.06999998719948;508;100 mA
120.559249695617;-0.89935302734375;-0.071868896484375;5.07999998717423;509;100 mA
120.569249695592;-0.899658203125;-0.072174072265625;5.08999998714899;510;100 mA
120.579249695567;-0.89935302734375;-0.071868896484375;5.09999998712374;511;100 mA
120.589249695541;-0.89935302734375;-0.072052001953125;5.10999998709849;512;100 mA
120.599249695516;-0.8990478515625;-0.071868896484375;5.11999998707324;513;100 mA
120.609249695491;-0.89935302734375;-0.072021484375;5.129999987048;514;100 mA
120.619249695466;-0.899658203125;-0.07183837890625;5.13999998702275;515;100 mA
120.62924969544;-0.8990478515625;-0.072540283203125;5.1499999869975;516;100 mA
120.639249695415;-0.89874267578125;-0.072052001953125;5.15999998697225;517;100 mA
120.64924969539;-0.89935302734375;-0.072296142578125;5.169999986947;518;100 mA
120.659249695365;-0.89935302734375;-0.071807861328125;5.17999998692176;519;100 mA
120.669249695339;-0.89935302734375;-0.07183837890625;5.18999998689651;520;100 mA
120.679249695314;-0.89935302734375;-0.0718994140625;5.19999998687126;521;100 mA
120.689249695289;-0.89996337890625;-0.072296142578125;5.20999998684601;522;100 mA
120.699249695264;-0.89996337890625;-0.072174072265625;5.21999998682077;523;100 mA
120.709249695238;-0.899658203125;-0.072784423828125;5.22999998679552;524;100 mA
120.719249695213;-0.89935302734375;-0.072601318359375;5.23999998677027;525;100 mA
120.729249695188;-0.89935302734375;-0.073028564453125;5.24999998674502;526;100 mA
120.739249695163;-0.89996337890625;-0.07275390625;5.25999998671978;527;100 mA
120.749249695137;-0.899658203125;-0.07293701171875;5.26999998669453;528;100 mA
120.759249695112;-0.89935302734375;-0.073028564453125;5.27999998666928;529;100 mA
120.769249695087;-0.89935302734375;-0.07342529296875;5.28999998664403;530;100 mA
120.779249695062;-0.899658203125;-0.07366943359375;5.29999998661879;531;100 mA
120.789249695036;-0.89935302734375;-0.074127197265625;5.30999998659354;532;100 mA
120.799249695011;-0.89935302734375;-0.074005126953125;5.31999998656829;533;100 mA
120.809249694986;-0.899658203125;-0.074127197265625;5.32999998654304;534;100 mA
120.819249694961;-0.89996337890625;-0.0738525390625;5.3399999865178;535;100 mA
120.829249694935;-0.899658203125;-0.073822021484375;5.34999998649255;536;100 mA
120.83924969491;-0.89935302734375;-0.073883056640625;5.3599999864673;537;100 mA
120.849249694885;-0.89996337890625;-0.073822021484375;5.36999998644205;538;100 mA
120.85924969486;-0.89935302734375;-0.07379150390625;5.37999998641681;539;100 mA
120.869249694834;-0.8990478515625;-0.073974609375;5.38999998639156;540;100 mA
120.879249694809;-0.89935302734375;-0.073760986328125;5.39999998636631;541;100 mA
120.889249694784;-0.899658203125;-0.073760986328125;5.40999998634106;542;100 mA
120.899249694759;-0.89935302734375;-0.073333740234375;5.41999998631582;543;100 mA
120.909249694733;-0.899658203125;-0.072998046875;5.42999998629057;544;100 mA
120.919249694708;-0.89935302734375;-0.0728759765625;5.43999998626532;545;100 mA
120.929249694683;-0.899658203125;-0.07275390625;5.44999998624007;546;100 mA
120.939249694658;-0.89874267578125;-0.072479248046875;5.45999998621483;547;100 mA
120.949249694632;-0.89935302734375;-0.072601318359375;5.46999998618958;548;100 mA
120.959249694607;-0.8990478515625;-0.071990966796875;5.47999998616433;549;100 mA
120.969249694582;-0.899658203125;-0.07196044921875;5.48999998613908;550;100 mA
120.979249694557;-0.899658203125;-0.071380615234375;5.49999998611383;551;100 mA
120.989249694532;-0.89935302734375;-0.071258544921875;5.50999998608859;552;100 mA
120.999249694506;-0.89935302734375;-0.07086181640625;5.51999998606334;553;100 mA
121.009249694481;-0.899658203125;-0.070892333984375;5.52999998603809;554;100 mA
121.019249694456;-0.89935302734375;-0.070648193359375;5.53999998601284;555;100 mA
121.029249694431;-0.89935302734375;-0.071197509765625;5.5499999859876;556;100 mA
121.039249694405;-0.8990478515625;-0.0706787109375;5.55999998596235;557;100 mA
121.04924969438;-0.89996337890625;-0.070892333984375;5.5699999859371;558;100 mA
121.059249694355;-0.89935302734375;-0.07037353515625;5.57999998591185;559;100 mA
121.06924969433;-0.89935302734375;-0.070343017578125;5.58999998588661;560;100 mA
121.079249694304;-0.89935302734375;-0.07025146484375;5.59999998586136;561;100 mA
121.089249694279;-0.8990478515625;-0.0704345703125;5.60999998583611;562;100 mA
121.099249694254;-0.8990478515625;-0.07012939453125;5.61999998581086;563;100 mA
121.109249694229;-0.8990478515625;-0.070404052734375;5.62999998578562;564;100 mA
121.119249694203;-0.89935302734375;-0.070159912109375;5.63999998576037;565;100 mA
121.129249694178;-0.89935302734375;-0.070281982421875;5.64999998573512;566;100 mA
121.139249694153;-0.89996337890625;-0.069732666015625;5.65999998570987;567;100 mA
121.149249694128;-0.899658203125;-0.069610595703125;5.66999998568463;568;100 mA
121.159249694102;-0.89874267578125;-0.06951904296875;5.67999998565938;569;100 mA
121.169249694077;-0.8990478515625;-0.0697021484375;5.68999998563413;570;100 mA
121.179249694052;-0.89935302734375;-0.06982421875;5.69999998560888;571;100 mA
121.189249694027;-0.89996337890625;-0.070159912109375;5.70999998558364;572;100 mA
121.199249694001;-0.899658203125;-0.07000732421875;5.71999998555839;573;100 mA
121.209249693976;-0.89996337890625;-0.070098876953125;5.72999998553314;574;100 mA
121.219249693951;-0.899658203125;-0.06988525390625;5.73999998550789;575;100 mA
121.229249693926;-0.89935302734375;-0.06988525390625;5.74999998548265;576;100 mA
121.2392496939;-0.8990478515625;-0.0699462890625;5.7599999854574;577;100 mA
121.249249693875;-0.899658203125;-0.06976318359375;5.76999998543215;578;100 mA
121.25924969385;-0.899658203125;-0.06964111328125;5.7799999854069;579;100 mA
121.269249693825;-0.899658203125;-0.069793701171875;5.78999998538166;580;100 mA
121.279249693799;-0.89935302734375;-0.069732666015625;5.79999998535641;581;100 mA
121.289249693774;-0.89935302734375;-0.069854736328125;5.80999998533116;582;100 mA
121.299249693749;-0.89935302734375;-0.069580078125;5.81999998530591;583;100 mA
121.309249693724;-0.89935302734375;-0.0694580078125;5.82999998528066;584;100 mA
121.319249693698;-0.899658203125;-0.069580078125;5.83999998525542;585;100 mA
121.329249693673;-0.89935302734375;-0.0697021484375;5.84999998523017;586;100 mA
121.339249693648;-0.89935302734375;-0.069610595703125;5.85999998520492;587;100 mA
121.349249693623;-0.89996337890625;-0.06988525390625;5.86999998517967;588;100 mA
121.359249693597;-0.899658203125;-0.069488525390625;5.87999998515443;589;100 mA
121.369249693572;-0.89935302734375;-0.069732666015625;5.88999998512918;590;100 mA
121.379249693547;-0.89935302734375;-0.069366455078125;5.89999998510393;591;100 mA
121.389249693522;-0.8990478515625;-0.069488525390625;5.90999998507868;592;100 mA
121.399249693496;-0.899658203125;-0.06927490234375;5.91999998505344;593;100 mA
121.409249693471;-0.89935302734375;-0.069427490234375;5.92999998502819;594;100 mA
121.419249693446;-0.899658203125;-0.06927490234375;5.93999998500294;595;100 mA
121.429249693421;-0.899658203125;-0.070037841796875;5.94999998497769;596;100 mA
121.439249693395;-0.899658203125;-0.069732666015625;5.95999998495245;597;100 mA
121.44924969337;-0.89996337890625;-0.070068359375;5.9699999849272;598;100 mA
121.459249693345;-0.89996337890625;-0.069671630859375;5.97999998490195;599;100 mA
121.46924969332;-0.899658203125;-0.069793701171875;5.9899999848767;600;100 mA
121.479249693294;-0.89935302734375;-0.069793701171875;5.99999998485146;601;100 mA
121.489249693269;-0.899658203125;-0.07000732421875;6.00999998482621;602;100 mA
121.499249693244;-0.899658203125;-0.06964111328125;6.01999998480096;603;100 mA
121.509249693219;-0.8990478515625;-0.06988525390625;6.02999998477571;604;100 mA
121.519249693193;-0.8990478515625;-0.069610595703125;6.03999998475047;605;100 mA
121.529249693168;-0.899658203125;-0.06982421875;6.04999998472522;606;100 mA
121.539249693143;-0.899658203125;-0.06939697265625;6.05999998469997;607;100 mA
121.549249693118;-0.899658203125;-0.069366455078125;6.06999998467472;608;100 mA
121.559249693092;-0.89935302734375;-0.06927490234375;6.07999998464948;609;100 mA
121.569249693067;-0.89935302734375;-0.069305419921875;6.08999998462423;610;100 mA
121.579249693042;-0.89874267578125;-0.069305419921875;6.09999998459898;611;100 mA
121.589249693017;-0.899658203125;-0.06951904296875;6.10999998457373;612;100 mA
121.599249692991;-0.899658203125;-0.069305419921875;6.11999998454849;613;100 mA
121.609249692966;-0.899658203125;-0.06939697265625;6.12999998452324;614;100 mA
121.619249692941;-0.89935302734375;-0.069244384765625;6.13999998449799;615;100 mA
121.629249692916;-0.899658203125;-0.069305419921875;6.14999998447274;616;100 mA
121.63924969289;-0.89935302734375;-0.0694580078125;6.1599999844475;617;100 mA
121.649249692865;-0.89996337890625;-0.069366455078125;6.16999998442225;618;100 mA
121.65924969284;-0.89935302734375;-0.069305419921875;6.179999984397;619;100 mA
121.669249692815;-0.89935302734375;-0.0694580078125;6.18999998437175;620;100 mA
121.679249692789;-0.89935302734375;-0.06927490234375;6.1999999843465;621;100 mA
121.689249692764;-0.89935302734375;-0.069305419921875;6.20999998432126;622;100 mA
121.699249692739;-0.89874267578125;-0.06890869140625;6.21999998429601;623;100 mA
121.709249692714;-0.899658203125;-0.068695068359375;6.22999998427076;624;100 mA
121.719249692688;-0.89935302734375;-0.068695068359375;6.23999998424551;625;100 mA
121.729249692663;-0.89935302734375;-0.068817138671875;6.24999998422027;626;100 mA
121.739249692638;-0.89935302734375;-0.06866455078125;6.25999998419502;627;100 mA
121.749249692613;-0.89935302734375;-0.0689697265625;6.26999998416977;628;100 mA
121.759249692587;-0.89874267578125;-0.06854248046875;6.27999998414452;629;100 mA
121.769249692562;-0.899658203125;-0.06878662109375;6.28999998411928;630;100 mA
121.779249692537;-0.899658203125;-0.068389892578125;6.29999998409403;631;100 mA
121.789249692512;-0.89935302734375;-0.068572998046875;6.30999998406878;632;100 mA
121.799249692486;-0.89935302734375;-0.06842041015625;6.31999998404353;633;100 mA
121.809249692461;-0.89996337890625;-0.06866455078125;6.32999998401829;634;100 mA
121.819249692436;-0.899658203125;-0.06866455078125;6.33999998399304;635;100 mA
121.829249692411;-0.899658203125;-0.0694580078125;6.34999998396779;636;100 mA
121.839249692385;-0.899658203125;-0.06927490234375;6.35999998394254;637;100 mA
121.84924969236;-0.899658203125;-0.069671630859375;6.3699999839173;638;100 mA
121.859249692335;-0.89935302734375;-0.06939697265625;6.37999998389205;639;100 mA
121.86924969231;-0.89935302734375;-0.06951904296875;6.3899999838668;640;100 mA
121.879249692284;-0.89996337890625;-0.06964111328125;6.39999998384155;641;100 mA
121.889249692259;-0.89935302734375;-0.069915771484375;6.40999998381631;642;100 mA
121.899249692234;-0.89935302734375;-0.0697021484375;6.41999998379106;643;100 mA
121.909249692209;-0.899658203125;-0.069976806640625;6.42999998376581;644;100 mA
121.919249692183;-0.89935302734375;-0.069671630859375;6.43999998374056;645;100 mA
121.929249692158;-0.9002685546875;-0.069793701171875;6.44999998371532;646;100 mA
121.939249692133;-0.899658203125;-0.0693359375;6.45999998369007;647;100 mA
121.949249692108;-0.899658203125;-0.06927490234375;6.46999998366482;648;100 mA
121.959249692082;-0.89935302734375;-0.0692138671875;6.47999998363957;649;100 mA
121.969249692057;-0.899658203125;-0.0693359375;6.48999998361433;650;100 mA
121.979249692032;-0.89935302734375;-0.06939697265625;6.49999998358908;651;100 mA
121.989249692007;-0.89935302734375;-0.069610595703125;6.50999998356383;652;100 mA
121.999249691982;-0.89935302734375;-0.069427490234375;6.51999998353858;653;100 mA
122.009249691956;-0.89935302734375;-0.069427490234375;6.52999998351333;654;100 mA
122.019249691931;-0.9002685546875;-0.06915283203125;6.53999998348809;655;100 mA
122.029249691906;-0.89935302734375;-0.069122314453125;6.54999998346284;656;100 mA
122.039249691881;-0.8990478515625;-0.069122314453125;6.55999998343759;657;100 mA
122.049249691855;-0.899658203125;-0.069000244140625;6.56999998341234;658;100 mA
122.05924969183;-0.89996337890625;-0.06890869140625;6.5799999833871;659;100 mA
122.069249691805;-0.8990478515625;-0.0692138671875;6.58999998336185;660;100 mA
122.07924969178;-0.89935302734375;-0.069091796875;6.5999999833366;661;100 mA
122.089249691754;-0.899658203125;-0.06927490234375;6.60999998331135;662;100 mA
122.099249691729;-0.89935302734375;-0.0689697265625;6.61999998328611;663;100 mA
122.109249691704;-0.89996337890625;-0.068817138671875;6.62999998326086;664;100 mA
122.119249691679;-0.899658203125;-0.06884765625;6.63999998323561;665;100 mA
122.129249691653;-0.899658203125;-0.06903076171875;6.64999998321036;666;100 mA
122.139249691628;-0.89935302734375;-0.06890869140625;6.65999998318512;667;100 mA
122.149249691603;-0.89996337890625;-0.069244384765625;6.66999998315987;668;100 mA
122.159249691578;-0.89935302734375;-0.06878662109375;6.67999998313462;669;100 mA
122.169249691552;-0.899658203125;-0.069061279296875;6.68999998310937;670;100 mA
122.179249691527;-0.899658203125;-0.068634033203125;6.69999998308413;671;100 mA
122.189249691502;-0.9002685546875;-0.068756103515625;6.70999998305888;672;100 mA
122.199249691477;-0.8990478515625;-0.068511962890625;6.71999998303363;673;100 mA
122.209249691451;-0.899658203125;-0.068695068359375;6.72999998300838;674;100 mA
122.219249691426;-0.89935302734375;-0.068603515625;6.73999998298314;675;100 mA
122.229249691401;-0.89935302734375;-0.069305419921875;6.74999998295789;676;100 mA
122.239249691376;-0.89935302734375;-0.069000244140625;6.75999998293264;677;100 mA
122.24924969135;-0.9002685546875;-0.069305419921875;6.76999998290739;678;100 mA
122.259249691325;-0.89996337890625;-0.069061279296875;6.77999998288215;679;100 mA
122.2692496913;-0.89935302734375;-0.069305419921875;6.7899999828569;680;100 mA
122.279249691275;-0.899658203125;-0.06951904296875;6.79999998283165;681;100 mA
122.289249691249;-0.89935302734375;-0.069915771484375;6.8099999828064;682;100 mA
122.299249691224;-0.89935302734375;-0.069915771484375;6.81999998278116;683;100 mA
122.309249691199;-0.8990478515625;-0.070343017578125;6.82999998275591;684;100 mA
122.319249691174;-0.8990478515625;-0.070343017578125;6.83999998273066;685;100 mA
122.329249691148;-0.89935302734375;-0.070556640625;6.84999998270541;686;100 mA
122.339249691123;-0.89935302734375;-0.0701904296875;6.85999998268016;687;100 mA
122.349249691098;-0.8990478515625;-0.070098876953125;6.86999998265492;688;100 mA
122.359249691073;-0.8990478515625;-0.0699462890625;6.87999998262967;689;100 mA
122.369249691047;-0.899658203125;-0.0699462890625;6.88999998260442;690;100 mA
122.379249691022;-0.8990478515625;-0.0699462890625;6.89999998257917;691;100 mA
122.389249690997;-0.89935302734375;-0.070098876953125;6.90999998255393;692;100 mA
122.399249690972;-0.89935302734375;-0.069915771484375;6.91999998252868;693;100 mA
122.409249690946;-0.89935302734375;-0.06988525390625;6.92999998250343;694;100 mA
122.419249690921;-0.89935302734375;-0.06964111328125;6.93999998247818;695;100 mA
122.429249690896;-0.8990478515625;-0.069549560546875;6.94999998245294;696;100 mA
122.439249690871;-0.899658203125;-0.0694580078125;6.95999998242769;697;100 mA
122.449249690845;-0.899658203125;-0.069244384765625;6.96999998240244;698;100 mA
122.45924969082;-0.899658203125;-0.069061279296875;6.97999998237719;699;100 mA
122.469249690795;-0.89935302734375;-0.069244384765625;6.98999998235195;700;100 mA
122.47924969077;-0.89935302734375;-0.06903076171875;6.9999999823267;701;100 mA
122.489249690744;-0.899658203125;-0.06915283203125;7.00999998230145;702;100 mA
122.499249690719;-0.89935302734375;-0.068756103515625;7.0199999822762;703;100 mA
122.509249690694;-0.899658203125;-0.068634033203125;7.02999998225096;704;100 mA
122.519249690669;-0.89935302734375;-0.068572998046875;7.03999998222571;705;100 mA
122.529249690643;-0.8990478515625;-0.06878662109375;7.04999998220046;706;100 mA
122.539249690618;-0.89996337890625;-0.068695068359375;7.05999998217521;707;100 mA
122.549249690593;-0.89996337890625;-0.06915283203125;7.06999998214997;708;100 mA
122.559249690568;-0.89935302734375;-0.068878173828125;7.07999998212472;709;100 mA
122.569249690542;-0.899658203125;-0.069183349609375;7.08999998209947;710;100 mA
122.579249690517;-0.89996337890625;-0.068878173828125;7.09999998207422;711;100 mA
122.589249690492;-0.89935302734375;-0.069000244140625;7.10999998204898;712;100 mA
122.599249690467;-0.89935302734375;-0.06878662109375;7.11999998202373;713;100 mA
122.609249690441;-0.899658203125;-0.068878173828125;7.12999998199848;714;100 mA
122.619249690416;-0.89996337890625;-0.068603515625;7.13999998197323;715;100 mA
122.629249690391;-0.8990478515625;-0.069061279296875;7.14999998194799;716;100 mA
122.639249690366;-0.89935302734375;-0.068634033203125;7.15999998192274;717;100 mA
122.64924969034;-0.899658203125;-0.0687255859375;7.16999998189749;718;100 mA
122.659249690315;-0.89935302734375;-0.06829833984375;7.17999998187224;719;100 mA
122.66924969029;-0.89935302734375;-0.068267822265625;7.189999981847;720;100 mA
122.679249690265;-0.89935302734375;-0.06829833984375;7.19999998182175;721;100 mA
122.689249690239;-0.8990478515625;-0.068572998046875;7.2099999817965;722;100 mA
122.699249690214;-0.89996337890625;-0.068511962890625;7.21999998177125;723;100 mA
122.709249690189;-0.899658203125;-0.06890869140625;7.229999981746;724;100 mA
122.719249690164;-0.899658203125;-0.068939208984375;7.23999998172076;725;100 mA
122.729249690138;-0.8990478515625;-0.069244384765625;7.24999998169551;726;100 mA
122.739249690113;-0.8990478515625;-0.06903076171875;7.25999998167026;727;100 mA
122.749249690088;-0.899658203125;-0.069000244140625;7.26999998164501;728;100 mA
122.759249690063;-0.89935302734375;-0.0689697265625;7.27999998161977;729;100 mA
122.769249690037;-0.899658203125;-0.0689697265625;7.28999998159452;730;100 mA
122.779249690012;-0.89996337890625;-0.0689697265625;7.29999998156927;731;100 mA
122.789249689987;-0.89935302734375;-0.06915283203125;7.30999998154402;732;100 mA
122.799249689962;-0.899658203125;-0.069000244140625;7.31999998151878;733;100 mA
122.809249689936;-0.899658203125;-0.069061279296875;7.32999998149353;734;100 mA
122.819249689911;-0.89935302734375;-0.06890869140625;7.33999998146828;735;100 mA
122.829249689886;-0.89935302734375;-0.06884765625;7.34999998144303;736;100 mA
122.839249689861;-0.89935302734375;-0.06878662109375;7.35999998141779;737;100 mA
122.849249689835;-0.89935302734375;-0.068572998046875;7.36999998139254;738;100 mA
122.85924968981;-0.89935302734375;-0.0684814453125;7.37999998136729;739;100 mA
122.869249689785;-0.89935302734375;-0.068756103515625;7.38999998134204;740;100 mA
122.87924968976;-0.899658203125;-0.068572998046875;7.3999999813168;741;100 mA
122.889249689734;-0.89935302734375;-0.068756103515625;7.40999998129155;742;100 mA
122.899249689709;-0.899658203125;-0.06842041015625;7.4199999812663;743;100 mA
122.909249689684;-0.89935302734375;-0.068328857421875;7.42999998124105;744;100 mA
122.919249689659;-0.89935302734375;-0.068267822265625;7.43999998121581;745;100 mA
122.929249689633;-0.899658203125;-0.068450927734375;7.44999998119056;746;100 mA
122.939249689608;-0.899658203125;-0.068267822265625;7.45999998116531;747;100 mA
122.949249689583;-0.89935302734375;-0.0687255859375;7.46999998114006;748;100 mA
122.959249689558;-0.89935302734375;-0.068359375;7.47999998111482;749;100 mA
122.969249689532;-0.899658203125;-0.068572998046875;7.48999998108957;750;100 mA
122.979249689507;-0.899658203125;-0.068084716796875;7.49999998106432;751;100 mA
122.989249689482;-0.89996337890625;-0.06817626953125;7.50999998103907;752;100 mA
122.999249689457;-0.89996337890625;-0.0679931640625;7.51999998101383;753;100 mA
123.009249689431;-0.899658203125;-0.0682373046875;7.52999998098858;754;100 mA
123.019249689406;-0.899658203125;-0.0682373046875;7.53999998096333;755;100 mA
123.029249689381;-0.899658203125;-0.068878173828125;7.54999998093808;756;100 mA
123.039249689356;-0.899658203125;-0.0687255859375;7.55999998091283;757;100 mA
123.049249689331;-0.899658203125;-0.069000244140625;7.56999998088759;758;100 mA
123.059249689305;-0.899658203125;-0.068817138671875;7.57999998086234;759;100 mA
123.06924968928;-0.89935302734375;-0.069000244140625;7.58999998083709;760;100 mA
123.079249689255;-0.8990478515625;-0.069122314453125;7.59999998081184;761;100 mA
123.08924968923;-0.899658203125;-0.0694580078125;7.6099999807866;762;100 mA
123.099249689204;-0.89935302734375;-0.069549560546875;7.61999998076135;763;100 mA
123.109249689179;-0.8990478515625;-0.070037841796875;7.6299999807361;764;100 mA
123.119249689154;-0.89935302734375;-0.07012939453125;7.63999998071085;765;100 mA
123.129249689129;-0.89935302734375;-0.07037353515625;7.64999998068561;766;100 mA
123.139249689103;-0.89996337890625;-0.070159912109375;7.65999998066036;767;100 mA
123.149249689078;-0.89996337890625;-0.070098876953125;7.66999998063511;768;100 mA
123.159249689053;-0.8990478515625;-0.070098876953125;7.67999998060986;769;100 mA
123.169249689028;-0.899658203125;-0.07012939453125;7.68999998058462;770;100 mA
123.179249689002;-0.899658203125;-0.070159912109375;7.69999998055937;771;100 mA
123.189249688977;-0.89935302734375;-0.0703125;7.70999998053412;772;100 mA
123.199249688952;-0.89996337890625;-0.070159912109375;7.71999998050887;773;100 mA
123.209249688927;-0.89935302734375;-0.070159912109375;7.72999998048363;774;100 mA
123.219249688901;-0.899658203125;-0.069976806640625;7.73999998045838;775;100 mA
123.229249688876;-0.89935302734375;-0.06988525390625;7.74999998043313;776;100 mA
123.239249688851;-0.89996337890625;-0.069793701171875;7.75999998040788;777;100 mA
123.249249688826;-0.8990478515625;-0.069610595703125;7.76999998038264;778;100 mA
123.2592496888;-0.89996337890625;-0.069427490234375;7.77999998035739;779;100 mA
123.269249688775;-0.899658203125;-0.069671630859375;7.78999998033214;780;100 mA
123.27924968875;-0.8990478515625;-0.06939697265625;7.79999998030689;781;100 mA
123.289249688725;-0.89935302734375;-0.0694580078125;7.80999998028165;782;100 mA
123.299249688699;-0.899658203125;-0.069091796875;7.8199999802564;783;100 mA
123.309249688674;-0.899658203125;-0.0689697265625;7.82999998023115;784;100 mA
123.319249688649;-0.89935302734375;-0.06890869140625;7.8399999802059;785;100 mA
123.329249688624;-0.899658203125;-0.069122314453125;7.84999998018066;786;100 mA
123.339249688598;-0.8990478515625;-0.069000244140625;7.85999998015541;787;100 mA
123.349249688573;-0.899658203125;-0.069366455078125;7.86999998013016;788;100 mA
123.359249688548;-0.899658203125;-0.069091796875;7.87999998010491;789;100 mA
123.369249688523;-0.899658203125;-0.069366455078125;7.88999998007966;790;100 mA
123.379249688497;-0.89935302734375;-0.06903076171875;7.89999998005442;791;100 mA
123.389249688472;-0.899658203125;-0.069183349609375;7.90999998002917;792;100 mA
123.399249688447;-0.89935302734375;-0.069000244140625;7.91999998000392;793;100 mA
123.409249688422;-0.8990478515625;-0.06927490234375;7.92999997997867;794;100 mA
123.419249688396;-0.8990478515625;-0.069244384765625;7.93999997995343;795;100 mA
123.429249688371;-0.89935302734375;-0.0697021484375;7.94999997992818;796;100 mA
123.439249688346;-0.89935302734375;-0.069244384765625;7.95999997990293;797;100 mA
123.449249688321;-0.89935302734375;-0.069305419921875;7.96999997987768;798;100 mA
123.459249688295;-0.899658203125;-0.068878173828125;7.97999997985244;799;100 mA
123.46924968827;-0.89935302734375;-0.068878173828125;7.98999997982719;800;100 mA
123.479249688245;-0.89996337890625;-0.06884765625;7.99999997980194;801;100 mA
123.48924968822;-0.899658203125;-0.069091796875;8.00999997977669;802;100 mA
123.499249688194;-0.899658203125;-0.069061279296875;8.01999997975145;803;100 mA
123.509249688169;-0.899658203125;-0.0694580078125;8.0299999797262;804;100 mA
123.519249688144;-0.89935302734375;-0.069549560546875;8.03999997970095;805;100 mA
123.529249688119;-0.899658203125;-0.06976318359375;8.0499999796757;806;100 mA
123.539249688093;-0.89935302734375;-0.069549560546875;8.05999997965046;807;100 mA
123.549249688068;-0.89935302734375;-0.06939697265625;8.06999997962521;808;100 mA
123.559249688043;-0.899658203125;-0.069366455078125;8.07999997959996;809;100 mA
123.569249688018;-0.899658203125;-0.0693359375;8.08999997957471;810;100 mA
123.579249687992;-0.899658203125;-0.06939697265625;8.09999997954947;811;100 mA
123.589249687967;-0.8990478515625;-0.069549560546875;8.10999997952422;812;100 mA
123.599249687942;-0.89935302734375;-0.069366455078125;8.11999997949897;813;100 mA
123.609249687917;-0.899658203125;-0.06939697265625;8.12999997947372;814;100 mA
123.619249687891;-0.89935302734375;-0.0692138671875;8.13999997944848;815;100 mA
123.629249687866;-0.899658203125;-0.06915283203125;8.14999997942323;816;100 mA
123.639249687841;-0.899658203125;-0.069091796875;8.15999997939798;817;100 mA
123.649249687816;-0.89935302734375;-0.0689697265625;8.16999997937273;818;100 mA
123.65924968779;-0.899658203125;-0.068817138671875;8.17999997934749;819;100 mA
123.669249687765;-0.9002685546875;-0.069183349609375;8.18999997932224;820;100 mA
123.67924968774;-0.9002685546875;-0.068939208984375;8.19999997929699;821;100 mA
123.689249687715;-0.899658203125;-0.069091796875;8.20999997927174;822;100 mA
123.699249687689;-0.8990478515625;-0.06878662109375;8.2199999792465;823;100 mA
123.709249687664;-0.899658203125;-0.068756103515625;8.22999997922125;824;100 mA
123.719249687639;-0.89935302734375;-0.068756103515625;8.239999979196;825;100 mA
123.729249687614;-0.89996337890625;-0.0689697265625;8.24999997917075;826;100 mA
123.739249687588;-0.899658203125;-0.068878173828125;8.2599999791455;827;100 mA
123.749249687563;-0.899658203125;-0.069305419921875;8.26999997912026;828;100 mA
123.759249687538;-0.89996337890625;-0.06903076171875;8.27999997909501;829;100 mA
123.769249687513;-0.89935302734375;-0.06927490234375;8.28999997906976;830;100 mA
123.779249687487;-0.8990478515625;-0.068939208984375;8.29999997904451;831;100 mA
123.789249687462;-0.8990478515625;-0.069091796875;8.30999997901927;832;100 mA
123.799249687437;-0.89996337890625;-0.069000244140625;8.31999997899402;833;100 mA
123.809249687412;-0.89935302734375;-0.069305419921875;8.32999997896877;834;100 mA
123.819249687386;-0.8990478515625;-0.0693359375;8.33999997894352;835;100 mA
123.829249687361;-0.899658203125;-0.069915771484375;8.34999997891828;836;100 mA
123.839249687336;-0.89935302734375;-0.069793701171875;8.35999997889303;837;100 mA
123.849249687311;-0.89935302734375;-0.070068359375;8.36999997886778;838;100 mA
123.859249687285;-0.89935302734375;-0.06982421875;8.37999997884253;839;100 mA
123.86924968726;-0.89935302734375;-0.06988525390625;8.38999997881729;840;100 mA
123.879249687235;-0.899658203125;-0.06988525390625;8.39999997879204;841;100 mA
123.88924968721;-0.89874267578125;-0.069976806640625;8.40999997876679;842;100 mA
123.899249687184;-0.89874267578125;-0.069793701171875;8.41999997874154;843;100 mA
123.909249687159;-0.899658203125;-0.069915771484375;8.4299999787163;844;100 mA
123.919249687134;-0.8990478515625;-0.06976318359375;8.43999997869105;845;100 mA
123.929249687109;-0.899658203125;-0.0697021484375;8.4499999786658;846;100 mA
123.939249687083;-0.89935302734375;-0.0693359375;8.45999997864055;847;100 mA
123.949249687058;-0.89935302734375;-0.069091796875;8.46999997861531;848;100 mA
123.959249687033;-0.899658203125;-0.069000244140625;8.47999997859006;849;100 mA
123.969249687008;-0.899658203125;-0.06890869140625;8.48999997856481;850;100 mA
123.979249686982;-0.89996337890625;-0.06890869140625;8.49999997853956;851;100 mA
123.989249686957;-0.89935302734375;-0.069091796875;8.50999997851432;852;100 mA
123.999249686932;-0.899658203125;-0.069000244140625;8.51999997848907;853;100 mA
124.009249686907;-0.899658203125;-0.069091796875;8.52999997846382;854;100 mA
124.019249686881;-0.89935302734375;-0.06890869140625;8.53999997843857;855;100 mA
124.029249686856;-0.89935302734375;-0.068817138671875;8.54999997841333;856;100 mA
124.039249686831;-0.899658203125;-0.068634033203125;8.55999997838808;857;100 mA
124.049249686806;-0.8990478515625;-0.06842041015625;8.56999997836283;858;100 mA
124.059249686781;-0.899658203125;-0.068267822265625;8.57999997833758;859;100 mA
124.069249686755;-0.899658203125;-0.068572998046875;8.58999997831233;860;100 mA
124.07924968673;-0.89935302734375;-0.068359375;8.59999997828709;861;100 mA
124.089249686705;-0.89935302734375;-0.068450927734375;8.60999997826184;862;100 mA
124.09924968668;-0.899658203125;-0.068145751953125;8.61999997823659;863;100 mA
124.109249686654;-0.89935302734375;-0.06805419921875;8.62999997821134;864;100 mA
124.119249686629;-0.899658203125;-0.0679931640625;8.6399999781861;865;100 mA
124.129249686604;-0.89996337890625;-0.06817626953125;8.64999997816085;866;100 mA
124.139249686579;-0.89935302734375;-0.06805419921875;8.6599999781356;867;100 mA
124.149249686553;-0.899658203125;-0.068450927734375;8.66999997811035;868;100 mA
124.159249686528;-0.8990478515625;-0.0682373046875;8.67999997808511;869;100 mA
124.169249686503;-0.899658203125;-0.068450927734375;8.68999997805986;870;100 mA
124.179249686478;-0.8990478515625;-0.068084716796875;8.69999997803461;871;100 mA
124.189249686452;-0.89935302734375;-0.06817626953125;8.70999997800936;872;100 mA
124.199249686427;-0.899658203125;-0.06805419921875;8.71999997798412;873;100 mA
124.209249686402;-0.89935302734375;-0.068328857421875;8.72999997795887;874;100 mA
124.219249686377;-0.89935302734375;-0.06842041015625;8.73999997793362;875;100 mA
124.229249686351;-0.89996337890625;-0.0689697265625;8.74999997790837;876;100 mA
124.239249686326;-0.8990478515625;-0.06890869140625;8.75999997788313;877;100 mA
124.249249686301;-0.89935302734375;-0.06915283203125;8.76999997785788;878;100 mA
124.259249686276;-0.899658203125;-0.068939208984375;8.77999997783263;879;100 mA
124.26924968625;-0.89935302734375;-0.06903076171875;8.78999997780738;880;100 mA
124.279249686225;-0.899658203125;-0.069091796875;8.79999997778214;881;100 mA
124.2892496862;-0.89935302734375;-0.0692138671875;8.80999997775689;882;100 mA
124.299249686175;-0.89935302734375;-0.069183349609375;8.81999997773164;883;100 mA
124.309249686149;-0.89935302734375;-0.06939697265625;8.82999997770639;884;100 mA
124.319249686124;-0.899658203125;-0.069427490234375;8.83999997768115;885;100 mA
124.329249686099;-0.89935302734375;-0.069549560546875;8.8499999776559;886;100 mA
124.339249686074;-0.8990478515625;-0.069366455078125;8.85999997763065;887;100 mA
124.349249686048;-0.89935302734375;-0.069183349609375;8.8699999776054;888;100 mA
124.359249686023;-0.8990478515625;-0.069091796875;8.87999997758016;889;100 mA
124.369249685998;-0.8990478515625;-0.0689697265625;8.88999997755491;890;100 mA
124.379249685973;-0.89996337890625;-0.068878173828125;8.89999997752966;891;100 mA
124.389249685947;-0.89935302734375;-0.068939208984375;8.90999997750441;892;100 mA
124.399249685922;-0.89935302734375;-0.068695068359375;8.91999997747916;893;100 mA
124.409249685897;-0.9002685546875;-0.068695068359375;8.92999997745392;894;100 mA
124.419249685872;-0.89935302734375;-0.068450927734375;8.93999997742867;895;100 mA
124.429249685846;-0.89935302734375;-0.068450927734375;8.94999997740342;896;100 mA
124.439249685821;-0.899658203125;-0.068359375;8.95999997737817;897;100 mA
124.449249685796;-0.89935302734375;-0.068389892578125;8.96999997735293;898;100 mA
124.459249685771;-0.8990478515625;-0.068359375;8.97999997732768;899;100 mA
124.469249685745;-0.8990478515625;-0.068817138671875;8.98999997730243;900;100 mA
124.47924968572;-0.8990478515625;-0.06866455078125;8.99999997727718;901;100 mA
124.489249685695;-0.89996337890625;-0.068817138671875;9.00999997725194;902;100 mA
124.49924968567;-0.899658203125;-0.068572998046875;9.01999997722669;903;100 mA
124.509249685644;-0.899658203125;-0.068572998046875;9.02999997720144;904;100 mA
124.519249685619;-0.8990478515625;-0.06854248046875;9.03999997717619;905;100 mA
124.529249685594;-0.899658203125;-0.06878662109375;9.04999997715095;906;100 mA
124.539249685569;-0.89935302734375;-0.0687255859375;9.0599999771257;907;100 mA
124.549249685543;-0.89996337890625;-0.069122314453125;9.06999997710045;908;100 mA
124.559249685518;-0.899658203125;-0.068939208984375;9.0799999770752;909;100 mA
124.569249685493;-0.899658203125;-0.06915283203125;9.08999997704996;910;100 mA
124.579249685468;-0.8990478515625;-0.068817138671875;9.09999997702471;911;100 mA
124.589249685442;-0.89996337890625;-0.0689697265625;9.10999997699946;912;100 mA
124.599249685417;-0.899658203125;-0.06890869140625;9.11999997697421;913;100 mA
124.609249685392;-0.899658203125;-0.069244384765625;9.12999997694897;914;100 mA
124.619249685367;-0.899658203125;-0.0693359375;9.13999997692372;915;100 mA
124.629249685341;-0.89996337890625;-0.069854736328125;9.14999997689847;916;100 mA
124.639249685316;-0.89935302734375;-0.06976318359375;9.15999997687322;917;100 mA
124.649249685291;-0.899658203125;-0.070037841796875;9.16999997684798;918;100 mA
124.659249685266;-0.89935302734375;-0.069854736328125;9.17999997682273;919;100 mA
124.66924968524;-0.89996337890625;-0.069915771484375;9.18999997679748;920;100 mA
124.679249685215;-0.8990478515625;-0.069915771484375;9.19999997677223;921;100 mA
124.68924968519;-0.89935302734375;-0.070037841796875;9.20999997674699;922;100 mA
124.699249685165;-0.8990478515625;-0.069976806640625;9.21999997672174;923;100 mA
124.709249685139;-0.89996337890625;-0.070220947265625;9.22999997669649;924;100 mA
124.719249685114;-0.89935302734375;-0.070281982421875;9.23999997667124;925;100 mA
124.729249685089;-0.89874267578125;-0.07037353515625;9.249999976646;926;100 mA
124.739249685064;-0.89935302734375;-0.07012939453125;9.25999997662075;927;100 mA
124.749249685038;-0.89935302734375;-0.06988525390625;9.2699999765955;928;100 mA
124.759249685013;-0.89996337890625;-0.069732666015625;9.27999997657025;929;100 mA
124.769249684988;-0.89935302734375;-0.069580078125;9.289999976545;930;100 mA
124.779249684963;-0.899658203125;-0.06951904296875;9.29999997651976;931;100 mA
124.789249684937;-0.89996337890625;-0.069610595703125;9.30999997649451;932;100 mA
124.799249684912;-0.899658203125;-0.0694580078125;9.31999997646926;933;100 mA
124.809249684887;-0.899658203125;-0.069580078125;9.32999997644401;934;100 mA
124.819249684862;-0.899658203125;-0.069427490234375;9.33999997641877;935;100 mA
124.829249684836;-0.89996337890625;-0.06939697265625;9.34999997639352;936;100 mA
124.839249684811;-0.8990478515625;-0.069244384765625;9.35999997636827;937;100 mA
124.849249684786;-0.89935302734375;-0.0692138671875;9.36999997634302;938;100 mA
124.859249684761;-0.89874267578125;-0.069061279296875;9.37999997631778;939;100 mA
124.869249684735;-0.899658203125;-0.0694580078125;9.38999997629253;940;100 mA
124.87924968471;-0.899658203125;-0.0692138671875;9.39999997626728;941;100 mA
124.889249684685;-0.899658203125;-0.069366455078125;9.40999997624203;942;100 mA
124.89924968466;-0.899658203125;-0.069061279296875;9.41999997621679;943;100 mA
124.909249684634;-0.89935302734375;-0.06903076171875;9.42999997619154;944;100 mA
124.919249684609;-0.9002685546875;-0.0689697265625;9.43999997616629;945;100 mA
124.929249684584;-0.89935302734375;-0.069183349609375;9.44999997614104;946;100 mA
124.939249684559;-0.8990478515625;-0.069061279296875;9.4599999761158;947;100 mA
124.949249684533;-0.8990478515625;-0.069366455078125;9.46999997609055;948;100 mA
124.959249684508;-0.9002685546875;-0.069183349609375;9.4799999760653;949;100 mA
124.969249684483;-0.899658203125;-0.06939697265625;9.48999997604005;950;100 mA
124.979249684458;-0.8990478515625;-0.069122314453125;9.49999997601481;951;100 mA
124.989249684432;-0.89935302734375;-0.069244384765625;9.50999997598956;952;100 mA
124.999249684407;-0.899658203125;-0.06915283203125;9.51999997596431;953;100 mA
125.009249684382;-0.899658203125;-0.0693359375;9.52999997593906;954;100 mA
125.019249684357;-0.899658203125;-0.0693359375;9.53999997591382;955;100 mA
125.029249684331;-0.899658203125;-0.069732666015625;9.54999997588857;956;100 mA
125.039249684306;-0.8990478515625;-0.069610595703125;9.55999997586332;957;100 mA
125.049249684281;-0.89935302734375;-0.06976318359375;9.56999997583807;958;100 mA
125.059249684256;-0.8990478515625;-0.069549560546875;9.57999997581283;959;100 mA
125.06924968423;-0.8990478515625;-0.069580078125;9.58999997578758;960;100 mA
125.079249684205;-0.89935302734375;-0.069580078125;9.59999997576233;961;100 mA
125.08924968418;-0.89935302734375;-0.069610595703125;9.60999997573708;962;100 mA
125.099249684155;-0.899658203125;-0.06951904296875;9.61999997571183;963;100 mA
125.10924968413;-0.899658203125;-0.069671630859375;9.62999997568659;964;100 mA
125.119249684104;-0.899658203125;-0.069610595703125;9.63999997566134;965;100 mA
125.129249684079;-0.89935302734375;-0.06964111328125;9.64999997563609;966;100 mA
125.139249684054;-0.899658203125;-0.06939697265625;9.65999997561084;967;100 mA
125.149249684029;-0.8990478515625;-0.069122314453125;9.6699999755856;968;100 mA
125.159249684003;-0.89935302734375;-0.06903076171875;9.67999997556035;969;100 mA
125.169249683978;-0.899658203125;-0.0689697265625;9.6899999755351;970;100 mA
125.179249683953;-0.89996337890625;-0.06890869140625;9.69999997550985;971;100 mA
125.189249683928;-0.89935302734375;-0.069091796875;9.70999997548461;972;100 mA
125.199249683902;-0.8990478515625;-0.068878173828125;9.71999997545936;973;100 mA
125.209249683877;-0.89935302734375;-0.0689697265625;9.72999997543411;974;100 mA
125.219249683852;-0.89935302734375;-0.0687255859375;9.73999997540886;975;100 mA
125.229249683827;-0.899658203125;-0.068695068359375;9.74999997538362;976;100 mA
125.239249683801;-0.8990478515625;-0.06854248046875;9.75999997535837;977;100 mA
125.249249683776;-0.8990478515625;-0.068511962890625;9.76999997533312;978;100 mA
125.259249683751;-0.8990478515625;-0.068359375;9.77999997530787;979;100 mA
125.269249683726;-0.89935302734375;-0.068756103515625;9.78999997528263;980;100 mA
125.2792496837;-0.89935302734375;-0.068450927734375;9.79999997525738;981;100 mA
125.289249683675;-0.8990478515625;-0.068603515625;9.80999997523213;982;100 mA
125.29924968365;-0.89935302734375;-0.0682373046875;9.81999997520688;983;100 mA
125.309249683625;-0.8990478515625;-0.06817626953125;9.82999997518164;984;100 mA
125.319249683599;-0.8990478515625;-0.068084716796875;9.83999997515639;985;100 mA
125.329249683574;-0.899658203125;-0.068267822265625;9.84999997513114;986;100 mA
125.339249683549;-0.899658203125;-0.068145751953125;9.85999997510589;987;100 mA
125.349249683524;-0.89935302734375;-0.0684814453125;9.86999997508065;988;100 mA
125.359249683498;-0.899658203125;-0.068206787109375;9.8799999750554;989;100 mA
125.369249683473;-0.899658203125;-0.068328857421875;9.88999997503015;990;100 mA
125.379249683448;-0.89935302734375;-0.06793212890625;9.8999999750049;991;100 mA
125.389249683423;-0.89935302734375;-0.067962646484375;9.90999997497966;992;100 mA
125.399249683397;-0.89935302734375;-0.067779541015625;9.91999997495441;993;100 mA
125.409249683372;-0.89935302734375;-0.067901611328125;9.92999997492916;994;100 mA
125.419249683347;-0.89996337890625;-0.06787109375;9.93999997490391;995;100 mA
125.429249683322;-0.9002685546875;-0.06817626953125;9.94999997487866;996;100 mA
125.439249683296;-0.899658203125;-0.06805419921875;9.95999997485342;997;100 mA
125.449249683271;-0.89935302734375;-0.068115234375;9.96999997482817;998;100 mA
125.459249683246;-0.89935302734375;-0.067840576171875;9.97999997480292;999;100 mA
125.469249683221;-0.89996337890625;-0.067779541015625;9.98999997477767;1000;100 mA
