Time (s);WE(1).Potential (V);WE(1).Current (A);Corrected time (s);Index;Current range
0.547231998618372;-0.3997802734375;-0.0227020263671875;0;1;1 A
0.557231998593124;-0.39971923828125;-0.0191009521484375;0.00999999997475243;2;1 A
0.567231998567877;-0.3997802734375;-0.0167816162109375;0.0199999999495049;3;1 A
0.577231998542629;-0.3997802734375;-0.0151580810546875;0.0299999999242573;4;1 A
0.587231998517382;-0.399688720703125;-0.0139190673828125;0.0399999998990097;5;1 A
0.597231998492134;-0.399749755859375;-0.012957763671875;0.0499999998737621;6;1 A
0.607231998466887;-0.399688720703125;-0.01217041015625;0.0599999998485146;7;1 A
0.617231998441639;-0.39971923828125;-0.01151123046875;0.069999999823267;8;1 A
0.627231998416391;-0.399749755859375;-0.010955810546875;0.0799999997980194;9;1 A
0.637231998391144;-0.39971923828125;-0.010479736328125;0.0899999997727718;10;1 A
0.647231998365896;-0.39971923828125;-0.01007080078125;0.0999999997475243;11;1 A
0.657231998340649;-0.3997802734375;-0.00971069335937499;0.109999999722277;12;1 A
0.667231998315401;-0.399810791015625;-0.00938720703125;0.119999999697029;13;1 A
0.677231998290154;-0.399749755859375;-0.00909423828125;0.129999999671782;14;1 A
0.687231998264906;-0.39971923828125;-0.00882568359374999;0.139999999646534;15;1 A
0.697231998239658;-0.3997802734375;-0.00859680175781249;0.149999999621286;16;1 A
0.707231998214411;-0.39971923828125;-0.0083770751953125;0.159999999596039;17;1 A
0.717231998189163;-0.399749755859375;-0.0081756591796875;0.169999999570791;18;1 A
0.727231998163916;-0.399688720703125;-0.0080078125;0.179999999545544;19;1 A
0.737231998138668;-0.399810791015625;-0.00783691406250001;0.189999999520296;20;1 A
0.747231998113421;-0.3997802734375;-0.00769653320312499;0.199999999495049;21;1 A
0.757231998088173;-0.399749755859375;-0.00754699707031251;0.209999999469801;22;1 A
0.767231998062925;-0.399749755859375;-0.0074188232421875;0.219999999444553;23;1 A
0.777231998037678;-0.399688720703125;-0.007293701171875;0.229999999419306;24;1 A
0.78723199801243;-0.399749755859375;-0.0071685791015625;0.239999999394058;25;1 A
0.797231997987183;-0.399749755859375;-0.00706787109375;0.249999999368811;26;1 A
0.807231997961935;-0.3997802734375;-0.00696716308593751;0.259999999343563;27;1 A
0.817231997936688;-0.399810791015625;-0.0068695068359375;0.269999999318316;28;1 A
0.82723199791144;-0.39971923828125;-0.006793212890625;0.279999999293068;29;1 A
0.837231997886192;-0.399749755859375;-0.00670166015625;0.28999999926782;30;1 A
0.847231997860945;-0.39971923828125;-0.00664367675781249;0.299999999242573;31;1 A
0.857231997835697;-0.399749755859375;-0.00657043457031251;0.309999999217325;32;1 A
0.86723199781045;-0.3997802734375;-0.0065032958984375;0.319999999192078;33;1 A
0.877231997785202;-0.399810791015625;-0.00644836425781251;0.32999999916683;34;1 A
0.887231997759955;-0.3997802734375;-0.006390380859375;0.339999999141583;35;1 A
0.897231997734707;-0.399749755859375;-0.0063446044921875;0.349999999116335;36;1 A
0.907231997709459;-0.39971923828125;-0.00629577636718751;0.359999999091087;37;1 A
0.917231997684212;-0.399749755859375;-0.00623779296875;0.36999999906584;38;1 A
0.927231997658964;-0.399658203125;-0.00620117187499999;0.379999999040592;39;1 A
0.937231997633717;-0.399749755859375;-0.00614318847656251;0.389999999015345;40;1 A
0.947231997608469;-0.3997802734375;-0.006103515625;0.399999998990097;41;1 A
0.957231997583222;-0.399749755859375;-0.00605163574218751;0.40999999896485;42;1 A
0.967231997557974;-0.39971923828125;-0.00600280761718749;0.419999998939602;43;1 A
0.977231997532726;-0.399749755859375;-0.0059661865234375;0.429999998914354;44;1 A
0.987231997507479;-0.39971923828125;-0.00592651367187499;0.439999998889107;45;1 A
0.997231997482231;-0.399749755859375;-0.00589904785156251;0.449999998863859;46;1 A
1.00723199745698;-0.39971923828125;-0.00586853027343751;0.459999998838612;47;1 A
1.01723199743174;-0.399688720703125;-0.00583496093749999;0.469999998813364;48;1 A
1.02723199740649;-0.399749755859375;-0.005810546875;0.479999998788116;49;1 A
1.03723199738124;-0.3997802734375;-0.005780029296875;0.489999998762869;50;1 A
1.04723199735599;-0.39971923828125;-0.00576171875000001;0.499999998737621;51;1 A
1.05723199733075;-0.39971923828125;-0.00574340820312499;0.509999998712374;52;1 A
1.0672319973055;-0.399749755859375;-0.0057220458984375;0.519999998687126;53;1 A
1.07723199728025;-0.39971923828125;-0.00571289062499999;0.529999998661879;54;1 A
1.087231997255;-0.3997802734375;-0.0056915283203125;0.539999998636631;55;1 A
1.09723199722976;-0.39971923828125;-0.00568237304687499;0.549999998611383;56;1 A
1.10723199720451;-0.399749755859375;-0.005657958984375;0.559999998586136;57;1 A
1.11723199717926;-0.399749755859375;-0.00563659667968749;0.569999998560888;58;1 A
1.12723199715401;-0.399658203125;-0.0056304931640625;0.579999998535641;59;1 A
1.13723199712877;-0.3997802734375;-0.0056121826171875;0.589999998510393;60;1 A
1.14723199710352;-0.399688720703125;-0.0056121826171875;0.599999998485146;61;1 A
1.15723199707827;-0.39971923828125;-0.00559387207031251;0.609999998459898;62;1 A
1.16723199705302;-0.399749755859375;-0.0055877685546875;0.61999999843465;63;1 A
1.17723199702777;-0.39971923828125;-0.0055816650390625;0.629999998409403;64;1 A
1.18723199700253;-0.3997802734375;-0.00557556152343749;0.639999998384155;65;1 A
1.19723199697728;-0.399749755859375;-0.00557556152343749;0.649999998358908;66;1 A
1.20723199695203;-0.39971923828125;-0.00556640625;0.65999999833366;67;1 A
1.21723199692678;-0.399688720703125;-0.00555419921875;0.669999998308413;68;1 A
1.22723199690154;-0.39971923828125;-0.0055572509765625;0.679999998283165;69;1 A
1.23723199687629;-0.399749755859375;-0.0055419921875;0.689999998257917;70;1 A
1.24723199685104;-0.39971923828125;-0.00554504394531249;0.69999999823267;71;1 A
1.25723199682579;-0.39971923828125;-0.00553283691406251;0.709999998207422;72;1 A
1.26723199680055;-0.399810791015625;-0.00551757812500001;0.719999998182175;73;1 A
1.2772319967753;-0.399658203125;-0.00551757812500001;0.729999998156927;74;1 A
1.28723199675005;-0.39971923828125;-0.00550231933593751;0.73999999813168;75;1 A
1.2972319967248;-0.399749755859375;-0.00550537109375;0.749999998106432;76;1 A
1.30723199669956;-0.3997802734375;-0.0054962158203125;0.759999998081184;77;1 A
1.31723199667431;-0.399749755859375;-0.00548400878906249;0.769999998055937;78;1 A
1.32723199664906;-0.39971923828125;-0.0054962158203125;0.779999998030689;79;1 A
1.33723199662381;-0.399810791015625;-0.00548400878906249;0.789999998005442;80;1 A
1.34723199659857;-0.399749755859375;-0.0054931640625;0.799999997980194;81;1 A
1.35723199657332;-0.39971923828125;-0.0054931640625;0.809999997954947;82;1 A
1.36723199654807;-0.39971923828125;-0.0054901123046875;0.819999997929699;83;1 A
1.37723199652282;-0.399749755859375;-0.0054962158203125;0.829999997904451;84;1 A
1.38723199649758;-0.39984130859375;-0.0054931640625;0.839999997879204;85;1 A
1.39723199647233;-0.399688720703125;-0.0054962158203125;0.849999997853956;86;1 A
1.40723199644708;-0.399749755859375;-0.0054962158203125;0.859999997828709;87;1 A
1.41723199642183;-0.3997802734375;-0.0054901123046875;0.869999997803461;88;1 A
1.42723199639659;-0.399749755859375;-0.00549926757812499;0.879999997778214;89;1 A
1.43723199637134;-0.399810791015625;-0.0054931640625;0.889999997752966;90;1 A
1.44723199634609;-0.399749755859375;-0.00550231933593751;0.899999997727718;91;1 A
1.45723199632084;-0.399810791015625;-0.00549926757812499;0.909999997702471;92;1 A
1.4672319962956;-0.3997802734375;-0.0054962158203125;0.919999997677223;93;1 A
1.47723199627035;-0.399810791015625;-0.00550537109375;0.929999997651976;94;1 A
1.4872319962451;-0.3997802734375;-0.00550537109375;0.939999997626728;95;1 A
1.49723199621985;-0.39971923828125;-0.00550537109375;0.949999997601481;96;1 A
1.50723199619461;-0.3997802734375;-0.00550231933593751;0.959999997576233;97;1 A
1.51723199616936;-0.399749755859375;-0.00549926757812499;0.969999997550985;98;1 A
1.52723199614411;-0.3997802734375;-0.00550537109375;0.979999997525738;99;1 A
1.53723199611886;-0.399810791015625;-0.0054962158203125;0.98999999750049;100;1 A
1.54723199609361;-0.399749755859375;-0.0054962158203125;0.999999997475243;101;1 A
1.55723199606837;-0.399749755859375;-0.00548706054687501;1.00999999745;102;1 A
1.56723199604312;-0.399749755859375;-0.0054779052734375;1.01999999742475;103;1 A
1.57723199601787;-0.399810791015625;-0.00546874999999999;1.0299999973995;104;1 A
1.58723199599262;-0.3997802734375;-0.00545349121093749;1.03999999737425;105;1 A
1.59723199596738;-0.39971923828125;-0.0054473876953125;1.049999997349;106;1 A
1.60723199594213;-0.3997802734375;-0.00543212890625;1.05999999732376;107;1 A
1.61723199591688;-0.39971923828125;-0.005419921875;1.06999999729851;108;1 A
1.62723199589163;-0.399749755859375;-0.0054168701171875;1.07999999727326;109;1 A
1.63723199586639;-0.399749755859375;-0.0054046630859375;1.08999999724801;110;1 A
1.64723199584114;-0.39971923828125;-0.0054046630859375;1.09999999722277;111;1 A
1.65723199581589;-0.39984130859375;-0.005389404296875;1.10999999719752;112;1 A
1.66723199579064;-0.399688720703125;-0.00538024902343751;1.11999999717227;113;1 A
1.6772319957654;-0.3997802734375;-0.00538024902343751;1.12999999714702;114;1 A
1.68723199574015;-0.39971923828125;-0.0053680419921875;1.13999999712178;115;1 A
1.6972319957149;-0.39971923828125;-0.00536499023437501;1.14999999709653;116;1 A
1.70723199568965;-0.39971923828125;-0.00535888671875;1.15999999707128;117;1 A
1.71723199566441;-0.3997802734375;-0.00534973144531251;1.16999999704603;118;1 A
1.72723199563916;-0.39971923828125;-0.005352783203125;1.17999999702079;119;1 A
1.73723199561391;-0.39971923828125;-0.00533447265625001;1.18999999699554;120;1 A
1.74723199558866;-0.399749755859375;-0.0053375244140625;1.19999999697029;121;1 A
1.75723199556342;-0.3997802734375;-0.00533447265625001;1.20999999694504;122;1 A
1.76723199553817;-0.399749755859375;-0.005328369140625;1.2199999969198;123;1 A
1.77723199551292;-0.39984130859375;-0.00533447265625001;1.22999999689455;124;1 A
1.78723199548767;-0.399810791015625;-0.005328369140625;1.2399999968693;125;1 A
1.79723199546243;-0.399749755859375;-0.005328369140625;1.24999999684405;126;1 A
1.80723199543718;-0.39971923828125;-0.0053253173828125;1.25999999681881;127;1 A
1.81723199541193;-0.39971923828125;-0.0053070068359375;1.26999999679356;128;1 A
1.82723199538668;-0.39971923828125;-0.00530395507812501;1.27999999676831;129;1 A
1.83723199536144;-0.39971923828125;-0.00528869628906251;1.28999999674306;130;1 A
1.84723199533619;-0.399749755859375;-0.0052825927734375;1.29999999671782;131;1 A
1.85723199531094;-0.399749755859375;-0.00527343750000001;1.30999999669257;132;1 A
1.86723199528569;-0.399749755859375;-0.0052642822265625;1.31999999666732;133;1 A
1.87723199526044;-0.399749755859375;-0.00527038574218749;1.32999999664207;134;1 A
1.8872319952352;-0.399749755859375;-0.005267333984375;1.33999999661683;135;1 A
1.89723199520995;-0.399749755859375;-0.005267333984375;1.34999999659158;136;1 A
1.9072319951847;-0.399810791015625;-0.00526123046875;1.35999999656633;137;1 A
1.91723199515945;-0.399749755859375;-0.00526123046875;1.36999999654108;138;1 A
1.92723199513421;-0.39971923828125;-0.00526123046875;1.37999999651583;139;1 A
1.93723199510896;-0.399749755859375;-0.0052520751953125;1.38999999649059;140;1 A
1.94723199508371;-0.399688720703125;-0.0052520751953125;1.39999999646534;141;1 A
1.95723199505846;-0.39971923828125;-0.0052520751953125;1.40999999644009;142;1 A
1.96723199503322;-0.399658203125;-0.00523986816406249;1.41999999641484;143;1 A
1.97723199500797;-0.39971923828125;-0.00523986816406249;1.4299999963896;144;1 A
1.98723199498272;-0.39971923828125;-0.00522460937499999;1.43999999636435;145;1 A
1.99723199495747;-0.399749755859375;-0.00522460937499999;1.4499999963391;146;1 A
2.00723199493223;-0.399810791015625;-0.00521240234375001;1.45999999631385;147;1 A
2.01723199490698;-0.399688720703125;-0.0052001953125;1.46999999628861;148;1 A
2.02723199488173;-0.3997802734375;-0.0052001953125;1.47999999626336;149;1 A
2.03723199485648;-0.399749755859375;-0.00519714355468751;1.48999999623811;150;1 A
2.04723199483124;-0.3997802734375;-0.005206298828125;1.49999999621286;151;1 A
2.05723199480599;-0.3997802734375;-0.00520935058593749;1.50999999618762;152;1 A
2.06723199478074;-0.399688720703125;-0.00520935058593749;1.51999999616237;153;1 A
2.07723199475549;-0.3997802734375;-0.00522460937499999;1.52999999613712;154;1 A
2.08723199473025;-0.3997802734375;-0.0052215576171875;1.53999999611187;155;1 A
2.097231994705;-0.39971923828125;-0.00522766113281251;1.54999999608663;156;1 A
2.10723199467975;-0.399810791015625;-0.00522766113281251;1.55999999606138;157;1 A
2.1172319946545;-0.399749755859375;-0.005230712890625;1.56999999603613;158;1 A
2.12723199462926;-0.3997802734375;-0.00523681640625;1.57999999601088;159;1 A
2.13723199460401;-0.399749755859375;-0.0052337646484375;1.58999999598564;160;1 A
2.14723199457876;-0.399749755859375;-0.00523986816406249;1.59999999596039;161;1 A
2.15723199455351;-0.3997802734375;-0.00524291992187501;1.60999999593514;162;1 A
2.16723199452827;-0.39971923828125;-0.00523986816406249;1.61999999590989;163;1 A
2.17723199450302;-0.3997802734375;-0.00525512695312499;1.62999999588465;164;1 A
2.18723199447777;-0.3997802734375;-0.00525512695312499;1.6399999958594;165;1 A
2.19723199445252;-0.399749755859375;-0.00527038574218749;1.64999999583415;166;1 A
2.20723199442727;-0.399658203125;-0.00527343750000001;1.6599999958089;167;1 A
2.21723199440203;-0.39971923828125;-0.00527038574218749;1.66999999578366;168;1 A
2.22723199437678;-0.39971923828125;-0.005279541015625;1.67999999575841;169;1 A
2.23723199435153;-0.399749755859375;-0.0052825927734375;1.68999999573316;170;1 A
2.24723199432628;-0.399749755859375;-0.005291748046875;1.69999999570791;171;1 A
2.25723199430104;-0.3997802734375;-0.00528869628906251;1.70999999568267;172;1 A
2.26723199427579;-0.399749755859375;-0.00528564453124999;1.71999999565742;173;1 A
2.27723199425054;-0.39971923828125;-0.005291748046875;1.72999999563217;174;1 A
2.28723199422529;-0.39971923828125;-0.00528564453124999;1.73999999560692;175;1 A
2.29723199420005;-0.3997802734375;-0.00528869628906251;1.74999999558167;176;1 A
2.3072319941748;-0.399810791015625;-0.0052764892578125;1.75999999555643;177;1 A
2.31723199414955;-0.399688720703125;-0.005267333984375;1.76999999553118;178;1 A
2.3272319941243;-0.399749755859375;-0.00527038574218749;1.77999999550593;179;1 A
2.33723199409906;-0.39971923828125;-0.0052642822265625;1.78999999548068;180;1 A
2.34723199407381;-0.399688720703125;-0.00527038574218749;1.79999999545544;181;1 A
2.35723199404856;-0.3997802734375;-0.00527343750000001;1.80999999543019;182;1 A
2.36723199402331;-0.39971923828125;-0.0052764892578125;1.81999999540494;183;1 A
2.37723199399807;-0.3997802734375;-0.005279541015625;1.82999999537969;184;1 A
2.38723199397282;-0.39971923828125;-0.0052825927734375;1.83999999535445;185;1 A
2.39723199394757;-0.399749755859375;-0.005291748046875;1.8499999953292;186;1 A
2.40723199392232;-0.39971923828125;-0.0052947998046875;1.85999999530395;187;1 A
2.41723199389708;-0.39971923828125;-0.005291748046875;1.8699999952787;188;1 A
2.42723199387183;-0.399749755859375;-0.0052978515625;1.87999999525346;189;1 A
2.43723199384658;-0.399688720703125;-0.0052825927734375;1.88999999522821;190;1 A
2.44723199382133;-0.399749755859375;-0.00528564453124999;1.89999999520296;191;1 A
2.45723199379609;-0.39971923828125;-0.00527038574218749;1.90999999517771;192;1 A
2.46723199377084;-0.39971923828125;-0.00525512695312499;1.91999999515247;193;1 A
2.47723199374559;-0.399810791015625;-0.00525817871093751;1.92999999512722;194;1 A
2.48723199372034;-0.39971923828125;-0.00523986816406249;1.93999999510197;195;1 A
2.4972319936951;-0.3997802734375;-0.00524291992187501;1.94999999507672;196;1 A
2.50723199366985;-0.399749755859375;-0.0052337646484375;1.95999999505148;197;1 A
2.5172319936446;-0.399688720703125;-0.005230712890625;1.96999999502623;198;1 A
2.52723199361935;-0.399749755859375;-0.00523986816406249;1.97999999500098;199;1 A
2.53723199359411;-0.3997802734375;-0.0052337646484375;1.98999999497573;200;1 A
2.54723199356886;-0.3997802734375;-0.0052490234375;1.99999999495049;201;1 A
2.55723199354361;-0.399749755859375;-0.00525817871093751;2.00999999492524;202;1 A
2.56723199351836;-0.3997802734375;-0.00525817871093751;2.01999999489999;203;1 A
2.57723199349311;-0.39971923828125;-0.00527343750000001;2.02999999487474;204;1 A
2.58723199346787;-0.399627685546875;-0.0052764892578125;2.0399999948495;205;1 A
2.59723199344262;-0.399749755859375;-0.005291748046875;2.04999999482425;206;1 A
2.60723199341737;-0.399749755859375;-0.00530090332031249;2.059999994799;207;1 A
2.61723199339212;-0.399749755859375;-0.00530395507812501;2.06999999477375;208;1 A
2.62723199336688;-0.399749755859375;-0.005322265625;2.0799999947485;209;1 A
2.63723199334163;-0.39971923828125;-0.00533142089843749;2.08999999472326;210;1 A
2.64723199331638;-0.3997802734375;-0.0053436279296875;2.09999999469801;211;1 A
2.65723199329113;-0.3997802734375;-0.005352783203125;2.10999999467276;212;1 A
2.66723199326589;-0.39971923828125;-0.0053558349609375;2.11999999464751;213;1 A
2.67723199324064;-0.399810791015625;-0.0053680419921875;2.12999999462227;214;1 A
2.68723199321539;-0.399749755859375;-0.0053680419921875;2.13999999459702;215;1 A
2.69723199319014;-0.3997802734375;-0.00537719726562499;2.14999999457177;216;1 A
2.7072319931649;-0.3997802734375;-0.00537109375;2.15999999454652;217;1 A
2.71723199313965;-0.399749755859375;-0.0053741455078125;2.16999999452128;218;1 A
2.7272319931144;-0.3997802734375;-0.00538024902343751;2.17999999449603;219;1 A
2.73723199308915;-0.39971923828125;-0.0053741455078125;2.18999999447078;220;1 A
2.74723199306391;-0.399810791015625;-0.0053741455078125;2.19999999444553;221;1 A
2.75723199303866;-0.399810791015625;-0.00537109375;2.20999999442029;222;1 A
2.76723199301341;-0.3997802734375;-0.00535888671875;2.21999999439504;223;1 A
2.77723199298816;-0.399749755859375;-0.0053558349609375;2.22999999436979;224;1 A
2.78723199296292;-0.39971923828125;-0.0053436279296875;2.23999999434454;225;1 A
2.79723199293767;-0.399749755859375;-0.005340576171875;2.2499999943193;226;1 A
2.80723199291242;-0.39971923828125;-0.005322265625;2.25999999429405;227;1 A
2.81723199288717;-0.3997802734375;-0.00531616210937499;2.2699999942688;228;1 A
2.82723199286193;-0.3997802734375;-0.005322265625;2.27999999424355;229;1 A
2.83723199283668;-0.399749755859375;-0.0053131103515625;2.28999999421831;230;1 A
2.84723199281143;-0.399749755859375;-0.00531616210937499;2.29999999419306;231;1 A
2.85723199278618;-0.3997802734375;-0.0053070068359375;2.30999999416781;232;1 A
2.86723199276094;-0.3997802734375;-0.00530090332031249;2.31999999414256;233;1 A
2.87723199273569;-0.399688720703125;-0.0053070068359375;2.32999999411732;234;1 A
2.88723199271044;-0.3997802734375;-0.0052947998046875;2.33999999409207;235;1 A
2.89723199268519;-0.3997802734375;-0.005291748046875;2.34999999406682;236;1 A
2.90723199265994;-0.399688720703125;-0.0052825927734375;2.35999999404157;237;1 A
2.9172319926347;-0.3997802734375;-0.00527343750000001;2.36999999401633;238;1 A
2.92723199260945;-0.399749755859375;-0.005267333984375;2.37999999399108;239;1 A
2.9372319925842;-0.399749755859375;-0.0052520751953125;2.38999999396583;240;1 A
2.94723199255895;-0.399810791015625;-0.0052490234375;2.39999999394058;241;1 A
2.95723199253371;-0.3997802734375;-0.0052520751953125;2.40999999391533;242;1 A
2.96723199250846;-0.3997802734375;-0.0052490234375;2.41999999389009;243;1 A
2.97723199248321;-0.399627685546875;-0.00525817871093751;2.42999999386484;244;1 A
2.98723199245796;-0.3997802734375;-0.00525512695312499;2.43999999383959;245;1 A
2.99723199243272;-0.3997802734375;-0.0052642822265625;2.44999999381434;246;1 A
3.00723199240747;-0.3997802734375;-0.005267333984375;2.4599999937891;247;1 A
3.01723199238222;-0.3997802734375;-0.00526123046875;2.46999999376385;248;1 A
3.02723199235697;-0.399749755859375;-0.0052764892578125;2.4799999937386;249;1 A
3.03723199233173;-0.3997802734375;-0.005279541015625;2.48999999371335;250;1 A
3.04723199230648;-0.399810791015625;-0.005279541015625;2.49999999368811;251;1 A
3.05723199228123;-0.39971923828125;-0.0052764892578125;2.50999999366286;252;1 A
3.06723199225598;-0.399810791015625;-0.0052764892578125;2.51999999363761;253;1 A
3.07723199223074;-0.399749755859375;-0.005279541015625;2.52999999361236;254;1 A
3.08723199220549;-0.399688720703125;-0.0052764892578125;2.53999999358712;255;1 A
3.09723199218024;-0.399749755859375;-0.0052764892578125;2.54999999356187;256;1 A
3.10723199215499;-0.39971923828125;-0.005279541015625;2.55999999353662;257;1 A
3.11723199212975;-0.3997802734375;-0.005279541015625;2.56999999351137;258;1 A
3.1272319921045;-0.399688720703125;-0.005279541015625;2.57999999348613;259;1 A
3.13723199207925;-0.3997802734375;-0.005279541015625;2.58999999346088;260;1 A
3.147231992054;-0.399688720703125;-0.00528869628906251;2.59999999343563;261;1 A
3.15723199202876;-0.399749755859375;-0.005291748046875;2.60999999341038;262;1 A
3.16723199200351;-0.39971923828125;-0.0052978515625;2.61999999338514;263;1 A
3.17723199197826;-0.39971923828125;-0.0053070068359375;2.62999999335989;264;1 A
3.18723199195301;-0.399749755859375;-0.00530395507812501;2.63999999333464;265;1 A
3.19723199192777;-0.399749755859375;-0.00531616210937499;2.64999999330939;266;1 A
3.20723199190252;-0.39971923828125;-0.00531921386718751;2.65999999328415;267;1 A
3.21723199187727;-0.399749755859375;-0.0053131103515625;2.6699999932589;268;1 A
3.22723199185202;-0.39971923828125;-0.00531921386718751;2.67999999323365;269;1 A
3.23723199182677;-0.3997802734375;-0.0053070068359375;2.6899999932084;270;1 A
3.24723199180153;-0.39971923828125;-0.00531005859375;2.69999999318316;271;1 A
3.25723199177628;-0.39971923828125;-0.00530090332031249;2.70999999315791;272;1 A
3.26723199175103;-0.3997802734375;-0.00528869628906251;2.71999999313266;273;1 A
3.27723199172578;-0.399749755859375;-0.0052947998046875;2.72999999310741;274;1 A
3.28723199170054;-0.399749755859375;-0.00527038574218749;2.73999999308217;275;1 A
3.29723199167529;-0.399688720703125;-0.005267333984375;2.74999999305692;276;1 A
3.30723199165004;-0.399658203125;-0.00526123046875;2.75999999303167;277;1 A
3.31723199162479;-0.399749755859375;-0.0052520751953125;2.76999999300642;278;1 A
3.32723199159955;-0.399749755859375;-0.0052520751953125;2.77999999298117;279;1 A
3.3372319915743;-0.399749755859375;-0.00523681640625;2.78999999295593;280;1 A
3.34723199154905;-0.399749755859375;-0.0052459716796875;2.79999999293068;281;1 A
3.3572319915238;-0.399749755859375;-0.0052490234375;2.80999999290543;282;1 A
3.36723199149856;-0.399688720703125;-0.00523681640625;2.81999999288018;283;1 A
3.37723199147331;-0.3997802734375;-0.0052459716796875;2.82999999285494;284;1 A
3.38723199144806;-0.3997802734375;-0.00523986816406249;2.83999999282969;285;1 A
3.39723199142281;-0.399749755859375;-0.00523986816406249;2.84999999280444;286;1 A
3.40723199139757;-0.39984130859375;-0.00523681640625;2.85999999277919;287;1 A
3.41723199137232;-0.39971923828125;-0.0052215576171875;2.86999999275395;288;1 A
3.42723199134707;-0.399688720703125;-0.00522460937499999;2.8799999927287;289;1 A
3.43723199132182;-0.3997802734375;-0.00520935058593749;2.88999999270345;290;1 A
3.44723199129658;-0.39971923828125;-0.005206298828125;2.8999999926782;291;1 A
3.45723199127133;-0.39971923828125;-0.00519409179687499;2.90999999265296;292;1 A
3.46723199124608;-0.3997802734375;-0.00517883300781249;2.91999999262771;293;1 A
3.47723199122083;-0.3997802734375;-0.005169677734375;2.92999999260246;294;1 A
3.48723199119559;-0.3997802734375;-0.005157470703125;2.93999999257721;295;1 A
3.49723199117034;-0.39971923828125;-0.0051544189453125;2.94999999255197;296;1 A
3.50723199114509;-0.39971923828125;-0.00514831542968749;2.95999999252672;297;1 A
3.51723199111984;-0.39971923828125;-0.005145263671875;2.96999999250147;298;1 A
3.5272319910946;-0.3997802734375;-0.0051422119140625;2.97999999247622;299;1 A
3.53723199106935;-0.3997802734375;-0.00513610839843751;2.98999999245098;300;1 A
3.5472319910441;-0.39971923828125;-0.00513916015625;2.99999999242573;301;1 A
3.55723199101885;-0.399749755859375;-0.00513916015625;3.00999999240048;302;1 A
3.5672319909936;-0.399749755859375;-0.00513305664062499;3.01999999237523;303;1 A
3.57723199096836;-0.3997802734375;-0.00513305664062499;3.02999999234999;304;1 A
3.58723199094311;-0.3997802734375;-0.0051239013671875;3.03999999232474;305;1 A
3.59723199091786;-0.3997802734375;-0.00512084960937501;3.04999999229949;306;1 A
3.60723199089261;-0.3997802734375;-0.00511474609375;3.05999999227424;307;1 A
3.61723199086737;-0.399749755859375;-0.00511474609375;3.069999992249;308;1 A
3.62723199084212;-0.399749755859375;-0.00511779785156249;3.07999999222375;309;1 A
3.63723199081687;-0.399749755859375;-0.00511779785156249;3.0899999921985;310;1 A
3.64723199079162;-0.3997802734375;-0.0051239013671875;3.09999999217325;311;1 A
3.65723199076638;-0.399749755859375;-0.005126953125;3.109999992148;312;1 A
3.66723199074113;-0.3997802734375;-0.0051300048828125;3.11999999212276;313;1 A
3.67723199071588;-0.399749755859375;-0.00515136718750001;3.12999999209751;314;1 A
3.68723199069063;-0.3997802734375;-0.00514831542968749;3.13999999207226;315;1 A
3.69723199066539;-0.399749755859375;-0.0051605224609375;3.14999999204701;316;1 A
3.70723199064014;-0.39971923828125;-0.00516662597656251;3.15999999202177;317;1 A
3.71723199061489;-0.399749755859375;-0.0051727294921875;3.16999999199652;318;1 A
3.72723199058964;-0.3997802734375;-0.00518188476562501;3.17999999197127;319;1 A
3.7372319905644;-0.39971923828125;-0.00517578125;3.18999999194602;320;1 A
3.74723199053915;-0.39971923828125;-0.0051849365234375;3.19999999192078;321;1 A
3.7572319905139;-0.3997802734375;-0.00519409179687499;3.20999999189553;322;1 A
3.76723199048865;-0.39971923828125;-0.00519714355468751;3.21999999187028;323;1 A
3.77723199046341;-0.3997802734375;-0.00521240234375001;3.22999999184503;324;1 A
3.78723199043816;-0.39984130859375;-0.00521240234375001;3.23999999181979;325;1 A
3.79723199041291;-0.399688720703125;-0.00522766113281251;3.24999999179454;326;1 A
3.80723199038766;-0.399688720703125;-0.005230712890625;3.25999999176929;327;1 A
3.81723199036242;-0.39971923828125;-0.00522766113281251;3.26999999174404;328;1 A
3.82723199033717;-0.399749755859375;-0.005230712890625;3.2799999917188;329;1 A
3.83723199031192;-0.399749755859375;-0.00522460937499999;3.28999999169355;330;1 A
3.84723199028667;-0.399810791015625;-0.00522460937499999;3.2999999916683;331;1 A
3.85723199026143;-0.399749755859375;-0.00522766113281251;3.30999999164305;332;1 A
3.86723199023618;-0.399749755859375;-0.005230712890625;3.31999999161781;333;1 A
3.87723199021093;-0.399658203125;-0.00524291992187501;3.32999999159256;334;1 A
3.88723199018568;-0.399749755859375;-0.00523681640625;3.33999999156731;335;1 A
3.89723199016044;-0.3997802734375;-0.00524291992187501;3.34999999154206;336;1 A
3.90723199013519;-0.3997802734375;-0.0052459716796875;3.35999999151682;337;1 A
3.91723199010994;-0.399810791015625;-0.0052490234375;3.36999999149157;338;1 A
3.92723199008469;-0.3997802734375;-0.00525512695312499;3.37999999146632;339;1 A
3.93723199005944;-0.399688720703125;-0.0052490234375;3.38999999144107;340;1 A
3.9472319900342;-0.399749755859375;-0.0052520751953125;3.39999999141583;341;1 A
3.95723199000895;-0.3997802734375;-0.00525512695312499;3.40999999139058;342;1 A
3.9672319899837;-0.39971923828125;-0.00525817871093751;3.41999999136533;343;1 A
3.97723198995845;-0.399810791015625;-0.00526123046875;3.42999999134008;344;1 A
3.98723198993321;-0.39971923828125;-0.00526123046875;3.43999999131483;345;1 A
3.99723198990796;-0.39971923828125;-0.00527343750000001;3.44999999128959;346;1 A
4.00723198988271;-0.399749755859375;-0.00527038574218749;3.45999999126434;347;1 A
4.01723198985746;-0.399688720703125;-0.00527038574218749;3.46999999123909;348;1 A
4.02723198983222;-0.399810791015625;-0.005279541015625;3.47999999121384;349;1 A
4.03723198980697;-0.3997802734375;-0.0052764892578125;3.4899999911886;350;1 A
4.04723198978172;-0.3997802734375;-0.0052764892578125;3.49999999116335;351;1 A
4.05723198975647;-0.39971923828125;-0.0052764892578125;3.5099999911381;352;1 A
4.06723198973123;-0.39971923828125;-0.00527343750000001;3.51999999111285;353;1 A
4.07723198970598;-0.39971923828125;-0.0052764892578125;3.52999999108761;354;1 A
4.08723198968073;-0.39971923828125;-0.0052642822265625;3.53999999106236;355;1 A
4.09723198965548;-0.39971923828125;-0.00526123046875;3.54999999103711;356;1 A
4.10723198963024;-0.399749755859375;-0.00526123046875;3.55999999101186;357;1 A
4.11723198960499;-0.399688720703125;-0.00525512695312499;3.56999999098662;358;1 A
4.12723198957974;-0.399749755859375;-0.0052490234375;3.57999999096137;359;1 A
4.13723198955449;-0.399749755859375;-0.00523681640625;3.58999999093612;360;1 A
4.14723198952925;-0.3997802734375;-0.0052337646484375;3.59999999091087;361;1 A
4.157231989504;-0.3997802734375;-0.0052337646484375;3.60999999088563;362;1 A
4.16723198947875;-0.399810791015625;-0.0052215576171875;3.61999999086038;363;1 A
4.1772319894535;-0.399749755859375;-0.00522460937499999;3.62999999083513;364;1 A
4.18723198942826;-0.3997802734375;-0.00522460937499999;3.63999999080988;365;1 A
4.19723198940301;-0.39971923828125;-0.005230712890625;3.64999999078464;366;1 A
4.20723198937776;-0.399749755859375;-0.00522766113281251;3.65999999075939;367;1 A
4.21723198935251;-0.3997802734375;-0.00522766113281251;3.66999999073414;368;1 A
4.22723198932727;-0.3997802734375;-0.00523681640625;3.67999999070889;369;1 A
4.23723198930202;-0.3997802734375;-0.0052337646484375;3.68999999068365;370;1 A
4.24723198927677;-0.399749755859375;-0.00523681640625;3.6999999906584;371;1 A
4.25723198925152;-0.399749755859375;-0.00523986816406249;3.70999999063315;372;1 A
4.26723198922627;-0.399749755859375;-0.00523681640625;3.7199999906079;373;1 A
4.27723198920103;-0.3997802734375;-0.00524291992187501;3.72999999058266;374;1 A
4.28723198917578;-0.399749755859375;-0.00523986816406249;3.73999999055741;375;1 A
4.29723198915053;-0.3997802734375;-0.00523681640625;3.74999999053216;376;1 A
4.30723198912528;-0.39971923828125;-0.00524291992187501;3.75999999050691;377;1 A
4.31723198910004;-0.39971923828125;-0.00524291992187501;3.76999999048167;378;1 A
4.32723198907479;-0.39971923828125;-0.00525512695312499;3.77999999045642;379;1 A
4.33723198904954;-0.399749755859375;-0.0052520751953125;3.78999999043117;380;1 A
4.34723198902429;-0.3997802734375;-0.0052642822265625;3.79999999040592;381;1 A
4.35723198899905;-0.399749755859375;-0.00527038574218749;3.80999999038067;382;1 A
4.3672319889738;-0.399810791015625;-0.00527038574218749;3.81999999035543;383;1 A
4.37723198894855;-0.399688720703125;-0.00528564453124999;3.82999999033018;384;1 A
4.3872319889233;-0.399688720703125;-0.00528564453124999;3.83999999030493;385;1 A
4.39723198889806;-0.3997802734375;-0.00530090332031249;3.84999999027968;386;1 A
4.40723198887281;-0.399749755859375;-0.00530090332031249;3.85999999025444;387;1 A
4.41723198884756;-0.399749755859375;-0.00531005859375;3.86999999022919;388;1 A
4.42723198882231;-0.399749755859375;-0.00531616210937499;3.87999999020394;389;1 A
4.43723198879707;-0.39984130859375;-0.005322265625;3.88999999017869;390;1 A
4.44723198877182;-0.3997802734375;-0.0053253173828125;3.89999999015345;391;1 A
4.45723198874657;-0.399749755859375;-0.0053375244140625;3.9099999901282;392;1 A
4.46723198872132;-0.399749755859375;-0.0053436279296875;3.91999999010295;393;1 A
4.47723198869608;-0.3997802734375;-0.0053558349609375;3.9299999900777;394;1 A
4.48723198867083;-0.39971923828125;-0.0053558349609375;3.93999999005246;395;1 A
4.49723198864558;-0.3997802734375;-0.0053680419921875;3.94999999002721;396;1 A
4.50723198862033;-0.39971923828125;-0.00537719726562499;3.95999999000196;397;1 A
4.51723198859509;-0.3997802734375;-0.00538330078125;3.96999998997671;398;1 A
4.52723198856984;-0.399749755859375;-0.00539245605468749;3.97999998995147;399;1 A
4.53723198854459;-0.399749755859375;-0.005389404296875;3.98999998992622;400;1 A
4.54723198851934;-0.399749755859375;-0.0054046630859375;3.99999998990097;401;1 A
4.5572319884941;-0.399810791015625;-0.005413818359375;4.00999998987572;402;1 A
4.56723198846885;-0.3997802734375;-0.0054168701171875;4.01999998985048;403;1 A
4.5772319884436;-0.39971923828125;-0.0054351806640625;4.02999998982523;404;1 A
4.58723198841835;-0.399749755859375;-0.00543823242187499;4.03999998979998;405;1 A
4.5972319883931;-0.399749755859375;-0.0054443359375;4.04999998977473;406;1 A
4.60723198836786;-0.39971923828125;-0.005450439453125;4.05999998974949;407;1 A
4.61723198834261;-0.3997802734375;-0.0054473876953125;4.06999998972424;408;1 A
4.62723198831736;-0.39971923828125;-0.005462646484375;4.07999998969899;409;1 A
4.63723198829211;-0.3997802734375;-0.0054656982421875;4.08999998967374;410;1 A
4.64723198826687;-0.399810791015625;-0.00547180175781251;4.0999999896485;411;1 A
4.65723198824162;-0.399688720703125;-0.00548095703125;4.10999998962325;412;1 A
4.66723198821637;-0.3997802734375;-0.00548400878906249;4.119999989598;413;1 A
4.67723198819112;-0.399749755859375;-0.0054931640625;4.12999998957275;414;1 A
4.68723198816588;-0.3997802734375;-0.0054962158203125;4.1399999895475;415;1 A
4.69723198814063;-0.39971923828125;-0.0054931640625;4.14999998952226;416;1 A
4.70723198811538;-0.39971923828125;-0.00550231933593751;4.15999998949701;417;1 A
4.71723198809013;-0.399749755859375;-0.00550231933593751;4.16999998947176;418;1 A
4.72723198806489;-0.39971923828125;-0.00550231933593751;4.17999998944651;419;1 A
4.73723198803964;-0.399749755859375;-0.00550537109375;4.18999998942127;420;1 A
4.74723198801439;-0.3997802734375;-0.00550231933593751;4.19999998939602;421;1 A
4.75723198798914;-0.39971923828125;-0.00549926757812499;4.20999998937077;422;1 A
4.7672319879639;-0.39971923828125;-0.0054931640625;4.21999998934552;423;1 A
4.77723198793865;-0.399688720703125;-0.00548400878906249;4.22999998932028;424;1 A
4.7872319879134;-0.399749755859375;-0.00546874999999999;4.23999998929503;425;1 A
4.79723198788815;-0.39971923828125;-0.0054656982421875;4.24999998926978;426;1 A
4.80723198786291;-0.399810791015625;-0.0054595947265625;4.25999998924453;427;1 A
4.81723198783766;-0.3997802734375;-0.005450439453125;4.26999998921929;428;1 A
4.82723198781241;-0.399688720703125;-0.005450439453125;4.27999998919404;429;1 A
4.83723198778716;-0.399749755859375;-0.00543823242187499;4.28999998916879;430;1 A
4.84723198776192;-0.39984130859375;-0.00543823242187499;4.29999998914354;431;1 A
4.85723198773667;-0.399688720703125;-0.0054290771484375;4.3099999891183;432;1 A
4.86723198771142;-0.399749755859375;-0.00542602539062501;4.31999998909305;433;1 A
4.87723198768617;-0.399749755859375;-0.0054290771484375;4.3299999890678;434;1 A
4.88723198766093;-0.399749755859375;-0.0054168701171875;4.33999998904255;435;1 A
4.89723198763568;-0.399749755859375;-0.0054168701171875;4.34999998901731;436;1 A
4.90723198761043;-0.39971923828125;-0.0054168701171875;4.35999998899206;437;1 A
4.91723198758518;-0.399688720703125;-0.00540771484374999;4.36999998896681;438;1 A
4.92723198755994;-0.399749755859375;-0.005413818359375;4.37999998894156;439;1 A
4.93723198753469;-0.399810791015625;-0.0053985595703125;4.38999998891632;440;1 A
4.94723198750944;-0.399658203125;-0.0053985595703125;4.39999998889107;441;1 A
4.95723198748419;-0.399810791015625;-0.00539550781250001;4.40999998886582;442;1 A
4.96723198745894;-0.39971923828125;-0.005389404296875;4.41999998884057;443;1 A
4.9772319874337;-0.3997802734375;-0.0053863525390625;4.42999998881533;444;1 A
4.98723198740845;-0.3997802734375;-0.0053741455078125;4.43999998879008;445;1 A
4.9972319873832;-0.399749755859375;-0.00537719726562499;4.44999998876483;446;1 A
5.00723198735795;-0.39984130859375;-0.0053741455078125;4.45999998873958;447;1 A
5.01723198733271;-0.399688720703125;-0.0053680419921875;4.46999998871433;448;1 A
5.02723198730746;-0.399810791015625;-0.0053741455078125;4.47999998868909;449;1 A
5.03723198728221;-0.399749755859375;-0.0053741455078125;4.48999998866384;450;1 A
5.04723198725696;-0.39971923828125;-0.00537109375;4.49999998863859;451;1 A
5.05723198723172;-0.39971923828125;-0.0053680419921875;4.50999998861334;452;1 A
5.06723198720647;-0.399749755859375;-0.00536499023437501;4.5199999885881;453;1 A
5.07723198718122;-0.399749755859375;-0.0053741455078125;4.52999998856285;454;1 A
5.08723198715597;-0.399688720703125;-0.00536499023437501;4.5399999885376;455;1 A
5.09723198713073;-0.3997802734375;-0.00536499023437501;4.54999998851235;456;1 A
5.10723198710548;-0.39971923828125;-0.00537109375;4.55999998848711;457;1 A
5.11723198708023;-0.3997802734375;-0.00537109375;4.56999998846186;458;1 A
5.12723198705498;-0.399749755859375;-0.00537109375;4.57999998843661;459;1 A
5.13723198702974;-0.399749755859375;-0.0053680419921875;4.58999998841136;460;1 A
5.14723198700449;-0.39971923828125;-0.0053680419921875;4.59999998838612;461;1 A
5.15723198697924;-0.3997802734375;-0.0053680419921875;4.60999998836087;462;1 A
5.16723198695399;-0.399749755859375;-0.00536499023437501;4.61999998833562;463;1 A
5.17723198692875;-0.3997802734375;-0.0053680419921875;4.62999998831037;464;1 A
5.1872319869035;-0.399749755859375;-0.00536499023437501;4.63999998828513;465;1 A
5.19723198687825;-0.399749755859375;-0.0053741455078125;4.64999998825988;466;1 A
5.207231986853;-0.399810791015625;-0.0053741455078125;4.65999998823463;467;1 A
5.21723198682776;-0.39971923828125;-0.00537719726562499;4.66999998820938;468;1 A
5.22723198680251;-0.39971923828125;-0.00538330078125;4.67999998818414;469;1 A
5.23723198677726;-0.39971923828125;-0.00538330078125;4.68999998815889;470;1 A
5.24723198675201;-0.399749755859375;-0.00538024902343751;4.69999998813364;471;1 A
5.25723198672677;-0.399749755859375;-0.00538024902343751;4.70999998810839;472;1 A
5.26723198670152;-0.399749755859375;-0.0053680419921875;4.71999998808315;473;1 A
5.27723198667627;-0.399749755859375;-0.00536499023437501;4.7299999880579;474;1 A
5.28723198665102;-0.399749755859375;-0.00534973144531251;4.73999998803265;475;1 A
5.29723198662577;-0.399749755859375;-0.005352783203125;4.7499999880074;476;1 A
5.30723198660053;-0.399749755859375;-0.00534667968749999;4.75999998798216;477;1 A
5.31723198657528;-0.399688720703125;-0.00534667968749999;4.76999998795691;478;1 A
5.32723198655003;-0.39971923828125;-0.00534973144531251;4.77999998793166;479;1 A
5.33723198652478;-0.39971923828125;-0.0053375244140625;4.78999998790641;480;1 A
5.34723198649954;-0.399688720703125;-0.0053375244140625;4.79999998788116;481;1 A
5.35723198647429;-0.39984130859375;-0.00533447265625001;4.80999998785592;482;1 A
5.36723198644904;-0.399749755859375;-0.00533142089843749;4.81999998783067;483;1 A
5.37723198642379;-0.399810791015625;-0.005328369140625;4.82999998780542;484;1 A
5.38723198639855;-0.3997802734375;-0.005322265625;4.83999998778017;485;1 A
5.3972319863733;-0.3997802734375;-0.005328369140625;4.84999998775493;486;1 A
5.40723198634805;-0.399749755859375;-0.00533447265625001;4.85999998772968;487;1 A
5.4172319863228;-0.39971923828125;-0.005328369140625;4.86999998770443;488;1 A
5.42723198629756;-0.39971923828125;-0.00533142089843749;4.87999998767918;489;1 A
5.43723198627231;-0.39971923828125;-0.005322265625;4.88999998765394;490;1 A
5.44723198624706;-0.399749755859375;-0.0053131103515625;4.89999998762869;491;1 A
5.45723198622181;-0.399810791015625;-0.00531921386718751;4.90999998760344;492;1 A
5.46723198619657;-0.399749755859375;-0.00531921386718751;4.91999998757819;493;1 A
5.47723198617132;-0.39971923828125;-0.005322265625;4.92999998755295;494;1 A
5.48723198614607;-0.399749755859375;-0.005322265625;4.9399999875277;495;1 A
5.49723198612082;-0.3997802734375;-0.0053253173828125;4.94999998750245;496;1 A
5.50723198609558;-0.399810791015625;-0.00533142089843749;4.9599999874772;497;1 A
5.51723198607033;-0.399749755859375;-0.00533447265625001;4.96999998745196;498;1 A
5.52723198604508;-0.399749755859375;-0.0053375244140625;4.97999998742671;499;1 A
5.53723198601983;-0.399688720703125;-0.00533447265625001;4.98999998740146;500;1 A
5.54723198599459;-0.399749755859375;-0.00534667968749999;4.99999998737621;501;1 A
5.55723198596934;-0.399749755859375;-0.005352783203125;5.00999998735097;502;1 A
5.56723198594409;-0.39971923828125;-0.005352783203125;5.01999998732572;503;1 A
5.57723198591884;-0.3997802734375;-0.00536499023437501;5.02999998730047;504;1 A
5.5872319858936;-0.3997802734375;-0.00536499023437501;5.03999998727522;505;1 A
5.59723198586835;-0.39971923828125;-0.0053741455078125;5.04999998724998;506;1 A
5.6072319858431;-0.39971923828125;-0.0053741455078125;5.05999998722473;507;1 A
5.61723198581785;-0.399749755859375;-0.00537719726562499;5.06999998719948;508;1 A
5.6272319857926;-0.399749755859375;-0.0053863525390625;5.07999998717423;509;1 A
5.63723198576736;-0.3997802734375;-0.00538024902343751;5.08999998714899;510;1 A
5.64723198574211;-0.399749755859375;-0.0053863525390625;5.09999998712374;511;1 A
5.65723198571686;-0.399688720703125;-0.005389404296875;5.10999998709849;512;1 A
5.66723198569161;-0.399749755859375;-0.00538330078125;5.11999998707324;513;1 A
5.67723198566637;-0.399749755859375;-0.005389404296875;5.129999987048;514;1 A
5.68723198564112;-0.399749755859375;-0.00537109375;5.13999998702275;515;1 A
5.69723198561587;-0.3997802734375;-0.0053680419921875;5.1499999869975;516;1 A
5.70723198559062;-0.3997802734375;-0.00536499023437501;5.15999998697225;517;1 A
5.71723198556538;-0.3997802734375;-0.00535888671875;5.169999986947;518;1 A
5.72723198554013;-0.399749755859375;-0.00535888671875;5.17999998692176;519;1 A
5.73723198551488;-0.399749755859375;-0.005352783203125;5.18999998689651;520;1 A
5.74723198548963;-0.3997802734375;-0.0053558349609375;5.19999998687126;521;1 A
5.75723198546439;-0.399688720703125;-0.005352783203125;5.20999998684601;522;1 A
5.76723198543914;-0.399810791015625;-0.00534667968749999;5.21999998682077;523;1 A
5.77723198541389;-0.39971923828125;-0.005352783203125;5.22999998679552;524;1 A
5.78723198538864;-0.399688720703125;-0.0053436279296875;5.23999998677027;525;1 A
5.7972319853634;-0.399749755859375;-0.00534667968749999;5.24999998674502;526;1 A
5.80723198533815;-0.3997802734375;-0.0053436279296875;5.25999998671978;527;1 A
5.8172319853129;-0.39971923828125;-0.00533142089843749;5.26999998669453;528;1 A
5.82723198528765;-0.3997802734375;-0.005328369140625;5.27999998666928;529;1 A
5.83723198526241;-0.39971923828125;-0.00531921386718751;5.28999998664403;530;1 A
5.84723198523716;-0.3997802734375;-0.00531005859375;5.29999998661879;531;1 A
5.85723198521191;-0.399688720703125;-0.0053070068359375;5.30999998659354;532;1 A
5.86723198518666;-0.3997802734375;-0.0052947998046875;5.31999998656829;533;1 A
5.87723198516142;-0.3997802734375;-0.00528564453124999;5.32999998654304;534;1 A
5.88723198513617;-0.3997802734375;-0.00527038574218749;5.3399999865178;535;1 A
5.89723198511092;-0.3997802734375;-0.0052642822265625;5.34999998649255;536;1 A
5.90723198508567;-0.399749755859375;-0.00525817871093751;5.3599999864673;537;1 A
5.91723198506043;-0.3997802734375;-0.0052490234375;5.36999998644205;538;1 A
5.92723198503518;-0.3997802734375;-0.0052459716796875;5.37999998641681;539;1 A
5.93723198500993;-0.399749755859375;-0.00523986816406249;5.38999998639156;540;1 A
5.94723198498468;-0.399749755859375;-0.0052490234375;5.39999998636631;541;1 A
5.95723198495944;-0.39971923828125;-0.0052520751953125;5.40999998634106;542;1 A
5.96723198493419;-0.399810791015625;-0.00525512695312499;5.41999998631582;543;1 A
5.97723198490894;-0.39971923828125;-0.00525512695312499;5.42999998629057;544;1 A
5.98723198488369;-0.399749755859375;-0.0052490234375;5.43999998626532;545;1 A
5.99723198485844;-0.399749755859375;-0.0052520751953125;5.44999998624007;546;1 A
6.0072319848332;-0.3997802734375;-0.0052459716796875;5.45999998621483;547;1 A
6.01723198480795;-0.399810791015625;-0.00523681640625;5.46999998618958;548;1 A
6.0272319847827;-0.39971923828125;-0.0052337646484375;5.47999998616433;549;1 A
6.03723198475745;-0.399810791015625;-0.0052154541015625;5.48999998613908;550;1 A
6.04723198473221;-0.399749755859375;-0.0052032470703125;5.49999998611383;551;1 A
6.05723198470696;-0.39971923828125;-0.00519409179687499;5.50999998608859;552;1 A
6.06723198468171;-0.399749755859375;-0.00517578125;5.51999998606334;553;1 A
6.07723198465646;-0.399749755859375;-0.005169677734375;5.52999998603809;554;1 A
6.08723198463122;-0.3997802734375;-0.00514831542968749;5.53999998601284;555;1 A
6.09723198460597;-0.399749755859375;-0.00514831542968749;5.5499999859876;556;1 A
6.10723198458072;-0.399749755859375;-0.005145263671875;5.55999998596235;557;1 A
6.11723198455547;-0.399749755859375;-0.00513916015625;5.5699999859371;558;1 A
6.12723198453023;-0.399688720703125;-0.00513916015625;5.57999998591185;559;1 A
6.13723198450498;-0.39971923828125;-0.0051300048828125;5.58999998588661;560;1 A
6.14723198447973;-0.3997802734375;-0.00513305664062499;5.59999998586136;561;1 A
6.15723198445448;-0.39971923828125;-0.0051300048828125;5.60999998583611;562;1 A
6.16723198442924;-0.399749755859375;-0.00512084960937501;5.61999998581086;563;1 A
6.17723198440399;-0.399688720703125;-0.00512084960937501;5.62999998578562;564;1 A
6.18723198437874;-0.39971923828125;-0.00510559082031251;5.63999998576037;565;1 A
6.19723198435349;-0.399749755859375;-0.0051116943359375;5.64999998573512;566;1 A
6.20723198432825;-0.399749755859375;-0.005108642578125;5.65999998570987;567;1 A
6.217231984303;-0.399749755859375;-0.0050994873046875;5.66999998568463;568;1 A
6.22723198427775;-0.3997802734375;-0.005096435546875;5.67999998565938;569;1 A
6.2372319842525;-0.39971923828125;-0.00508728027343749;5.68999998563413;570;1 A
6.24723198422726;-0.399658203125;-0.005084228515625;5.69999998560888;571;1 A
6.25723198420201;-0.399749755859375;-0.00508728027343749;5.70999998558364;572;1 A
6.26723198417676;-0.39971923828125;-0.00508728027343749;5.71999998555839;573;1 A
6.27723198415151;-0.3997802734375;-0.005096435546875;5.72999998553314;574;1 A
6.28723198412627;-0.399810791015625;-0.0050994873046875;5.73999998550789;575;1 A
6.29723198410102;-0.39971923828125;-0.005108642578125;5.74999998548265;576;1 A
6.30723198407577;-0.39971923828125;-0.00511779785156249;5.7599999854574;577;1 A
6.31723198405052;-0.39971923828125;-0.0051300048828125;5.76999998543215;578;1 A
6.32723198402527;-0.39971923828125;-0.00513305664062499;5.7799999854069;579;1 A
6.33723198400003;-0.39971923828125;-0.00513610839843751;5.78999998538166;580;1 A
6.34723198397478;-0.399688720703125;-0.005145263671875;5.79999998535641;581;1 A
6.35723198394953;-0.399749755859375;-0.00514831542968749;5.80999998533116;582;1 A
6.36723198392428;-0.399749755859375;-0.00513916015625;5.81999998530591;583;1 A
6.37723198389904;-0.399688720703125;-0.00513610839843751;5.82999998528066;584;1 A
6.38723198387379;-0.399749755859375;-0.0051239013671875;5.83999998525542;585;1 A
6.39723198384854;-0.3997802734375;-0.00512084960937501;5.84999998523017;586;1 A
6.40723198382329;-0.3997802734375;-0.00510559082031251;5.85999998520492;587;1 A
6.41723198379805;-0.3997802734375;-0.005096435546875;5.86999998517967;588;1 A
6.4272319837728;-0.399688720703125;-0.00509033203125001;5.87999998515443;589;1 A
6.43723198374755;-0.399749755859375;-0.0050811767578125;5.88999998512918;590;1 A
6.4472319837223;-0.399749755859375;-0.005084228515625;5.89999998510393;591;1 A
6.45723198369706;-0.399749755859375;-0.00509033203125001;5.90999998507868;592;1 A
6.46723198367181;-0.3997802734375;-0.00508728027343749;5.91999998505344;593;1 A
6.47723198364656;-0.399688720703125;-0.00510559082031251;5.92999998502819;594;1 A
6.48723198362131;-0.39971923828125;-0.00510253906249999;5.93999998500294;595;1 A
6.49723198359607;-0.399749755859375;-0.00511779785156249;5.94999998497769;596;1 A
6.50723198357082;-0.399749755859375;-0.0051300048828125;5.95999998495245;597;1 A
6.51723198354557;-0.399688720703125;-0.00513305664062499;5.9699999849272;598;1 A
6.52723198352032;-0.3997802734375;-0.0051422119140625;5.97999998490195;599;1 A
6.53723198349508;-0.3997802734375;-0.00513305664062499;5.9899999848767;600;1 A
6.54723198346983;-0.3997802734375;-0.00513610839843751;5.99999998485146;601;1 A
6.55723198344458;-0.39971923828125;-0.00513610839843751;6.00999998482621;602;1 A
6.56723198341933;-0.3997802734375;-0.0051300048828125;6.01999998480096;603;1 A
6.57723198339409;-0.399749755859375;-0.0051300048828125;6.02999998477571;604;1 A
6.58723198336884;-0.399749755859375;-0.0051300048828125;6.03999998475047;605;1 A
6.59723198334359;-0.399749755859375;-0.00513916015625;6.04999998472522;606;1 A
6.60723198331834;-0.39971923828125;-0.00514831542968749;6.05999998469997;607;1 A
6.6172319832931;-0.399749755859375;-0.00515136718750001;6.06999998467472;608;1 A
6.62723198326785;-0.399688720703125;-0.00516357421874999;6.07999998464948;609;1 A
6.6372319832426;-0.399749755859375;-0.00516662597656251;6.08999998462423;610;1 A
6.64723198321735;-0.399749755859375;-0.00518188476562501;6.09999998459898;611;1 A
6.6572319831921;-0.39971923828125;-0.00519714355468751;6.10999998457373;612;1 A
6.66723198316686;-0.3997802734375;-0.0052032470703125;6.11999998454849;613;1 A
6.67723198314161;-0.39971923828125;-0.0052154541015625;6.12999998452324;614;1 A
6.68723198311636;-0.399749755859375;-0.0052154541015625;6.13999998449799;615;1 A
6.69723198309111;-0.399749755859375;-0.005218505859375;6.14999998447274;616;1 A
6.70723198306587;-0.399810791015625;-0.00522460937499999;6.1599999844475;617;1 A
6.71723198304062;-0.3997802734375;-0.0052215576171875;6.16999998442225;618;1 A
6.72723198301537;-0.399749755859375;-0.0052215576171875;6.179999984397;619;1 A
6.73723198299012;-0.399688720703125;-0.0052154541015625;6.18999998437175;620;1 A
6.74723198296488;-0.399688720703125;-0.005218505859375;6.1999999843465;621;1 A
6.75723198293963;-0.39971923828125;-0.00522460937499999;6.20999998432126;622;1 A
6.76723198291438;-0.399688720703125;-0.005218505859375;6.21999998429601;623;1 A
6.77723198288913;-0.3997802734375;-0.0052215576171875;6.22999998427076;624;1 A
6.78723198286389;-0.399749755859375;-0.0052215576171875;6.23999998424551;625;1 A
6.79723198283864;-0.3997802734375;-0.00522766113281251;6.24999998422027;626;1 A
6.80723198281339;-0.399749755859375;-0.00523681640625;6.25999998419502;627;1 A
6.81723198278814;-0.39971923828125;-0.00523986816406249;6.26999998416977;628;1 A
6.8272319827629;-0.399749755859375;-0.0052459716796875;6.27999998414452;629;1 A
6.83723198273765;-0.3997802734375;-0.00523681640625;6.28999998411928;630;1 A
6.8472319827124;-0.399749755859375;-0.00523986816406249;6.29999998409403;631;1 A
6.85723198268715;-0.399749755859375;-0.0052459716796875;6.30999998406878;632;1 A
6.86723198266191;-0.39971923828125;-0.00523986816406249;6.31999998404353;633;1 A
6.87723198263666;-0.399688720703125;-0.00523986816406249;6.32999998401829;634;1 A
6.88723198261141;-0.399688720703125;-0.0052337646484375;6.33999998399304;635;1 A
6.89723198258616;-0.399749755859375;-0.0052337646484375;6.34999998396779;636;1 A
6.90723198256092;-0.39971923828125;-0.005230712890625;6.35999998394254;637;1 A
6.91723198253567;-0.39984130859375;-0.00522766113281251;6.3699999839173;638;1 A
6.92723198251042;-0.399688720703125;-0.00523681640625;6.37999998389205;639;1 A
6.93723198248517;-0.399688720703125;-0.005230712890625;6.3899999838668;640;1 A
6.94723198245993;-0.3997802734375;-0.00523681640625;6.39999998384155;641;1 A
6.95723198243468;-0.3997802734375;-0.00524291992187501;6.40999998381631;642;1 A
6.96723198240943;-0.3997802734375;-0.00523986816406249;6.41999998379106;643;1 A
6.97723198238418;-0.3997802734375;-0.00523986816406249;6.42999998376581;644;1 A
6.98723198235894;-0.39971923828125;-0.0052337646484375;6.43999998374056;645;1 A
6.99723198233369;-0.3997802734375;-0.00523986816406249;6.44999998371532;646;1 A
7.00723198230844;-0.399749755859375;-0.0052459716796875;6.45999998369007;647;1 A
7.01723198228319;-0.399749755859375;-0.00523986816406249;6.46999998366482;648;1 A
7.02723198225794;-0.399810791015625;-0.00524291992187501;6.47999998363957;649;1 A
7.0372319822327;-0.399688720703125;-0.00524291992187501;6.48999998361433;650;1 A
7.04723198220745;-0.399749755859375;-0.0052459716796875;6.49999998358908;651;1 A
7.0572319821822;-0.3997802734375;-0.0052520751953125;6.50999998356383;652;1 A
7.06723198215695;-0.3997802734375;-0.0052490234375;6.51999998353858;653;1 A
7.07723198213171;-0.399688720703125;-0.00525512695312499;6.52999998351333;654;1 A
7.08723198210646;-0.399688720703125;-0.00525817871093751;6.53999998348809;655;1 A
7.09723198208121;-0.39971923828125;-0.0052642822265625;6.54999998346284;656;1 A
7.10723198205596;-0.39971923828125;-0.00527343750000001;6.55999998343759;657;1 A
7.11723198203072;-0.3997802734375;-0.0052825927734375;6.56999998341234;658;1 A
7.12723198200547;-0.399749755859375;-0.00528564453124999;6.5799999833871;659;1 A
7.13723198198022;-0.399688720703125;-0.00528869628906251;6.58999998336185;660;1 A
7.14723198195497;-0.3997802734375;-0.0052947998046875;6.5999999833366;661;1 A
7.15723198192973;-0.399749755859375;-0.0052978515625;6.60999998331135;662;1 A
7.16723198190448;-0.3997802734375;-0.00530090332031249;6.61999998328611;663;1 A
7.17723198187923;-0.399749755859375;-0.00530395507812501;6.62999998326086;664;1 A
7.18723198185398;-0.399658203125;-0.00530395507812501;6.63999998323561;665;1 A
7.19723198182874;-0.3997802734375;-0.0053070068359375;6.64999998321036;666;1 A
7.20723198180349;-0.399688720703125;-0.0053131103515625;6.65999998318512;667;1 A
7.21723198177824;-0.399749755859375;-0.0053131103515625;6.66999998315987;668;1 A
7.22723198175299;-0.399749755859375;-0.00531921386718751;6.67999998313462;669;1 A
7.23723198172775;-0.399749755859375;-0.00531005859375;6.68999998310937;670;1 A
7.2472319817025;-0.39971923828125;-0.00531616210937499;6.69999998308413;671;1 A
7.25723198167725;-0.3997802734375;-0.0053131103515625;6.70999998305888;672;1 A
7.267231981652;-0.399749755859375;-0.00531005859375;6.71999998303363;673;1 A
7.27723198162676;-0.39971923828125;-0.0053131103515625;6.72999998300838;674;1 A
7.28723198160151;-0.3997802734375;-0.00530090332031249;6.73999998298314;675;1 A
7.29723198157626;-0.399749755859375;-0.00530090332031249;6.74999998295789;676;1 A
7.30723198155101;-0.39971923828125;-0.00530090332031249;6.75999998293264;677;1 A
7.31723198152577;-0.3997802734375;-0.005291748046875;6.76999998290739;678;1 A
7.32723198150052;-0.399749755859375;-0.00530090332031249;6.77999998288215;679;1 A
7.33723198147527;-0.3997802734375;-0.0052825927734375;6.7899999828569;680;1 A
7.34723198145002;-0.399810791015625;-0.00528869628906251;6.79999998283165;681;1 A
7.35723198142477;-0.399810791015625;-0.00528869628906251;6.8099999828064;682;1 A
7.36723198139953;-0.3997802734375;-0.005279541015625;6.81999998278116;683;1 A
7.37723198137428;-0.399749755859375;-0.0052825927734375;6.82999998275591;684;1 A
7.38723198134903;-0.3997802734375;-0.00527038574218749;6.83999998273066;685;1 A
7.39723198132378;-0.399749755859375;-0.00527038574218749;6.84999998270541;686;1 A
7.40723198129854;-0.3997802734375;-0.00527038574218749;6.85999998268016;687;1 A
7.41723198127329;-0.399810791015625;-0.0052642822265625;6.86999998265492;688;1 A
7.42723198124804;-0.39971923828125;-0.00525512695312499;6.87999998262967;689;1 A
7.43723198122279;-0.399749755859375;-0.0052490234375;6.88999998260442;690;1 A
7.44723198119755;-0.39971923828125;-0.00524291992187501;6.89999998257917;691;1 A
7.4572319811723;-0.399810791015625;-0.00524291992187501;6.90999998255393;692;1 A
7.46723198114705;-0.399749755859375;-0.00523681640625;6.91999998252868;693;1 A
7.4772319811218;-0.399688720703125;-0.00523681640625;6.92999998250343;694;1 A
7.48723198109656;-0.3997802734375;-0.00522766113281251;6.93999998247818;695;1 A
7.49723198107131;-0.39971923828125;-0.00522460937499999;6.94999998245294;696;1 A
7.50723198104606;-0.399688720703125;-0.00522460937499999;6.95999998242769;697;1 A
7.51723198102081;-0.399749755859375;-0.00522460937499999;6.96999998240244;698;1 A
7.52723198099557;-0.39971923828125;-0.00522766113281251;6.97999998237719;699;1 A
7.53723198097032;-0.3997802734375;-0.005218505859375;6.98999998235195;700;1 A
7.54723198094507;-0.399749755859375;-0.0052154541015625;6.9999999823267;701;1 A
7.55723198091982;-0.399658203125;-0.00520935058593749;7.00999998230145;702;1 A
7.56723198089458;-0.399749755859375;-0.0052032470703125;7.0199999822762;703;1 A
7.57723198086933;-0.399749755859375;-0.00519714355468751;7.02999998225096;704;1 A
7.58723198084408;-0.39971923828125;-0.00518798828125;7.03999998222571;705;1 A
7.59723198081883;-0.3997802734375;-0.0051849365234375;7.04999998220046;706;1 A
7.60723198079359;-0.39971923828125;-0.00518188476562501;7.05999998217521;707;1 A
7.61723198076834;-0.399810791015625;-0.005169677734375;7.06999998214997;708;1 A
7.62723198074309;-0.399658203125;-0.00516662597656251;7.07999998212472;709;1 A
7.63723198071784;-0.399658203125;-0.00516357421874999;7.08999998209947;710;1 A
7.6472319806926;-0.399688720703125;-0.0051727294921875;7.09999998207422;711;1 A
7.65723198066735;-0.39971923828125;-0.00517578125;7.10999998204898;712;1 A
7.6672319806421;-0.3997802734375;-0.00518188476562501;7.11999998202373;713;1 A
7.67723198061685;-0.39971923828125;-0.00519714355468751;7.12999998199848;714;1 A
7.6872319805916;-0.399749755859375;-0.00519714355468751;7.13999998197323;715;1 A
7.69723198056636;-0.399749755859375;-0.00520935058593749;7.14999998194799;716;1 A
7.70723198054111;-0.399810791015625;-0.005218505859375;7.15999998192274;717;1 A
7.71723198051586;-0.399749755859375;-0.0052154541015625;7.16999998189749;718;1 A
7.72723198049061;-0.3997802734375;-0.0052215576171875;7.17999998187224;719;1 A
7.73723198046537;-0.39984130859375;-0.00520935058593749;7.189999981847;720;1 A
7.74723198044012;-0.399749755859375;-0.00520935058593749;7.19999998182175;721;1 A
7.75723198041487;-0.3997802734375;-0.00520935058593749;7.2099999817965;722;1 A
7.76723198038962;-0.39971923828125;-0.00519409179687499;7.21999998177125;723;1 A
7.77723198036438;-0.3997802734375;-0.00519409179687499;7.229999981746;724;1 A
7.78723198033913;-0.3997802734375;-0.0051849365234375;7.23999998172076;725;1 A
7.79723198031388;-0.3997802734375;-0.0051849365234375;7.24999998169551;726;1 A
7.80723198028863;-0.39971923828125;-0.0051910400390625;7.25999998167026;727;1 A
7.81723198026339;-0.399749755859375;-0.0051910400390625;7.26999998164501;728;1 A
7.82723198023814;-0.39971923828125;-0.0052032470703125;7.27999998161977;729;1 A
7.83723198021289;-0.3997802734375;-0.00520935058593749;7.28999998159452;730;1 A
7.84723198018764;-0.39971923828125;-0.00522460937499999;7.29999998156927;731;1 A
7.8572319801624;-0.399749755859375;-0.00523986816406249;7.30999998154402;732;1 A
7.86723198013715;-0.39971923828125;-0.0052490234375;7.31999998151878;733;1 A
7.8772319801119;-0.39971923828125;-0.00525817871093751;7.32999998149353;734;1 A
7.88723198008665;-0.39971923828125;-0.00526123046875;7.33999998146828;735;1 A
7.89723198006141;-0.399688720703125;-0.0052642822265625;7.34999998144303;736;1 A
7.90723198003616;-0.39984130859375;-0.005267333984375;7.35999998141779;737;1 A
7.91723198001091;-0.3997802734375;-0.0052520751953125;7.36999998139254;738;1 A
7.92723197998566;-0.399749755859375;-0.0052490234375;7.37999998136729;739;1 A
7.93723197996042;-0.39971923828125;-0.00524291992187501;7.38999998134204;740;1 A
7.94723197993517;-0.399749755859375;-0.00523986816406249;7.3999999813168;741;1 A
7.95723197990992;-0.399749755859375;-0.00523986816406249;7.40999998129155;742;1 A
7.96723197988467;-0.3997802734375;-0.00524291992187501;7.4199999812663;743;1 A
7.97723197985943;-0.399810791015625;-0.00524291992187501;7.42999998124105;744;1 A
7.98723197983418;-0.39971923828125;-0.00524291992187501;7.43999998121581;745;1 A
7.99723197980893;-0.3997802734375;-0.00525817871093751;7.44999998119056;746;1 A
8.00723197978368;-0.399749755859375;-0.0052642822265625;7.45999998116531;747;1 A
8.01723197975844;-0.39971923828125;-0.0052764892578125;7.46999998114006;748;1 A
8.02723197973319;-0.399749755859375;-0.00528564453124999;7.47999998111482;749;1 A
8.03723197970794;-0.3997802734375;-0.00528869628906251;7.48999998108957;750;1 A
8.04723197968269;-0.3997802734375;-0.0052947998046875;7.49999998106432;751;1 A
8.05723197965744;-0.39971923828125;-0.0052947998046875;7.50999998103907;752;1 A
8.0672319796322;-0.39971923828125;-0.005291748046875;7.51999998101383;753;1 A
8.07723197960695;-0.399749755859375;-0.0052947998046875;7.52999998098858;754;1 A
8.0872319795817;-0.399688720703125;-0.00528564453124999;7.53999998096333;755;1 A
8.09723197955645;-0.399749755859375;-0.00528564453124999;7.54999998093808;756;1 A
8.10723197953121;-0.399749755859375;-0.00528564453124999;7.55999998091283;757;1 A
8.11723197950596;-0.399749755859375;-0.0052825927734375;7.56999998088759;758;1 A
8.12723197948071;-0.3997802734375;-0.00528869628906251;7.57999998086234;759;1 A
8.13723197945546;-0.399749755859375;-0.00528869628906251;7.58999998083709;760;1 A
8.14723197943022;-0.39971923828125;-0.0052978515625;7.59999998081184;761;1 A
8.15723197940497;-0.3997802734375;-0.00530395507812501;7.6099999807866;762;1 A
8.16723197937972;-0.399749755859375;-0.0053070068359375;7.61999998076135;763;1 A
8.17723197935447;-0.3997802734375;-0.0053131103515625;7.6299999807361;764;1 A
8.18723197932923;-0.39971923828125;-0.0053131103515625;7.63999998071085;765;1 A
8.19723197930398;-0.39971923828125;-0.00531921386718751;7.64999998068561;766;1 A
8.20723197927873;-0.3997802734375;-0.005328369140625;7.65999998066036;767;1 A
8.21723197925348;-0.399749755859375;-0.005322265625;7.66999998063511;768;1 A
8.22723197922824;-0.3997802734375;-0.005322265625;7.67999998060986;769;1 A
8.23723197920299;-0.3997802734375;-0.00531005859375;7.68999998058462;770;1 A
8.24723197917774;-0.3997802734375;-0.0053070068359375;7.69999998055937;771;1 A
8.25723197915249;-0.3997802734375;-0.00530395507812501;7.70999998053412;772;1 A
8.26723197912725;-0.399688720703125;-0.0052947998046875;7.71999998050887;773;1 A
8.277231979102;-0.399749755859375;-0.005291748046875;7.72999998048363;774;1 A
8.28723197907675;-0.399749755859375;-0.00528869628906251;7.73999998045838;775;1 A
8.2972319790515;-0.399810791015625;-0.0052825927734375;7.74999998043313;776;1 A
8.30723197902626;-0.39971923828125;-0.0052825927734375;7.75999998040788;777;1 A
8.31723197900101;-0.399749755859375;-0.0052764892578125;7.76999998038264;778;1 A
8.32723197897576;-0.3997802734375;-0.00527343750000001;7.77999998035739;779;1 A
8.33723197895051;-0.39971923828125;-0.005267333984375;7.78999998033214;780;1 A
8.34723197892527;-0.3997802734375;-0.00526123046875;7.79999998030689;781;1 A
8.35723197890002;-0.3997802734375;-0.005267333984375;7.80999998028165;782;1 A
8.36723197887477;-0.39984130859375;-0.005267333984375;7.8199999802564;783;1 A
8.37723197884952;-0.399688720703125;-0.00526123046875;7.82999998023115;784;1 A
8.38723197882427;-0.39971923828125;-0.0052459716796875;7.8399999802059;785;1 A
8.39723197879903;-0.399749755859375;-0.0052490234375;7.84999998018066;786;1 A
8.40723197877378;-0.399658203125;-0.00524291992187501;7.85999998015541;787;1 A
8.41723197874853;-0.3997802734375;-0.00523986816406249;7.86999998013016;788;1 A
8.42723197872328;-0.399810791015625;-0.00523986816406249;7.87999998010491;789;1 A
8.43723197869804;-0.399810791015625;-0.005230712890625;7.88999998007966;790;1 A
8.44723197867279;-0.399688720703125;-0.0052337646484375;7.89999998005442;791;1 A
8.45723197864754;-0.3997802734375;-0.00523681640625;7.90999998002917;792;1 A
8.46723197862229;-0.3997802734375;-0.00523681640625;7.91999998000392;793;1 A
8.47723197859705;-0.39971923828125;-0.0052459716796875;7.92999997997867;794;1 A
8.4872319785718;-0.3997802734375;-0.0052459716796875;7.93999997995343;795;1 A
8.49723197854655;-0.3997802734375;-0.0052520751953125;7.94999997992818;796;1 A
8.5072319785213;-0.3997802734375;-0.0052642822265625;7.95999997990293;797;1 A
8.51723197849606;-0.39971923828125;-0.00525512695312499;7.96999997987768;798;1 A
8.52723197847081;-0.39971923828125;-0.005267333984375;7.97999997985244;799;1 A
8.53723197844556;-0.399749755859375;-0.00525512695312499;7.98999997982719;800;1 A
8.54723197842031;-0.399749755859375;-0.00525817871093751;7.99999997980194;801;1 A
8.55723197839507;-0.399688720703125;-0.0052642822265625;8.00999997977669;802;1 A
8.56723197836982;-0.399749755859375;-0.00525817871093751;8.01999997975145;803;1 A
8.57723197834457;-0.399749755859375;-0.00526123046875;8.0299999797262;804;1 A
8.58723197831932;-0.399688720703125;-0.00525512695312499;8.03999997970095;805;1 A
8.59723197829408;-0.39971923828125;-0.00525512695312499;8.0499999796757;806;1 A
8.60723197826883;-0.399749755859375;-0.00526123046875;8.05999997965046;807;1 A
8.61723197824358;-0.399749755859375;-0.00525512695312499;8.06999997962521;808;1 A
8.62723197821833;-0.3997802734375;-0.00525817871093751;8.07999997959996;809;1 A
8.63723197819309;-0.399749755859375;-0.00525512695312499;8.08999997957471;810;1 A
8.64723197816784;-0.399749755859375;-0.00525817871093751;8.09999997954947;811;1 A
8.65723197814259;-0.3997802734375;-0.0052642822265625;8.10999997952422;812;1 A
8.66723197811734;-0.3997802734375;-0.00526123046875;8.11999997949897;813;1 A
8.6772319780921;-0.39971923828125;-0.005267333984375;8.12999997947372;814;1 A
8.68723197806685;-0.399810791015625;-0.00526123046875;8.13999997944848;815;1 A
8.6972319780416;-0.39971923828125;-0.00526123046875;8.14999997942323;816;1 A
8.70723197801635;-0.39971923828125;-0.00527038574218749;8.15999997939798;817;1 A
8.7172319779911;-0.3997802734375;-0.0052642822265625;8.16999997937273;818;1 A
8.72723197796586;-0.399749755859375;-0.005267333984375;8.17999997934749;819;1 A
8.73723197794061;-0.39984130859375;-0.0052642822265625;8.18999997932224;820;1 A
8.74723197791536;-0.399749755859375;-0.005267333984375;8.19999997929699;821;1 A
8.75723197789011;-0.39971923828125;-0.005267333984375;8.20999997927174;822;1 A
8.76723197786487;-0.399749755859375;-0.00527343750000001;8.2199999792465;823;1 A
8.77723197783962;-0.399749755859375;-0.005279541015625;8.22999997922125;824;1 A
8.78723197781437;-0.399749755859375;-0.0052764892578125;8.239999979196;825;1 A
8.79723197778912;-0.399749755859375;-0.005279541015625;8.24999997917075;826;1 A
8.80723197776388;-0.399810791015625;-0.0052764892578125;8.2599999791455;827;1 A
8.81723197773863;-0.399688720703125;-0.00527038574218749;8.26999997912026;828;1 A
8.82723197771338;-0.39971923828125;-0.00527343750000001;8.27999997909501;829;1 A
8.83723197768813;-0.3997802734375;-0.005267333984375;8.28999997906976;830;1 A
8.84723197766289;-0.39971923828125;-0.00527038574218749;8.29999997904451;831;1 A
8.85723197763764;-0.3997802734375;-0.00527038574218749;8.30999997901927;832;1 A
8.86723197761239;-0.399810791015625;-0.00526123046875;8.31999997899402;833;1 A
8.87723197758714;-0.3997802734375;-0.0052520751953125;8.32999997896877;834;1 A
8.8872319775619;-0.39971923828125;-0.00524291992187501;8.33999997894352;835;1 A
8.89723197753665;-0.39971923828125;-0.00523986816406249;8.34999997891828;836;1 A
8.9072319775114;-0.3997802734375;-0.00523681640625;8.35999997889303;837;1 A
8.91723197748615;-0.399688720703125;-0.00522460937499999;8.36999997886778;838;1 A
8.92723197746091;-0.399749755859375;-0.005230712890625;8.37999997884253;839;1 A
8.93723197743566;-0.399749755859375;-0.0052215576171875;8.38999997881729;840;1 A
8.94723197741041;-0.39971923828125;-0.00522460937499999;8.39999997879204;841;1 A
8.95723197738516;-0.399749755859375;-0.0052337646484375;8.40999997876679;842;1 A
8.96723197735992;-0.399749755859375;-0.00522766113281251;8.41999997874154;843;1 A
8.97723197733467;-0.399749755859375;-0.00523681640625;8.4299999787163;844;1 A
8.98723197730942;-0.399749755859375;-0.0052337646484375;8.43999997869105;845;1 A
8.99723197728417;-0.3997802734375;-0.005230712890625;8.4499999786658;846;1 A
9.00723197725893;-0.399749755859375;-0.00522766113281251;8.45999997864055;847;1 A
9.01723197723368;-0.399658203125;-0.0052154541015625;8.46999997861531;848;1 A
9.02723197720843;-0.39971923828125;-0.00520935058593749;8.47999997859006;849;1 A
9.03723197718318;-0.399688720703125;-0.0052001953125;8.48999997856481;850;1 A
9.04723197715794;-0.39971923828125;-0.00519409179687499;8.49999997853956;851;1 A
9.05723197713269;-0.399749755859375;-0.0051849365234375;8.50999997851432;852;1 A
9.06723197710744;-0.399749755859375;-0.00517578125;8.51999997848907;853;1 A
9.07723197708219;-0.399749755859375;-0.00517578125;8.52999997846382;854;1 A
9.08723197705694;-0.39971923828125;-0.0051727294921875;8.53999997843857;855;1 A
9.0972319770317;-0.399749755859375;-0.00516662597656251;8.54999997841333;856;1 A
9.10723197700645;-0.39971923828125;-0.00517578125;8.55999997838808;857;1 A
9.1172319769812;-0.39971923828125;-0.00517883300781249;8.56999997836283;858;1 A
9.12723197695595;-0.3997802734375;-0.00518188476562501;8.57999997833758;859;1 A
9.13723197693071;-0.399688720703125;-0.0051849365234375;8.58999997831233;860;1 A
9.14723197690546;-0.39971923828125;-0.0051910400390625;8.59999997828709;861;1 A
9.15723197688021;-0.399749755859375;-0.0051910400390625;8.60999997826184;862;1 A
9.16723197685496;-0.399749755859375;-0.00519409179687499;8.61999997823659;863;1 A
9.17723197682972;-0.399810791015625;-0.00519409179687499;8.62999997821134;864;1 A
9.18723197680447;-0.399749755859375;-0.00519409179687499;8.6399999781861;865;1 A
9.19723197677922;-0.3997802734375;-0.00519714355468751;8.64999997816085;866;1 A
9.20723197675397;-0.39971923828125;-0.0052001953125;8.6599999781356;867;1 A
9.21723197672873;-0.399658203125;-0.0052001953125;8.66999997811035;868;1 A
9.22723197670348;-0.399749755859375;-0.0052032470703125;8.67999997808511;869;1 A
9.23723197667823;-0.3997802734375;-0.005206298828125;8.68999997805986;870;1 A
9.24723197665298;-0.399749755859375;-0.0052154541015625;8.69999997803461;871;1 A
9.25723197662774;-0.399688720703125;-0.0052215576171875;8.70999997800936;872;1 A
9.26723197660249;-0.399688720703125;-0.00522766113281251;8.71999997798412;873;1 A
9.27723197657724;-0.3997802734375;-0.00523681640625;8.72999997795887;874;1 A
9.28723197655199;-0.39971923828125;-0.005230712890625;8.73999997793362;875;1 A
9.29723197652675;-0.39971923828125;-0.0052337646484375;8.74999997790837;876;1 A
9.3072319765015;-0.39971923828125;-0.00524291992187501;8.75999997788313;877;1 A
9.31723197647625;-0.39971923828125;-0.00523986816406249;8.76999997785788;878;1 A
9.327231976451;-0.39971923828125;-0.0052459716796875;8.77999997783263;879;1 A
9.33723197642576;-0.39971923828125;-0.00524291992187501;8.78999997780738;880;1 A
9.34723197640051;-0.39971923828125;-0.0052459716796875;8.79999997778214;881;1 A
9.35723197637526;-0.3997802734375;-0.0052490234375;8.80999997775689;882;1 A
9.36723197635001;-0.39971923828125;-0.00523986816406249;8.81999997773164;883;1 A
9.37723197632477;-0.399688720703125;-0.0052459716796875;8.82999997770639;884;1 A
9.38723197629952;-0.399749755859375;-0.00524291992187501;8.83999997768115;885;1 A
9.39723197627427;-0.399749755859375;-0.0052459716796875;8.8499999776559;886;1 A
9.40723197624902;-0.39971923828125;-0.0052520751953125;8.85999997763065;887;1 A
9.41723197622377;-0.3997802734375;-0.0052490234375;8.8699999776054;888;1 A
9.42723197619853;-0.3997802734375;-0.00525512695312499;8.87999997758016;889;1 A
9.43723197617328;-0.3997802734375;-0.00525512695312499;8.88999997755491;890;1 A
9.44723197614803;-0.399749755859375;-0.00525817871093751;8.89999997752966;891;1 A
9.45723197612278;-0.3997802734375;-0.0052642822265625;8.90999997750441;892;1 A
9.46723197609754;-0.399749755859375;-0.00525512695312499;8.91999997747916;893;1 A
9.47723197607229;-0.3997802734375;-0.00525817871093751;8.92999997745392;894;1 A
9.48723197604704;-0.399749755859375;-0.0052459716796875;8.93999997742867;895;1 A
9.49723197602179;-0.399749755859375;-0.00523681640625;8.94999997740342;896;1 A
9.50723197599655;-0.399688720703125;-0.0052337646484375;8.95999997737817;897;1 A
9.5172319759713;-0.399749755859375;-0.00522460937499999;8.96999997735293;898;1 A
9.52723197594605;-0.399688720703125;-0.005218505859375;8.97999997732768;899;1 A
9.5372319759208;-0.39971923828125;-0.00521240234375001;8.98999997730243;900;1 A
9.54723197589556;-0.3997802734375;-0.00520935058593749;8.99999997727718;901;1 A
9.55723197587031;-0.3997802734375;-0.00521240234375001;9.00999997725194;902;1 A
9.56723197584506;-0.3997802734375;-0.0052154541015625;9.01999997722669;903;1 A
9.57723197581981;-0.399749755859375;-0.005218505859375;9.02999997720144;904;1 A
9.58723197579457;-0.399749755859375;-0.0052215576171875;9.03999997717619;905;1 A
9.59723197576932;-0.399749755859375;-0.005230712890625;9.04999997715095;906;1 A
9.60723197574407;-0.399749755859375;-0.0052337646484375;9.0599999771257;907;1 A
9.61723197571882;-0.399810791015625;-0.00524291992187501;9.06999997710045;908;1 A
9.62723197569358;-0.399749755859375;-0.0052520751953125;9.0799999770752;909;1 A
9.63723197566833;-0.399749755859375;-0.0052520751953125;9.08999997704996;910;1 A
9.64723197564308;-0.39971923828125;-0.00525512695312499;9.09999997702471;911;1 A
9.65723197561783;-0.399688720703125;-0.00526123046875;9.10999997699946;912;1 A
9.66723197559259;-0.399688720703125;-0.0052642822265625;9.11999997697421;913;1 A
9.67723197556734;-0.399749755859375;-0.0052764892578125;9.12999997694897;914;1 A
9.68723197554209;-0.3997802734375;-0.00527343750000001;9.13999997692372;915;1 A
9.69723197551684;-0.399810791015625;-0.00528869628906251;9.14999997689847;916;1 A
9.7072319754916;-0.39971923828125;-0.0052978515625;9.15999997687322;917;1 A
9.71723197546635;-0.39971923828125;-0.00530090332031249;9.16999997684798;918;1 A
9.7272319754411;-0.3997802734375;-0.005322265625;9.17999997682273;919;1 A
9.73723197541585;-0.399749755859375;-0.0053253173828125;9.18999997679748;920;1 A
9.7472319753906;-0.3997802734375;-0.0053375244140625;9.19999997677223;921;1 A
9.75723197536536;-0.39971923828125;-0.00534973144531251;9.20999997674699;922;1 A
9.76723197534011;-0.3997802734375;-0.005352783203125;9.21999997672174;923;1 A
9.77723197531486;-0.399688720703125;-0.0053680419921875;9.22999997669649;924;1 A
9.78723197528961;-0.3997802734375;-0.00537109375;9.23999997667124;925;1 A
9.79723197526437;-0.399810791015625;-0.00538024902343751;9.249999976646;926;1 A
9.80723197523912;-0.399749755859375;-0.005389404296875;9.25999997662075;927;1 A
9.81723197521387;-0.399749755859375;-0.005389404296875;9.2699999765955;928;1 A
9.82723197518862;-0.39971923828125;-0.0053985595703125;9.27999997657025;929;1 A
9.83723197516338;-0.39971923828125;-0.00539550781250001;9.289999976545;930;1 A
9.84723197513813;-0.3997802734375;-0.005401611328125;9.29999997651976;931;1 A
9.85723197511288;-0.399749755859375;-0.005413818359375;9.30999997649451;932;1 A
9.86723197508763;-0.39971923828125;-0.005419921875;9.31999997646926;933;1 A
9.87723197506239;-0.3997802734375;-0.0054290771484375;9.32999997644401;934;1 A
9.88723197503714;-0.399749755859375;-0.00543212890625;9.33999997641877;935;1 A
9.89723197501189;-0.399749755859375;-0.00543823242187499;9.34999997639352;936;1 A
9.90723197498664;-0.399658203125;-0.005450439453125;9.35999997636827;937;1 A
9.9172319749614;-0.39971923828125;-0.00545654296875001;9.36999997634302;938;1 A
9.92723197493615;-0.3997802734375;-0.00547180175781251;9.37999997631778;939;1 A
9.9372319749109;-0.399749755859375;-0.0054779052734375;9.38999997629253;940;1 A
9.94723197488565;-0.399688720703125;-0.0054901123046875;9.39999997626728;941;1 A
9.95723197486041;-0.39971923828125;-0.0054962158203125;9.40999997624203;942;1 A
9.96723197483516;-0.399688720703125;-0.00550537109375;9.41999997621679;943;1 A
9.97723197480991;-0.3997802734375;-0.00551452636718749;9.42999997619154;944;1 A
9.98723197478466;-0.3997802734375;-0.0055206298828125;9.43999997616629;945;1 A
9.99723197475942;-0.3997802734375;-0.00552978515624999;9.44999997614104;946;1 A
10.0072319747342;-0.399749755859375;-0.00553283691406251;9.4599999761158;947;1 A
10.0172319747089;-0.399749755859375;-0.00554504394531249;9.46999997609055;948;1 A
10.0272319746837;-0.39971923828125;-0.0055572509765625;9.4799999760653;949;1 A
10.0372319746584;-0.39971923828125;-0.00556030273437499;9.48999997604005;950;1 A
10.0472319746332;-0.3997802734375;-0.005572509765625;9.49999997601481;951;1 A
10.0572319746079;-0.399749755859375;-0.0055816650390625;9.50999997598956;952;1 A
10.0672319745827;-0.399749755859375;-0.005584716796875;9.51999997596431;953;1 A
10.0772319745574;-0.399749755859375;-0.0055999755859375;9.52999997593906;954;1 A
10.0872319745322;-0.39971923828125;-0.005596923828125;9.53999997591382;955;1 A
10.0972319745069;-0.39971923828125;-0.0056121826171875;9.54999997588857;956;1 A
10.1072319744817;-0.399749755859375;-0.0056182861328125;9.55999997586332;957;1 A
10.1172319744564;-0.39984130859375;-0.005615234375;9.56999997583807;958;1 A
10.1272319744312;-0.399749755859375;-0.00562133789062499;9.57999997581283;959;1 A
10.1372319744059;-0.399810791015625;-0.0056121826171875;9.58999997578758;960;1 A
10.1472319743807;-0.39971923828125;-0.005615234375;9.59999997576233;961;1 A
10.1572319743555;-0.39971923828125;-0.0056182861328125;9.60999997573708;962;1 A
10.1672319743302;-0.39971923828125;-0.00560607910156249;9.61999997571183;963;1 A
10.177231974305;-0.3997802734375;-0.00560607910156249;9.62999997568659;964;1 A
10.1872319742797;-0.39971923828125;-0.0055999755859375;9.63999997566134;965;1 A
10.1972319742545;-0.399749755859375;-0.00559082031249999;9.64999997563609;966;1 A
10.2072319742292;-0.39971923828125;-0.0055877685546875;9.65999997561084;967;1 A
10.217231974204;-0.399658203125;-0.005572509765625;9.6699999755856;968;1 A
10.2272319741787;-0.39971923828125;-0.00556640625;9.67999997556035;969;1 A
10.2372319741535;-0.39971923828125;-0.0055511474609375;9.6899999755351;970;1 A
10.2472319741282;-0.399749755859375;-0.0055389404296875;9.69999997550985;971;1 A
10.257231974103;-0.399688720703125;-0.00552978515624999;9.70999997548461;972;1 A
10.2672319740777;-0.3997802734375;-0.005511474609375;9.71999997545936;973;1 A
10.2772319740525;-0.399688720703125;-0.00550231933593751;9.72999997543411;974;1 A
10.2872319740272;-0.39971923828125;-0.00548706054687501;9.73999997540886;975;1 A
10.297231974002;-0.3997802734375;-0.005474853515625;9.74999997538362;976;1 A
10.3072319739767;-0.399810791015625;-0.0054656982421875;9.75999997535837;977;1 A
10.3172319739515;-0.399749755859375;-0.00545349121093749;9.76999997533312;978;1 A
10.3272319739262;-0.399749755859375;-0.0054443359375;9.77999997530787;979;1 A
10.337231973901;-0.399749755859375;-0.0054290771484375;9.78999997528263;980;1 A
10.3472319738758;-0.399749755859375;-0.005419921875;9.79999997525738;981;1 A
10.3572319738505;-0.39971923828125;-0.00541076660156251;9.80999997523213;982;1 A
10.3672319738253;-0.39971923828125;-0.005401611328125;9.81999997520688;983;1 A
10.3772319738;-0.399749755859375;-0.00539550781250001;9.82999997518164;984;1 A
10.3872319737748;-0.3997802734375;-0.005389404296875;9.83999997515639;985;1 A
10.3972319737495;-0.3997802734375;-0.005389404296875;9.84999997513114;986;1 A
10.4072319737243;-0.39971923828125;-0.00538330078125;9.85999997510589;987;1 A
10.417231973699;-0.399810791015625;-0.00538024902343751;9.86999997508065;988;1 A
10.4272319736738;-0.399749755859375;-0.00538024902343751;9.8799999750554;989;1 A
10.4372319736485;-0.399749755859375;-0.00537109375;9.88999997503015;990;1 A
10.4472319736233;-0.399749755859375;-0.0053741455078125;9.8999999750049;991;1 A
10.457231973598;-0.399658203125;-0.00537109375;9.90999997497966;992;1 A
10.4672319735728;-0.3997802734375;-0.00536193847656249;9.91999997495441;993;1 A
10.4772319735475;-0.399810791015625;-0.00537109375;9.92999997492916;994;1 A
10.4872319735223;-0.39971923828125;-0.00536499023437501;9.93999997490391;995;1 A
10.497231973497;-0.399810791015625;-0.0053680419921875;9.94999997487866;996;1 A
10.5072319734718;-0.399749755859375;-0.0053741455078125;9.95999997485342;997;1 A
10.5172319734465;-0.39971923828125;-0.00537109375;9.96999997482817;998;1 A
10.5272319734213;-0.399749755859375;-0.00538330078125;9.97999997480292;999;1 A
10.537231973396;-0.3997802734375;-0.0053863525390625;9.98999997477767;1000;1 A
