Time (s);WE(1).Potential (V);WE(1).Current (A);Corrected time (s);Index;Current range
11.8954449699669;-0.499755859375;-0.0063812255859375;0;1;1 A
11.9054449699416;-0.499786376953125;-0.0060455322265625;0.00999999997475243;2;1 A
11.9154449699164;-0.49981689453125;-0.00588378906250001;0.0199999999495049;3;1 A
11.9254449698911;-0.499847412109375;-0.0057861328125;0.0299999999242573;4;1 A
11.9354449698659;-0.499755859375;-0.00573120117187501;0.0399999998990097;5;1 A
11.9454449698407;-0.499786376953125;-0.00567626953125;0.0499999998737621;6;1 A
11.9554449698154;-0.4998779296875;-0.00565490722656251;0.0599999998485146;7;1 A
11.9654449697902;-0.499786376953125;-0.00562744140625;0.069999999823267;8;1 A
11.9754449697649;-0.499847412109375;-0.00560607910156249;0.0799999997980194;9;1 A
11.9854449697397;-0.499725341796875;-0.0055999755859375;0.0899999997727718;10;1 A
11.9954449697144;-0.499786376953125;-0.00557556152343749;0.0999999997475243;11;1 A
12.0054449696892;-0.49981689453125;-0.00556335449218751;0.109999999722277;12;1 A
12.0154449696639;-0.499786376953125;-0.00556030273437499;0.119999999697029;13;1 A
12.0254449696387;-0.499786376953125;-0.0055419921875;0.129999999671782;14;1 A
12.0354449696134;-0.499847412109375;-0.0055389404296875;0.139999999646534;15;1 A
12.0454449695882;-0.49981689453125;-0.00551452636718749;0.149999999621286;16;1 A
12.0554449695629;-0.499755859375;-0.0054962158203125;0.159999999596039;17;1 A
12.0654449695377;-0.499786376953125;-0.00548706054687501;0.169999999570791;18;1 A
12.0754449695124;-0.49981689453125;-0.005462646484375;0.179999999545544;19;1 A
12.0854449694872;-0.499786376953125;-0.00545349121093749;0.189999999520296;20;1 A
12.0954449694619;-0.499786376953125;-0.00543823242187499;0.199999999495049;21;1 A
12.1054449694367;-0.49981689453125;-0.00542602539062501;0.209999999469801;22;1 A
12.1154449694114;-0.499847412109375;-0.00543212890625;0.219999999444553;23;1 A
12.1254449693862;-0.499786376953125;-0.005419921875;0.229999999419306;24;1 A
12.1354449693609;-0.499755859375;-0.00542602539062501;0.239999999394058;25;1 A
12.1454449693357;-0.49981689453125;-0.0054168701171875;0.249999999368811;26;1 A
12.1554449693105;-0.499847412109375;-0.00541076660156251;0.259999999343563;27;1 A
12.1654449692852;-0.499755859375;-0.00541076660156251;0.269999999318316;28;1 A
12.17544496926;-0.499847412109375;-0.0054046630859375;0.279999999293068;29;1 A
12.1854449692347;-0.49981689453125;-0.005401611328125;0.28999999926782;30;1 A
12.1954449692095;-0.49981689453125;-0.00539550781250001;0.299999999242573;31;1 A
12.2054449691842;-0.49981689453125;-0.005389404296875;0.309999999217325;32;1 A
12.215444969159;-0.49981689453125;-0.00539550781250001;0.319999999192078;33;1 A
12.2254449691337;-0.49981689453125;-0.005389404296875;0.32999999916683;34;1 A
12.2354449691085;-0.499908447265625;-0.00539550781250001;0.339999999141583;35;1 A
12.2454449690832;-0.49981689453125;-0.0053863525390625;0.349999999116335;36;1 A
12.255444969058;-0.499755859375;-0.005389404296875;0.359999999091087;37;1 A
12.2654449690327;-0.49981689453125;-0.0053985595703125;0.36999999906584;38;1 A
12.2754449690075;-0.49981689453125;-0.005401611328125;0.379999999040592;39;1 A
12.2854449689822;-0.49981689453125;-0.00541076660156251;0.389999999015345;40;1 A
12.295444968957;-0.499847412109375;-0.005413818359375;0.399999998990097;41;1 A
12.3054449689317;-0.49981689453125;-0.005419921875;0.40999999896485;42;1 A
12.3154449689065;-0.49981689453125;-0.00543212890625;0.419999998939602;43;1 A
12.3254449688812;-0.499755859375;-0.00543823242187499;0.429999998914354;44;1 A
12.335444968856;-0.4998779296875;-0.00545654296875001;0.439999998889107;45;1 A
12.3454449688307;-0.499786376953125;-0.00545654296875001;0.449999998863859;46;1 A
12.3554449688055;-0.499755859375;-0.005462646484375;0.459999998838612;47;1 A
12.3654449687803;-0.499847412109375;-0.0054656982421875;0.469999998813364;48;1 A
12.375444968755;-0.499786376953125;-0.005462646484375;0.479999998788116;49;1 A
12.3854449687298;-0.49981689453125;-0.00547180175781251;0.489999998762869;50;1 A
12.3954449687045;-0.499969482421875;-0.005462646484375;0.499999998737621;51;1 A
12.4054449686793;-0.499786376953125;-0.005462646484375;0.509999998712374;52;1 A
12.415444968654;-0.4998779296875;-0.00547180175781251;0.519999998687126;53;1 A
12.4254449686288;-0.499755859375;-0.00546874999999999;0.529999998661879;54;1 A
12.4354449686035;-0.499786376953125;-0.00548706054687501;0.539999998636631;55;1 A
12.4454449685783;-0.499786376953125;-0.0054779052734375;0.549999998611383;56;1 A
12.455444968553;-0.499786376953125;-0.00548095703125;0.559999998586136;57;1 A
12.4654449685278;-0.499755859375;-0.0054901123046875;0.569999998560888;58;1 A
12.4754449685025;-0.499786376953125;-0.00548706054687501;0.579999998535641;59;1 A
12.4854449684773;-0.499786376953125;-0.0054962158203125;0.589999998510393;60;1 A
12.495444968452;-0.499786376953125;-0.00549926757812499;0.599999998485146;61;1 A
12.5054449684268;-0.49981689453125;-0.00549926757812499;0.609999998459898;62;1 A
12.5154449684015;-0.49981689453125;-0.005511474609375;0.61999999843465;63;1 A
12.5254449683763;-0.499786376953125;-0.00550231933593751;0.629999998409403;64;1 A
12.535444968351;-0.499847412109375;-0.0055084228515625;0.639999998384155;65;1 A
12.5454449683258;-0.499786376953125;-0.0054931640625;0.649999998358908;66;1 A
12.5554449683005;-0.49981689453125;-0.0054779052734375;0.65999999833366;67;1 A
12.5654449682753;-0.499755859375;-0.0054779052734375;0.669999998308413;68;1 A
12.5754449682501;-0.499755859375;-0.00546874999999999;0.679999998283165;69;1 A
12.5854449682248;-0.49981689453125;-0.00546874999999999;0.689999998257917;70;1 A
12.5954449681996;-0.49981689453125;-0.005462646484375;0.69999999823267;71;1 A
12.6054449681743;-0.49981689453125;-0.00545349121093749;0.709999998207422;72;1 A
12.6154449681491;-0.499786376953125;-0.0054595947265625;0.719999998182175;73;1 A
12.6254449681238;-0.499725341796875;-0.00545349121093749;0.729999998156927;74;1 A
12.6354449680986;-0.499969482421875;-0.00545654296875001;0.73999999813168;75;1 A
12.6454449680733;-0.499755859375;-0.0054473876953125;0.749999998106432;76;1 A
12.6554449680481;-0.49981689453125;-0.0054443359375;0.759999998081184;77;1 A
12.6654449680228;-0.499786376953125;-0.0054473876953125;0.769999998055937;78;1 A
12.6754449679976;-0.499786376953125;-0.0054473876953125;0.779999998030689;79;1 A
12.6854449679723;-0.49981689453125;-0.005450439453125;0.789999998005442;80;1 A
12.6954449679471;-0.499786376953125;-0.00543823242187499;0.799999997980194;81;1 A
12.7054449679218;-0.499847412109375;-0.0054351806640625;0.809999997954947;82;1 A
12.7154449678966;-0.49993896484375;-0.00543212890625;0.819999997929699;83;1 A
12.7254449678713;-0.49981689453125;-0.00540771484374999;0.829999997904451;84;1 A
12.7354449678461;-0.49981689453125;-0.00541076660156251;0.839999997879204;85;1 A
12.7454449678208;-0.49981689453125;-0.00539245605468749;0.849999997853956;86;1 A
12.7554449677956;-0.499786376953125;-0.005389404296875;0.859999997828709;87;1 A
12.7654449677703;-0.49981689453125;-0.0053863525390625;0.869999997803461;88;1 A
12.7754449677451;-0.499847412109375;-0.0053741455078125;0.879999997778214;89;1 A
12.7854449677199;-0.49981689453125;-0.00538024902343751;0.889999997752966;90;1 A
12.7954449676946;-0.49993896484375;-0.0053680419921875;0.899999997727718;91;1 A
12.8054449676694;-0.499786376953125;-0.00536193847656249;0.909999997702471;92;1 A
12.8154449676441;-0.49981689453125;-0.00536499023437501;0.919999997677223;93;1 A
12.8254449676189;-0.49981689453125;-0.00535888671875;0.929999997651976;94;1 A
12.8354449675936;-0.499847412109375;-0.00537719726562499;0.939999997626728;95;1 A
12.8454449675684;-0.499847412109375;-0.0053680419921875;0.949999997601481;96;1 A
12.8554449675431;-0.499908447265625;-0.0053680419921875;0.959999997576233;97;1 A
12.8654449675179;-0.49981689453125;-0.0053741455078125;0.969999997550985;98;1 A
12.8754449674926;-0.4998779296875;-0.00535888671875;0.979999997525738;99;1 A
12.8854449674674;-0.49981689453125;-0.00536193847656249;0.98999999750049;100;1 A
12.8954449674421;-0.499786376953125;-0.00534973144531251;0.999999997475243;101;1 A
12.9054449674169;-0.499786376953125;-0.00534667968749999;1.00999999745;102;1 A
12.9154449673916;-0.499786376953125;-0.005352783203125;1.01999999742475;103;1 A
12.9254449673664;-0.49981689453125;-0.005340576171875;1.0299999973995;104;1 A
12.9354449673411;-0.49981689453125;-0.00534667968749999;1.03999999737425;105;1 A
12.9454449673159;-0.499786376953125;-0.0053436279296875;1.049999997349;106;1 A
12.9554449672906;-0.4998779296875;-0.005352783203125;1.05999999732376;107;1 A
12.9654449672654;-0.499786376953125;-0.00536193847656249;1.06999999729851;108;1 A
12.9754449672402;-0.49981689453125;-0.0053680419921875;1.07999999727326;109;1 A
12.9854449672149;-0.499755859375;-0.0053863525390625;1.08999999724801;110;1 A
12.9954449671897;-0.49981689453125;-0.00539550781250001;1.09999999722277;111;1 A
13.0054449671644;-0.499786376953125;-0.0054046630859375;1.10999999719752;112;1 A
13.0154449671392;-0.499847412109375;-0.00542297363281249;1.11999999717227;113;1 A
13.0254449671139;-0.499786376953125;-0.00542297363281249;1.12999999714702;114;1 A
13.0354449670887;-0.49981689453125;-0.0054290771484375;1.13999999712178;115;1 A
13.0454449670634;-0.4998779296875;-0.005419921875;1.14999999709653;116;1 A
13.0554449670382;-0.49981689453125;-0.005413818359375;1.15999999707128;117;1 A
13.0654449670129;-0.49981689453125;-0.005413818359375;1.16999999704603;118;1 A
13.0754449669877;-0.499786376953125;-0.0054046630859375;1.17999999702079;119;1 A
13.0854449669624;-0.499755859375;-0.0054046630859375;1.18999999699554;120;1 A
13.0954449669372;-0.4998779296875;-0.00538330078125;1.19999999697029;121;1 A
13.1054449669119;-0.49981689453125;-0.00538024902343751;1.20999999694504;122;1 A
13.1154449668867;-0.49993896484375;-0.00538024902343751;1.2199999969198;123;1 A
13.1254449668614;-0.499786376953125;-0.00537109375;1.22999999689455;124;1 A
13.1354449668362;-0.499755859375;-0.00537719726562499;1.2399999968693;125;1 A
13.1454449668109;-0.499755859375;-0.0053680419921875;1.24999999684405;126;1 A
13.1554449667857;-0.49981689453125;-0.00536499023437501;1.25999999681881;127;1 A
13.1654449667604;-0.499847412109375;-0.00536193847656249;1.26999999679356;128;1 A
13.1754449667352;-0.499786376953125;-0.0053558349609375;1.27999999676831;129;1 A
13.18544496671;-0.49981689453125;-0.00535888671875;1.28999999674306;130;1 A
13.1954449666847;-0.49981689453125;-0.0053436279296875;1.29999999671782;131;1 A
13.2054449666595;-0.499786376953125;-0.00533447265625001;1.30999999669257;132;1 A
13.2154449666342;-0.499847412109375;-0.00533142089843749;1.31999999666732;133;1 A
13.225444966609;-0.49981689453125;-0.00531616210937499;1.32999999664207;134;1 A
13.2354449665837;-0.499786376953125;-0.00531921386718751;1.33999999661683;135;1 A
13.2454449665585;-0.499847412109375;-0.00530395507812501;1.34999999659158;136;1 A
13.2554449665332;-0.49981689453125;-0.005291748046875;1.35999999656633;137;1 A
13.265444966508;-0.49981689453125;-0.00530090332031249;1.36999999654108;138;1 A
13.2754449664827;-0.499847412109375;-0.0052947998046875;1.37999999651583;139;1 A
13.2854449664575;-0.49981689453125;-0.00530395507812501;1.38999999649059;140;1 A
13.2954449664322;-0.49981689453125;-0.00530090332031249;1.39999999646534;141;1 A
13.305444966407;-0.49981689453125;-0.00530395507812501;1.40999999644009;142;1 A
13.3154449663817;-0.499847412109375;-0.00531616210937499;1.41999999641484;143;1 A
13.3254449663565;-0.499786376953125;-0.0053131103515625;1.4299999963896;144;1 A
13.3354449663312;-0.499847412109375;-0.005322265625;1.43999999636435;145;1 A
13.345444966306;-0.499786376953125;-0.00531921386718751;1.4499999963391;146;1 A
13.3554449662807;-0.499908447265625;-0.00531616210937499;1.45999999631385;147;1 A
13.3654449662555;-0.499786376953125;-0.00531921386718751;1.46999999628861;148;1 A
13.3754449662302;-0.499786376953125;-0.00531005859375;1.47999999626336;149;1 A
13.385444966205;-0.499786376953125;-0.0053070068359375;1.48999999623811;150;1 A
13.3954449661798;-0.499847412109375;-0.0052978515625;1.49999999621286;151;1 A
13.4054449661545;-0.499847412109375;-0.005279541015625;1.50999999618762;152;1 A
13.4154449661293;-0.49981689453125;-0.00528564453124999;1.51999999616237;153;1 A
13.425444966104;-0.499847412109375;-0.0052764892578125;1.52999999613712;154;1 A
13.4354449660788;-0.499847412109375;-0.0052825927734375;1.53999999611187;155;1 A
13.4454449660535;-0.499786376953125;-0.005267333984375;1.54999999608663;156;1 A
13.4554449660283;-0.499786376953125;-0.0052825927734375;1.55999999606138;157;1 A
13.465444966003;-0.499786376953125;-0.005291748046875;1.56999999603613;158;1 A
13.4754449659778;-0.49981689453125;-0.00530395507812501;1.57999999601088;159;1 A
13.4854449659525;-0.49981689453125;-0.00531921386718751;1.58999999598564;160;1 A
13.4954449659273;-0.499725341796875;-0.00531616210937499;1.59999999596039;161;1 A
13.505444965902;-0.49981689453125;-0.00533142089843749;1.60999999593514;162;1 A
13.5154449658768;-0.499847412109375;-0.00534973144531251;1.61999999590989;163;1 A
13.5254449658515;-0.499847412109375;-0.005352783203125;1.62999999588465;164;1 A
13.5354449658263;-0.499847412109375;-0.00537109375;1.6399999958594;165;1 A
13.545444965801;-0.499847412109375;-0.00536193847656249;1.64999999583415;166;1 A
13.5554449657758;-0.499786376953125;-0.00537109375;1.6599999958089;167;1 A
13.5654449657505;-0.499786376953125;-0.00537109375;1.66999999578366;168;1 A
13.5754449657253;-0.499847412109375;-0.00536499023437501;1.67999999575841;169;1 A
13.5854449657;-0.49981689453125;-0.00536193847656249;1.68999999573316;170;1 A
13.5954449656748;-0.499847412109375;-0.0053436279296875;1.69999999570791;171;1 A
13.6054449656496;-0.49981689453125;-0.00533142089843749;1.70999999568267;172;1 A
13.6154449656243;-0.499755859375;-0.005328369140625;1.71999999565742;173;1 A
13.6254449655991;-0.499786376953125;-0.00531005859375;1.72999999563217;174;1 A
13.6354449655738;-0.499847412109375;-0.00531616210937499;1.73999999560692;175;1 A
13.6454449655486;-0.499725341796875;-0.00530090332031249;1.74999999558167;176;1 A
13.6554449655233;-0.4998779296875;-0.0052947998046875;1.75999999555643;177;1 A
13.6654449654981;-0.499786376953125;-0.005291748046875;1.76999999553118;178;1 A
13.6754449654728;-0.499908447265625;-0.005279541015625;1.77999999550593;179;1 A
13.6854449654476;-0.49981689453125;-0.00527343750000001;1.78999999548068;180;1 A
13.6954449654223;-0.499786376953125;-0.00526123046875;1.79999999545544;181;1 A
13.7054449653971;-0.49981689453125;-0.00525512695312499;1.80999999543019;182;1 A
13.7154449653718;-0.49981689453125;-0.00525512695312499;1.81999999540494;183;1 A
13.7254449653466;-0.49981689453125;-0.00524291992187501;1.82999999537969;184;1 A
13.7354449653213;-0.499786376953125;-0.0052490234375;1.83999999535445;185;1 A
13.7454449652961;-0.4998779296875;-0.00523681640625;1.8499999953292;186;1 A
13.7554449652708;-0.49981689453125;-0.00523986816406249;1.85999999530395;187;1 A
13.7654449652456;-0.499847412109375;-0.00524291992187501;1.8699999952787;188;1 A
13.7754449652203;-0.49981689453125;-0.0052459716796875;1.87999999525346;189;1 A
13.7854449651951;-0.49981689453125;-0.00525817871093751;1.88999999522821;190;1 A
13.7954449651698;-0.499847412109375;-0.005267333984375;1.89999999520296;191;1 A
13.8054449651446;-0.499786376953125;-0.00527038574218749;1.90999999517771;192;1 A
13.8154449651194;-0.499755859375;-0.005279541015625;1.91999999515247;193;1 A
13.8254449650941;-0.499786376953125;-0.00528564453124999;1.92999999512722;194;1 A
13.8354449650689;-0.49981689453125;-0.0052978515625;1.93999999510197;195;1 A
13.8454449650436;-0.49981689453125;-0.00528869628906251;1.94999999507672;196;1 A
13.8554449650184;-0.499847412109375;-0.0052978515625;1.95999999505148;197;1 A
13.8654449649931;-0.499786376953125;-0.0052947998046875;1.96999999502623;198;1 A
13.8754449649679;-0.499847412109375;-0.00528869628906251;1.97999999500098;199;1 A
13.8854449649426;-0.49981689453125;-0.00528564453124999;1.98999999497573;200;1 A
13.8954449649174;-0.49981689453125;-0.0052764892578125;1.99999999495049;201;1 A
13.9054449648921;-0.499786376953125;-0.00527038574218749;2.00999999492524;202;1 A
13.9154449648669;-0.499908447265625;-0.0052764892578125;2.01999999489999;203;1 A
13.9254449648416;-0.499786376953125;-0.00526123046875;2.02999999487474;204;1 A
13.9354449648164;-0.49981689453125;-0.005267333984375;2.0399999948495;205;1 A
13.9454449647911;-0.499847412109375;-0.00526123046875;2.04999999482425;206;1 A
13.9554449647659;-0.499847412109375;-0.00527038574218749;2.059999994799;207;1 A
13.9654449647406;-0.499847412109375;-0.005279541015625;2.06999999477375;208;1 A
13.9754449647154;-0.499847412109375;-0.0052764892578125;2.0799999947485;209;1 A
13.9854449646901;-0.49981689453125;-0.005279541015625;2.08999999472326;210;1 A
13.9954449646649;-0.499786376953125;-0.00527038574218749;2.09999999469801;211;1 A
14.0054449646397;-0.499786376953125;-0.00527038574218749;2.10999999467276;212;1 A
14.0154449646144;-0.49981689453125;-0.005279541015625;2.11999999464751;213;1 A
14.0254449645892;-0.499786376953125;-0.00527038574218749;2.12999999462227;214;1 A
14.0354449645639;-0.499755859375;-0.0052825927734375;2.13999999459702;215;1 A
14.0454449645387;-0.499847412109375;-0.00527038574218749;2.14999999457177;216;1 A
14.0554449645134;-0.499786376953125;-0.00527038574218749;2.15999999454652;217;1 A
14.0654449644882;-0.499847412109375;-0.005279541015625;2.16999999452128;218;1 A
14.0754449644629;-0.499786376953125;-0.00527038574218749;2.17999999449603;219;1 A
14.0854449644377;-0.499847412109375;-0.00527038574218749;2.18999999447078;220;1 A
14.0954449644124;-0.499847412109375;-0.0052642822265625;2.19999999444553;221;1 A
14.1054449643872;-0.499786376953125;-0.0052642822265625;2.20999999442029;222;1 A
14.1154449643619;-0.499847412109375;-0.00527038574218749;2.21999999439504;223;1 A
14.1254449643367;-0.499786376953125;-0.0052642822265625;2.22999999436979;224;1 A
14.1354449643114;-0.49981689453125;-0.00527038574218749;2.23999999434454;225;1 A
14.1454449642862;-0.49981689453125;-0.0052642822265625;2.2499999943193;226;1 A
14.1554449642609;-0.49981689453125;-0.00526123046875;2.25999999429405;227;1 A
14.1654449642357;-0.499908447265625;-0.00526123046875;2.2699999942688;228;1 A
14.1754449642104;-0.499847412109375;-0.00525817871093751;2.27999999424355;229;1 A
14.1854449641852;-0.49981689453125;-0.00526123046875;2.28999999421831;230;1 A
14.1954449641599;-0.499847412109375;-0.0052642822265625;2.29999999419306;231;1 A
14.2054449641347;-0.499786376953125;-0.00525817871093751;2.30999999416781;232;1 A
14.2154449641095;-0.49981689453125;-0.00526123046875;2.31999999414256;233;1 A
14.2254449640842;-0.499755859375;-0.0052520751953125;2.32999999411732;234;1 A
14.235444964059;-0.499786376953125;-0.00525817871093751;2.33999999409207;235;1 A
14.2454449640337;-0.49981689453125;-0.00524291992187501;2.34999999406682;236;1 A
14.2554449640085;-0.49981689453125;-0.0052459716796875;2.35999999404157;237;1 A
14.2654449639832;-0.499847412109375;-0.00524291992187501;2.36999999401633;238;1 A
14.275444963958;-0.499847412109375;-0.00523681640625;2.37999999399108;239;1 A
14.2854449639327;-0.499847412109375;-0.00523986816406249;2.38999999396583;240;1 A
14.2954449639075;-0.499786376953125;-0.00522766113281251;2.39999999394058;241;1 A
14.3054449638822;-0.49981689453125;-0.00522766113281251;2.40999999391533;242;1 A
14.315444963857;-0.499786376953125;-0.0052337646484375;2.41999999389009;243;1 A
14.3254449638317;-0.499847412109375;-0.0052215576171875;2.42999999386484;244;1 A
14.3354449638065;-0.499786376953125;-0.005230712890625;2.43999999383959;245;1 A
14.3454449637812;-0.49981689453125;-0.005218505859375;2.44999999381434;246;1 A
14.355444963756;-0.499725341796875;-0.00522460937499999;2.4599999937891;247;1 A
14.3654449637307;-0.49981689453125;-0.00522460937499999;2.46999999376385;248;1 A
14.3754449637055;-0.499786376953125;-0.005218505859375;2.4799999937386;249;1 A
14.3854449636802;-0.49981689453125;-0.00522460937499999;2.48999999371335;250;1 A
14.395444963655;-0.49981689453125;-0.0052215576171875;2.49999999368811;251;1 A
14.4054449636297;-0.499908447265625;-0.0052154541015625;2.50999999366286;252;1 A
14.4154449636045;-0.49981689453125;-0.0052215576171875;2.51999999363761;253;1 A
14.4254449635793;-0.49981689453125;-0.00520935058593749;2.52999999361236;254;1 A
14.435444963554;-0.49981689453125;-0.0052215576171875;2.53999999358712;255;1 A
14.4454449635288;-0.49981689453125;-0.005206298828125;2.54999999356187;256;1 A
14.4554449635035;-0.499847412109375;-0.005206298828125;2.55999999353662;257;1 A
14.4654449634783;-0.4998779296875;-0.0052154541015625;2.56999999351137;258;1 A
14.475444963453;-0.49981689453125;-0.0052154541015625;2.57999999348613;259;1 A
14.4854449634278;-0.499786376953125;-0.005218505859375;2.58999999346088;260;1 A
14.4954449634025;-0.499755859375;-0.0052154541015625;2.59999999343563;261;1 A
14.5054449633773;-0.499786376953125;-0.0052154541015625;2.60999999341038;262;1 A
14.515444963352;-0.499786376953125;-0.00522766113281251;2.61999999338514;263;1 A
14.5254449633268;-0.499847412109375;-0.0052215576171875;2.62999999335989;264;1 A
14.5354449633015;-0.49981689453125;-0.00522766113281251;2.63999999333464;265;1 A
14.5454449632763;-0.49981689453125;-0.0052215576171875;2.64999999330939;266;1 A
14.555444963251;-0.499786376953125;-0.00522766113281251;2.65999999328415;267;1 A
14.5654449632258;-0.499786376953125;-0.005230712890625;2.6699999932589;268;1 A
14.5754449632005;-0.499786376953125;-0.00522460937499999;2.67999999323365;269;1 A
14.5854449631753;-0.49981689453125;-0.00522766113281251;2.6899999932084;270;1 A
14.59544496315;-0.499786376953125;-0.00522766113281251;2.69999999318316;271;1 A
14.6054449631248;-0.499786376953125;-0.00522460937499999;2.70999999315791;272;1 A
14.6154449630995;-0.499786376953125;-0.005230712890625;2.71999999313266;273;1 A
14.6254449630743;-0.499847412109375;-0.00522766113281251;2.72999999310741;274;1 A
14.6354449630491;-0.499786376953125;-0.00523681640625;2.73999999308217;275;1 A
14.6454449630238;-0.49981689453125;-0.00522460937499999;2.74999999305692;276;1 A
14.6554449629986;-0.499847412109375;-0.00522766113281251;2.75999999303167;277;1 A
14.6654449629733;-0.499786376953125;-0.0052337646484375;2.76999999300642;278;1 A
14.6754449629481;-0.499847412109375;-0.00523681640625;2.77999999298117;279;1 A
14.6854449629228;-0.49981689453125;-0.0052459716796875;2.78999999295593;280;1 A
14.6954449628976;-0.4998779296875;-0.00524291992187501;2.79999999293068;281;1 A
14.7054449628723;-0.49981689453125;-0.0052520751953125;2.80999999290543;282;1 A
14.7154449628471;-0.499786376953125;-0.005267333984375;2.81999999288018;283;1 A
14.7254449628218;-0.49981689453125;-0.00525817871093751;2.82999999285494;284;1 A
14.7354449627966;-0.499755859375;-0.00527343750000001;2.83999999282969;285;1 A
14.7454449627713;-0.499847412109375;-0.0052642822265625;2.84999999280444;286;1 A
14.7554449627461;-0.49981689453125;-0.00527038574218749;2.85999999277919;287;1 A
14.7654449627208;-0.499847412109375;-0.00527038574218749;2.86999999275395;288;1 A
14.7754449626956;-0.49981689453125;-0.00526123046875;2.8799999927287;289;1 A
14.7854449626703;-0.49981689453125;-0.00527038574218749;2.88999999270345;290;1 A
14.7954449626451;-0.49981689453125;-0.0052642822265625;2.8999999926782;291;1 A
14.8054449626198;-0.49981689453125;-0.00525512695312499;2.90999999265296;292;1 A
14.8154449625946;-0.49981689453125;-0.00525512695312499;2.91999999262771;293;1 A
14.8254449625693;-0.499786376953125;-0.0052459716796875;2.92999999260246;294;1 A
14.8354449625441;-0.499847412109375;-0.00525512695312499;2.93999999257721;295;1 A
14.8454449625189;-0.499847412109375;-0.0052490234375;2.94999999255197;296;1 A
14.8554449624936;-0.49981689453125;-0.0052490234375;2.95999999252672;297;1 A
14.8654449624684;-0.499786376953125;-0.00525512695312499;2.96999999250147;298;1 A
14.8754449624431;-0.499755859375;-0.0052490234375;2.97999999247622;299;1 A
14.8854449624179;-0.49981689453125;-0.0052459716796875;2.98999999245098;300;1 A
14.8954449623926;-0.499786376953125;-0.00524291992187501;2.99999999242573;301;1 A
14.9054449623674;-0.499847412109375;-0.00523986816406249;3.00999999240048;302;1 A
14.9154449623421;-0.49981689453125;-0.00523986816406249;3.01999999237523;303;1 A
14.9254449623169;-0.499755859375;-0.00522766113281251;3.02999999234999;304;1 A
14.9354449622916;-0.499847412109375;-0.00523681640625;3.03999999232474;305;1 A
14.9454449622664;-0.499786376953125;-0.00522766113281251;3.04999999229949;306;1 A
14.9554449622411;-0.499847412109375;-0.0052337646484375;3.05999999227424;307;1 A
14.9654449622159;-0.499847412109375;-0.005230712890625;3.069999992249;308;1 A
14.9754449621906;-0.499786376953125;-0.00522460937499999;3.07999999222375;309;1 A
14.9854449621654;-0.49981689453125;-0.0052337646484375;3.0899999921985;310;1 A
14.9954449621401;-0.499847412109375;-0.0052337646484375;3.09999999217325;311;1 A
15.0054449621149;-0.49981689453125;-0.00523681640625;3.109999992148;312;1 A
15.0154449620896;-0.499847412109375;-0.00524291992187501;3.11999999212276;313;1 A
15.0254449620644;-0.49981689453125;-0.00523681640625;3.12999999209751;314;1 A
15.0354449620392;-0.499725341796875;-0.0052490234375;3.13999999207226;315;1 A
15.0454449620139;-0.499786376953125;-0.00523681640625;3.14999999204701;316;1 A
15.0554449619887;-0.49981689453125;-0.00523681640625;3.15999999202177;317;1 A
15.0654449619634;-0.499847412109375;-0.00523986816406249;3.16999999199652;318;1 A
15.0754449619382;-0.499786376953125;-0.00523681640625;3.17999999197127;319;1 A
15.0854449619129;-0.49981689453125;-0.005230712890625;3.18999999194602;320;1 A
15.0954449618877;-0.49981689453125;-0.00522460937499999;3.19999999192078;321;1 A
15.1054449618624;-0.499786376953125;-0.00522766113281251;3.20999999189553;322;1 A
15.1154449618372;-0.499755859375;-0.00522460937499999;3.21999999187028;323;1 A
15.1254449618119;-0.499847412109375;-0.00521240234375001;3.22999999184503;324;1 A
15.1354449617867;-0.499847412109375;-0.00520935058593749;3.23999999181979;325;1 A
15.1454449617614;-0.499847412109375;-0.00519714355468751;3.24999999179454;326;1 A
15.1554449617362;-0.499755859375;-0.005206298828125;3.25999999176929;327;1 A
15.1654449617109;-0.499847412109375;-0.0052032470703125;3.26999999174404;328;1 A
15.1754449616857;-0.499786376953125;-0.00519714355468751;3.2799999917188;329;1 A
15.1854449616604;-0.49981689453125;-0.0052001953125;3.28999999169355;330;1 A
15.1954449616352;-0.499755859375;-0.00519714355468751;3.2999999916683;331;1 A
15.2054449616099;-0.49981689453125;-0.0051849365234375;3.30999999164305;332;1 A
15.2154449615847;-0.499725341796875;-0.00518188476562501;3.31999999161781;333;1 A
15.2254449615594;-0.49981689453125;-0.00516662597656251;3.32999999159256;334;1 A
15.2354449615342;-0.499786376953125;-0.00518188476562501;3.33999999156731;335;1 A
15.245444961509;-0.499786376953125;-0.0051605224609375;3.34999999154206;336;1 A
15.2554449614837;-0.499847412109375;-0.0051605224609375;3.35999999151682;337;1 A
15.2654449614585;-0.499786376953125;-0.005157470703125;3.36999999149157;338;1 A
15.2754449614332;-0.499755859375;-0.0051544189453125;3.37999999146632;339;1 A
15.285444961408;-0.49981689453125;-0.0051544189453125;3.38999999144107;340;1 A
15.2954449613827;-0.499725341796875;-0.00515136718750001;3.39999999141583;341;1 A
15.3054449613575;-0.49981689453125;-0.00514831542968749;3.40999999139058;342;1 A
15.3154449613322;-0.49981689453125;-0.00516357421874999;3.41999999136533;343;1 A
15.325444961307;-0.499847412109375;-0.00516357421874999;3.42999999134008;344;1 A
15.3354449612817;-0.49981689453125;-0.0051727294921875;3.43999999131483;345;1 A
15.3454449612565;-0.499786376953125;-0.00517578125;3.44999999128959;346;1 A
15.3554449612312;-0.499755859375;-0.00517883300781249;3.45999999126434;347;1 A
15.365444961206;-0.499786376953125;-0.00517883300781249;3.46999999123909;348;1 A
15.3754449611807;-0.49981689453125;-0.00517578125;3.47999999121384;349;1 A
15.3854449611555;-0.499847412109375;-0.0051849365234375;3.4899999911886;350;1 A
15.3954449611302;-0.499786376953125;-0.00518188476562501;3.49999999116335;351;1 A
15.405444961105;-0.499847412109375;-0.0051849365234375;3.5099999911381;352;1 A
15.4154449610797;-0.49981689453125;-0.00518798828125;3.51999999111285;353;1 A
15.4254449610545;-0.49981689453125;-0.00518188476562501;3.52999999108761;354;1 A
15.4354449610292;-0.499755859375;-0.0051910400390625;3.53999999106236;355;1 A
15.445444961004;-0.499786376953125;-0.0051849365234375;3.54999999103711;356;1 A
15.4554449609788;-0.49981689453125;-0.00518188476562501;3.55999999101186;357;1 A
15.4654449609535;-0.499786376953125;-0.0051910400390625;3.56999999098662;358;1 A
15.4754449609283;-0.499786376953125;-0.00519409179687499;3.57999999096137;359;1 A
15.485444960903;-0.499786376953125;-0.0052001953125;3.58999999093612;360;1 A
15.4954449608778;-0.499847412109375;-0.005206298828125;3.59999999091087;361;1 A
15.5054449608525;-0.499847412109375;-0.0052154541015625;3.60999999088563;362;1 A
15.5154449608273;-0.499755859375;-0.0052337646484375;3.61999999086038;363;1 A
15.525444960802;-0.499847412109375;-0.005230712890625;3.62999999083513;364;1 A
15.5354449607768;-0.499755859375;-0.00524291992187501;3.63999999080988;365;1 A
15.5454449607515;-0.499786376953125;-0.0052459716796875;3.64999999078464;366;1 A
15.5554449607263;-0.49981689453125;-0.0052490234375;3.65999999075939;367;1 A
15.565444960701;-0.499847412109375;-0.00524291992187501;3.66999999073414;368;1 A
15.5754449606758;-0.499847412109375;-0.00523681640625;3.67999999070889;369;1 A
15.5854449606505;-0.49981689453125;-0.0052459716796875;3.68999999068365;370;1 A
15.5954449606253;-0.49981689453125;-0.00524291992187501;3.6999999906584;371;1 A
15.6054449606;-0.49969482421875;-0.00523681640625;3.70999999063315;372;1 A
15.6154449605748;-0.49981689453125;-0.0052459716796875;3.7199999906079;373;1 A
15.6254449605495;-0.49981689453125;-0.00523681640625;3.72999999058266;374;1 A
15.6354449605243;-0.499786376953125;-0.0052520751953125;3.73999999055741;375;1 A
15.645444960499;-0.499786376953125;-0.00524291992187501;3.74999999053216;376;1 A
15.6554449604738;-0.49981689453125;-0.00524291992187501;3.75999999050691;377;1 A
15.6654449604486;-0.499847412109375;-0.00524291992187501;3.76999999048167;378;1 A
15.6754449604233;-0.49969482421875;-0.00523681640625;3.77999999045642;379;1 A
15.6854449603981;-0.4998779296875;-0.0052337646484375;3.78999999043117;380;1 A
15.6954449603728;-0.499847412109375;-0.00522766113281251;3.79999999040592;381;1 A
15.7054449603476;-0.499786376953125;-0.0052215576171875;3.80999999038067;382;1 A
15.7154449603223;-0.49981689453125;-0.00523681640625;3.81999999035543;383;1 A
15.7254449602971;-0.499786376953125;-0.0052215576171875;3.82999999033018;384;1 A
15.7354449602718;-0.49981689453125;-0.005230712890625;3.83999999030493;385;1 A
15.7454449602466;-0.49981689453125;-0.005230712890625;3.84999999027968;386;1 A
15.7554449602213;-0.499755859375;-0.00522766113281251;3.85999999025444;387;1 A
15.7654449601961;-0.499847412109375;-0.0052215576171875;3.86999999022919;388;1 A
15.7754449601708;-0.49981689453125;-0.00520935058593749;3.87999999020394;389;1 A
15.7854449601456;-0.499755859375;-0.00520935058593749;3.88999999017869;390;1 A
15.7954449601203;-0.499786376953125;-0.00520935058593749;3.89999999015345;391;1 A
15.8054449600951;-0.49981689453125;-0.0052001953125;3.9099999901282;392;1 A
15.8154449600698;-0.49981689453125;-0.00520935058593749;3.91999999010295;393;1 A
15.8254449600446;-0.4998779296875;-0.00519409179687499;3.9299999900777;394;1 A
15.8354449600193;-0.499786376953125;-0.0052001953125;3.93999999005246;395;1 A
15.8454449599941;-0.499755859375;-0.00518798828125;3.94999999002721;396;1 A
15.8554449599688;-0.499847412109375;-0.00518188476562501;3.95999999000196;397;1 A
15.8654449599436;-0.49981689453125;-0.0051849365234375;3.96999998997671;398;1 A
15.8754449599184;-0.499786376953125;-0.00518798828125;3.97999998995147;399;1 A
15.8854449598931;-0.499786376953125;-0.00518798828125;3.98999998992622;400;1 A
15.8954449598679;-0.499755859375;-0.00518798828125;3.99999998990097;401;1 A
15.9054449598426;-0.499847412109375;-0.00518798828125;4.00999998987572;402;1 A
15.9154449598174;-0.499725341796875;-0.00519714355468751;4.01999998985048;403;1 A
15.9254449597921;-0.499786376953125;-0.00517883300781249;4.02999998982523;404;1 A
15.9354449597669;-0.499847412109375;-0.0051849365234375;4.03999998979998;405;1 A
15.9454449597416;-0.49981689453125;-0.00517883300781249;4.04999998977473;406;1 A
15.9554449597164;-0.499755859375;-0.00517883300781249;4.05999998974949;407;1 A
15.9654449596911;-0.499786376953125;-0.00518188476562501;4.06999998972424;408;1 A
15.9754449596659;-0.499786376953125;-0.00517578125;4.07999998969899;409;1 A
15.9854449596406;-0.499847412109375;-0.0051849365234375;4.08999998967374;410;1 A
15.9954449596154;-0.499725341796875;-0.0051849365234375;4.0999999896485;411;1 A
16.0054449595901;-0.499847412109375;-0.00517578125;4.10999998962325;412;1 A
16.0154449595649;-0.49981689453125;-0.00517883300781249;4.119999989598;413;1 A
16.0254449595396;-0.49981689453125;-0.0051727294921875;4.12999998957275;414;1 A
16.0354449595144;-0.499847412109375;-0.00518188476562501;4.1399999895475;415;1 A
16.0454449594891;-0.499847412109375;-0.00517578125;4.14999998952226;416;1 A
16.0554449594639;-0.49981689453125;-0.0051849365234375;4.15999998949701;417;1 A
16.0654449594387;-0.49981689453125;-0.0051910400390625;4.16999998947176;418;1 A
16.0754449594134;-0.499725341796875;-0.0051849365234375;4.17999998944651;419;1 A
16.0854449593882;-0.49981689453125;-0.0051849365234375;4.18999998942127;420;1 A
16.0954449593629;-0.499755859375;-0.00518188476562501;4.19999998939602;421;1 A
16.1054449593377;-0.499847412109375;-0.0051849365234375;4.20999998937077;422;1 A
16.1154449593124;-0.49969482421875;-0.0051910400390625;4.21999998934552;423;1 A
16.1254449592872;-0.499786376953125;-0.00518188476562501;4.22999998932028;424;1 A
16.1354449592619;-0.49981689453125;-0.00519409179687499;4.23999998929503;425;1 A
16.1454449592367;-0.499786376953125;-0.00519409179687499;4.24999998926978;426;1 A
16.1554449592114;-0.499755859375;-0.0052001953125;4.25999998924453;427;1 A
16.1654449591862;-0.499725341796875;-0.0052032470703125;4.26999998921929;428;1 A
16.1754449591609;-0.499847412109375;-0.0052032470703125;4.27999998919404;429;1 A
16.1854449591357;-0.499786376953125;-0.00521240234375001;4.28999998916879;430;1 A
16.1954449591104;-0.499755859375;-0.0052215576171875;4.29999998914354;431;1 A
16.2054449590852;-0.499755859375;-0.005218505859375;4.3099999891183;432;1 A
16.2154449590599;-0.499725341796875;-0.00522766113281251;4.31999998909305;433;1 A
16.2254449590347;-0.499786376953125;-0.005218505859375;4.3299999890678;434;1 A
16.2354449590094;-0.499725341796875;-0.00522766113281251;4.33999998904255;435;1 A
16.2454449589842;-0.499847412109375;-0.0052154541015625;4.34999998901731;436;1 A
16.2554449589589;-0.499755859375;-0.00520935058593749;4.35999998899206;437;1 A
16.2654449589337;-0.499786376953125;-0.0052154541015625;4.36999998896681;438;1 A
16.2754449589085;-0.499755859375;-0.0052215576171875;4.37999998894156;439;1 A
16.2854449588832;-0.49981689453125;-0.00522460937499999;4.38999998891632;440;1 A
16.295444958858;-0.49981689453125;-0.0052337646484375;4.39999998889107;441;1 A
16.3054449588327;-0.49981689453125;-0.00523986816406249;4.40999998886582;442;1 A
16.3154449588075;-0.499786376953125;-0.0052490234375;4.41999998884057;443;1 A
16.3254449587822;-0.49981689453125;-0.00523986816406249;4.42999998881533;444;1 A
16.335444958757;-0.49981689453125;-0.0052520751953125;4.43999998879008;445;1 A
16.3454449587317;-0.499786376953125;-0.0052520751953125;4.44999998876483;446;1 A
16.3554449587065;-0.499664306640625;-0.00526123046875;4.45999998873958;447;1 A
16.3654449586812;-0.499755859375;-0.0052642822265625;4.46999998871433;448;1 A
16.375444958656;-0.499755859375;-0.0052520751953125;4.47999998868909;449;1 A
16.3854449586307;-0.49981689453125;-0.00525512695312499;4.48999998866384;450;1 A
16.3954449586055;-0.499755859375;-0.0052520751953125;4.49999998863859;451;1 A
16.4054449585802;-0.499755859375;-0.005230712890625;4.50999998861334;452;1 A
16.415444958555;-0.499786376953125;-0.005230712890625;4.5199999885881;453;1 A
16.4254449585297;-0.4998779296875;-0.005218505859375;4.52999998856285;454;1 A
16.4354449585045;-0.49981689453125;-0.00522460937499999;4.5399999885376;455;1 A
16.4454449584792;-0.499755859375;-0.0052154541015625;4.54999998851235;456;1 A
16.455444958454;-0.49981689453125;-0.0052154541015625;4.55999998848711;457;1 A
16.4654449584287;-0.49981689453125;-0.0052215576171875;4.56999998846186;458;1 A
16.4754449584035;-0.49969482421875;-0.0052154541015625;4.57999998843661;459;1 A
16.4854449583783;-0.499847412109375;-0.0052154541015625;4.58999998841136;460;1 A
16.495444958353;-0.4998779296875;-0.00521240234375001;4.59999998838612;461;1 A
16.5054449583278;-0.49981689453125;-0.00521240234375001;4.60999998836087;462;1 A
16.5154449583025;-0.499725341796875;-0.005218505859375;4.61999998833562;463;1 A
16.5254449582773;-0.499786376953125;-0.005206298828125;4.62999998831037;464;1 A
16.535444958252;-0.49981689453125;-0.0052154541015625;4.63999998828513;465;1 A
16.5454449582268;-0.499755859375;-0.005206298828125;4.64999998825988;466;1 A
16.5554449582015;-0.499786376953125;-0.0052001953125;4.65999998823463;467;1 A
16.5654449581763;-0.499786376953125;-0.0051910400390625;4.66999998820938;468;1 A
16.575444958151;-0.49981689453125;-0.00518798828125;4.67999998818414;469;1 A
16.5854449581258;-0.499786376953125;-0.00519409179687499;4.68999998815889;470;1 A
16.5954449581005;-0.499847412109375;-0.00519409179687499;4.69999998813364;471;1 A
16.6054449580753;-0.49981689453125;-0.00519714355468751;4.70999998810839;472;1 A
16.61544495805;-0.49981689453125;-0.005206298828125;4.71999998808315;473;1 A
16.6254449580248;-0.49981689453125;-0.0052032470703125;4.7299999880579;474;1 A
16.6354449579995;-0.499786376953125;-0.00521240234375001;4.73999998803265;475;1 A
16.6454449579743;-0.499786376953125;-0.005206298828125;4.7499999880074;476;1 A
16.655444957949;-0.499786376953125;-0.00520935058593749;4.75999998798216;477;1 A
16.6654449579238;-0.49981689453125;-0.005206298828125;4.76999998795691;478;1 A
16.6754449578985;-0.499847412109375;-0.00521240234375001;4.77999998793166;479;1 A
16.6854449578733;-0.499786376953125;-0.00521240234375001;4.78999998790641;480;1 A
16.6954449578481;-0.499755859375;-0.00520935058593749;4.79999998788116;481;1 A
16.7054449578228;-0.499847412109375;-0.00520935058593749;4.80999998785592;482;1 A
16.7154449577976;-0.499725341796875;-0.0052154541015625;4.81999998783067;483;1 A
16.7254449577723;-0.49981689453125;-0.0052001953125;4.82999998780542;484;1 A
16.7354449577471;-0.499786376953125;-0.00520935058593749;4.83999998778017;485;1 A
16.7454449577218;-0.49981689453125;-0.005206298828125;4.84999998775493;486;1 A
16.7554449576966;-0.499786376953125;-0.00521240234375001;4.85999998772968;487;1 A
16.7654449576713;-0.49981689453125;-0.0052154541015625;4.86999998770443;488;1 A
16.7754449576461;-0.49981689453125;-0.00521240234375001;4.87999998767918;489;1 A
16.7854449576208;-0.49981689453125;-0.0052215576171875;4.88999998765394;490;1 A
16.7954449575956;-0.499755859375;-0.00522766113281251;4.89999998762869;491;1 A
16.8054449575703;-0.499786376953125;-0.00522460937499999;4.90999998760344;492;1 A
16.8154449575451;-0.49981689453125;-0.005230712890625;4.91999998757819;493;1 A
16.8254449575198;-0.499847412109375;-0.005218505859375;4.92999998755295;494;1 A
16.8354449574946;-0.499725341796875;-0.005230712890625;4.9399999875277;495;1 A
16.8454449574693;-0.49981689453125;-0.0052215576171875;4.94999998750245;496;1 A
16.8554449574441;-0.499786376953125;-0.0052215576171875;4.9599999874772;497;1 A
16.8654449574188;-0.49981689453125;-0.00522460937499999;4.96999998745196;498;1 A
16.8754449573936;-0.499786376953125;-0.0052154541015625;4.97999998742671;499;1 A
16.8854449573683;-0.499786376953125;-0.00521240234375001;4.98999998740146;500;1 A
16.8954449573431;-0.499786376953125;-0.00520935058593749;4.99999998737621;501;1 A
16.9054449573179;-0.49981689453125;-0.005206298828125;5.00999998735097;502;1 A
16.9154449572926;-0.499725341796875;-0.00520935058593749;5.01999998732572;503;1 A
16.9254449572674;-0.499847412109375;-0.005206298828125;5.02999998730047;504;1 A
16.9354449572421;-0.49981689453125;-0.0052154541015625;5.03999998727522;505;1 A
16.9454449572169;-0.499755859375;-0.0052154541015625;5.04999998724998;506;1 A
16.9554449571916;-0.499755859375;-0.0052154541015625;5.05999998722473;507;1 A
16.9654449571664;-0.499725341796875;-0.00520935058593749;5.06999998719948;508;1 A
16.9754449571411;-0.499847412109375;-0.005206298828125;5.07999998717423;509;1 A
16.9854449571159;-0.499786376953125;-0.00521240234375001;5.08999998714899;510;1 A
16.9954449570906;-0.499755859375;-0.00521240234375001;5.09999998712374;511;1 A
17.0054449570654;-0.499755859375;-0.005206298828125;5.10999998709849;512;1 A
17.0154449570401;-0.499786376953125;-0.00520935058593749;5.11999998707324;513;1 A
17.0254449570149;-0.49981689453125;-0.005206298828125;5.129999987048;514;1 A
17.0354449569896;-0.499786376953125;-0.005218505859375;5.13999998702275;515;1 A
17.0454449569644;-0.49981689453125;-0.00520935058593749;5.1499999869975;516;1 A
17.0554449569391;-0.49981689453125;-0.00520935058593749;5.15999998697225;517;1 A
17.0654449569139;-0.499755859375;-0.00521240234375001;5.169999986947;518;1 A
17.0754449568886;-0.49969482421875;-0.00521240234375001;5.17999998692176;519;1 A
17.0854449568634;-0.499786376953125;-0.00521240234375001;5.18999998689651;520;1 A
17.0954449568382;-0.499786376953125;-0.00520935058593749;5.19999998687126;521;1 A
17.1054449568129;-0.499786376953125;-0.0052032470703125;5.20999998684601;522;1 A
17.1154449567877;-0.499755859375;-0.0052032470703125;5.21999998682077;523;1 A
17.1254449567624;-0.499786376953125;-0.00518798828125;5.22999998679552;524;1 A
17.1354449567372;-0.499755859375;-0.00519714355468751;5.23999998677027;525;1 A
17.1454449567119;-0.49981689453125;-0.00519714355468751;5.24999998674502;526;1 A
17.1554449566867;-0.499725341796875;-0.00519409179687499;5.25999998671978;527;1 A
17.1654449566614;-0.499847412109375;-0.0052032470703125;5.26999998669453;528;1 A
17.1754449566362;-0.499755859375;-0.0052032470703125;5.27999998666928;529;1 A
17.1854449566109;-0.49981689453125;-0.005218505859375;5.28999998664403;530;1 A
17.1954449565857;-0.499725341796875;-0.00522460937499999;5.29999998661879;531;1 A
17.2054449565604;-0.499786376953125;-0.00522460937499999;5.30999998659354;532;1 A
17.2154449565352;-0.499847412109375;-0.005230712890625;5.31999998656829;533;1 A
17.2254449565099;-0.499786376953125;-0.005230712890625;5.32999998654304;534;1 A
17.2354449564847;-0.49981689453125;-0.0052459716796875;5.3399999865178;535;1 A
17.2454449564594;-0.499755859375;-0.0052490234375;5.34999998649255;536;1 A
17.2554449564342;-0.499786376953125;-0.00525512695312499;5.3599999864673;537;1 A
17.2654449564089;-0.499786376953125;-0.00527038574218749;5.36999998644205;538;1 A
17.2754449563837;-0.499786376953125;-0.00527038574218749;5.37999998641681;539;1 A
17.2854449563584;-0.499786376953125;-0.0052825927734375;5.38999998639156;540;1 A
17.2954449563332;-0.499755859375;-0.00528564453124999;5.39999998636631;541;1 A
17.305444956308;-0.49981689453125;-0.00528869628906251;5.40999998634106;542;1 A
17.3154449562827;-0.499725341796875;-0.00531005859375;5.41999998631582;543;1 A
17.3254449562575;-0.499786376953125;-0.00530395507812501;5.42999998629057;544;1 A
17.3354449562322;-0.499908447265625;-0.0053253173828125;5.43999998626532;545;1 A
17.345444956207;-0.4998779296875;-0.00533447265625001;5.44999998624007;546;1 A
17.3554449561817;-0.499786376953125;-0.00534667968749999;5.45999998621483;547;1 A
17.3654449561565;-0.49981689453125;-0.00534973144531251;5.46999998618958;548;1 A
17.3754449561312;-0.499755859375;-0.005352783203125;5.47999998616433;549;1 A
17.385444956106;-0.49981689453125;-0.00537109375;5.48999998613908;550;1 A
17.3954449560807;-0.499755859375;-0.00537719726562499;5.49999998611383;551;1 A
17.4054449560555;-0.499847412109375;-0.0053863525390625;5.50999998608859;552;1 A
17.4154449560302;-0.499786376953125;-0.00539550781250001;5.51999998606334;553;1 A
17.425444956005;-0.499847412109375;-0.00539245605468749;5.52999998603809;554;1 A
17.4354449559797;-0.499725341796875;-0.00540771484374999;5.53999998601284;555;1 A
17.4454449559545;-0.499755859375;-0.00540771484374999;5.5499999859876;556;1 A
17.4554449559292;-0.499847412109375;-0.00541076660156251;5.55999998596235;557;1 A
17.465444955904;-0.499755859375;-0.00541076660156251;5.5699999859371;558;1 A
17.4754449558787;-0.499755859375;-0.00540771484374999;5.57999998591185;559;1 A
17.4854449558535;-0.49981689453125;-0.0054168701171875;5.58999998588661;560;1 A
17.4954449558282;-0.499786376953125;-0.0054168701171875;5.59999998586136;561;1 A
17.505444955803;-0.499847412109375;-0.005413818359375;5.60999998583611;562;1 A
17.5154449557778;-0.499725341796875;-0.005413818359375;5.61999998581086;563;1 A
17.5254449557525;-0.49981689453125;-0.00541076660156251;5.62999998578562;564;1 A
17.5354449557273;-0.499786376953125;-0.0054168701171875;5.63999998576037;565;1 A
17.545444955702;-0.499847412109375;-0.00540771484374999;5.64999998573512;566;1 A
17.5554449556768;-0.499786376953125;-0.005401611328125;5.65999998570987;567;1 A
17.5654449556515;-0.499786376953125;-0.0053985595703125;5.66999998568463;568;1 A
17.5754449556263;-0.499847412109375;-0.005389404296875;5.67999998565938;569;1 A
17.585444955601;-0.49981689453125;-0.005389404296875;5.68999998563413;570;1 A
17.5954449555758;-0.499786376953125;-0.0053863525390625;5.69999998560888;571;1 A
17.6054449555505;-0.4998779296875;-0.00536499023437501;5.70999998558364;572;1 A
17.6154449555253;-0.49981689453125;-0.0053680419921875;5.71999998555839;573;1 A
17.6254449555;-0.49981689453125;-0.005352783203125;5.72999998553314;574;1 A
17.6354449554748;-0.499725341796875;-0.005352783203125;5.73999998550789;575;1 A
17.6454449554495;-0.49981689453125;-0.0053436279296875;5.74999998548265;576;1 A
17.6554449554243;-0.49981689453125;-0.00533447265625001;5.7599999854574;577;1 A
17.665444955399;-0.499755859375;-0.005328369140625;5.76999998543215;578;1 A
17.6754449553738;-0.499725341796875;-0.0053131103515625;5.7799999854069;579;1 A
17.6854449553485;-0.499786376953125;-0.00531616210937499;5.78999998538166;580;1 A
17.6954449553233;-0.49981689453125;-0.0053131103515625;5.79999998535641;581;1 A
17.705444955298;-0.499786376953125;-0.0053070068359375;5.80999998533116;582;1 A
17.7154449552728;-0.499786376953125;-0.0053070068359375;5.81999998530591;583;1 A
17.7254449552476;-0.49981689453125;-0.0052947998046875;5.82999998528066;584;1 A
17.7354449552223;-0.499786376953125;-0.0052978515625;5.83999998525542;585;1 A
17.7454449551971;-0.499755859375;-0.00528869628906251;5.84999998523017;586;1 A
17.7554449551718;-0.499755859375;-0.0052825927734375;5.85999998520492;587;1 A
17.7654449551466;-0.499786376953125;-0.0052764892578125;5.86999998517967;588;1 A
17.7754449551213;-0.49981689453125;-0.00527038574218749;5.87999998515443;589;1 A
17.7854449550961;-0.49981689453125;-0.0052764892578125;5.88999998512918;590;1 A
17.7954449550708;-0.499755859375;-0.00527343750000001;5.89999998510393;591;1 A
17.8054449550456;-0.499786376953125;-0.00527038574218749;5.90999998507868;592;1 A
17.8154449550203;-0.49981689453125;-0.0052764892578125;5.91999998505344;593;1 A
17.8254449549951;-0.49981689453125;-0.00527343750000001;5.92999998502819;594;1 A
17.8354449549698;-0.499755859375;-0.00528564453124999;5.93999998500294;595;1 A
17.8454449549446;-0.49981689453125;-0.0052764892578125;5.94999998497769;596;1 A
17.8554449549193;-0.49981689453125;-0.005279541015625;5.95999998495245;597;1 A
17.8654449548941;-0.499786376953125;-0.00528869628906251;5.9699999849272;598;1 A
17.8754449548688;-0.499755859375;-0.0052825927734375;5.97999998490195;599;1 A
17.8854449548436;-0.49981689453125;-0.005291748046875;5.9899999848767;600;1 A
17.8954449548183;-0.499847412109375;-0.00528869628906251;5.99999998485146;601;1 A
17.9054449547931;-0.499755859375;-0.00528869628906251;6.00999998482621;602;1 A
17.9154449547678;-0.49981689453125;-0.0052825927734375;6.01999998480096;603;1 A
17.9254449547426;-0.499786376953125;-0.00527038574218749;6.02999998477571;604;1 A
17.9354449547174;-0.499847412109375;-0.00527038574218749;6.03999998475047;605;1 A
17.9454449546921;-0.499786376953125;-0.00526123046875;6.04999998472522;606;1 A
17.9554449546669;-0.499847412109375;-0.00525512695312499;6.05999998469997;607;1 A
17.9654449546416;-0.499786376953125;-0.0052520751953125;6.06999998467472;608;1 A
17.9754449546164;-0.499786376953125;-0.00523681640625;6.07999998464948;609;1 A
17.9854449545911;-0.49981689453125;-0.00523986816406249;6.08999998462423;610;1 A
17.9954449545659;-0.499755859375;-0.005230712890625;6.09999998459898;611;1 A
18.0054449545406;-0.499847412109375;-0.0052215576171875;6.10999998457373;612;1 A
18.0154449545154;-0.499847412109375;-0.0052215576171875;6.11999998454849;613;1 A
18.0254449544901;-0.499725341796875;-0.005218505859375;6.12999998452324;614;1 A
18.0354449544649;-0.499908447265625;-0.00522460937499999;6.13999998449799;615;1 A
18.0454449544396;-0.499786376953125;-0.005230712890625;6.14999998447274;616;1 A
18.0554449544144;-0.499847412109375;-0.00522766113281251;6.1599999844475;617;1 A
18.0654449543891;-0.499786376953125;-0.0052337646484375;6.16999998442225;618;1 A
18.0754449543639;-0.49981689453125;-0.00522460937499999;6.179999984397;619;1 A
18.0854449543386;-0.499786376953125;-0.00522766113281251;6.18999998437175;620;1 A
18.0954449543134;-0.499664306640625;-0.0052215576171875;6.1999999843465;621;1 A
18.1054449542881;-0.499847412109375;-0.005218505859375;6.20999998432126;622;1 A
18.1154449542629;-0.49981689453125;-0.00522766113281251;6.21999998429601;623;1 A
18.1254449542377;-0.49981689453125;-0.00522460937499999;6.22999998427076;624;1 A
18.1354449542124;-0.4998779296875;-0.00524291992187501;6.23999998424551;625;1 A
18.1454449541872;-0.499847412109375;-0.0052459716796875;6.24999998422027;626;1 A
18.1554449541619;-0.49981689453125;-0.0052459716796875;6.25999998419502;627;1 A
18.1654449541367;-0.499786376953125;-0.0052459716796875;6.26999998416977;628;1 A
18.1754449541114;-0.49981689453125;-0.00524291992187501;6.27999998414452;629;1 A
18.1854449540862;-0.499847412109375;-0.00525512695312499;6.28999998411928;630;1 A
18.1954449540609;-0.499847412109375;-0.00526123046875;6.29999998409403;631;1 A
18.2054449540357;-0.499847412109375;-0.00527038574218749;6.30999998406878;632;1 A
18.2154449540104;-0.499786376953125;-0.0052825927734375;6.31999998404353;633;1 A
18.2254449539852;-0.49981689453125;-0.00528869628906251;6.32999998401829;634;1 A
18.2354449539599;-0.499725341796875;-0.00530090332031249;6.33999998399304;635;1 A
18.2454449539347;-0.499847412109375;-0.0053070068359375;6.34999998396779;636;1 A
18.2554449539094;-0.49981689453125;-0.00531616210937499;6.35999998394254;637;1 A
18.2654449538842;-0.499786376953125;-0.005328369140625;6.3699999839173;638;1 A
18.2754449538589;-0.49981689453125;-0.00533142089843749;6.37999998389205;639;1 A
18.2854449538337;-0.499786376953125;-0.00534973144531251;6.3899999838668;640;1 A
18.2954449538084;-0.499847412109375;-0.0053558349609375;6.39999998384155;641;1 A
18.3054449537832;-0.499908447265625;-0.0053558349609375;6.40999998381631;642;1 A
18.3154449537579;-0.499847412109375;-0.00536193847656249;6.41999998379106;643;1 A
18.3254449537327;-0.49981689453125;-0.00536193847656249;6.42999998376581;644;1 A
18.3354449537075;-0.499755859375;-0.0053680419921875;6.43999998374056;645;1 A
18.3454449536822;-0.499847412109375;-0.00537109375;6.44999998371532;646;1 A
18.355444953657;-0.49981689453125;-0.0053680419921875;6.45999998369007;647;1 A
18.3654449536317;-0.499847412109375;-0.0053741455078125;6.46999998366482;648;1 A
18.3754449536065;-0.4998779296875;-0.0053741455078125;6.47999998363957;649;1 A
18.3854449535812;-0.49981689453125;-0.00538330078125;6.48999998361433;650;1 A
18.395444953556;-0.49981689453125;-0.00537719726562499;6.49999998358908;651;1 A
18.4054449535307;-0.49981689453125;-0.0053741455078125;6.50999998356383;652;1 A
18.4154449535055;-0.499847412109375;-0.00537719726562499;6.51999998353858;653;1 A
18.4254449534802;-0.49981689453125;-0.0053741455078125;6.52999998351333;654;1 A
18.435444953455;-0.49981689453125;-0.0053863525390625;6.53999998348809;655;1 A
18.4454449534297;-0.499847412109375;-0.005389404296875;6.54999998346284;656;1 A
18.4554449534045;-0.499755859375;-0.005389404296875;6.55999998343759;657;1 A
18.4654449533792;-0.499786376953125;-0.005389404296875;6.56999998341234;658;1 A
18.475444953354;-0.499755859375;-0.00538024902343751;6.5799999833871;659;1 A
18.4854449533287;-0.499786376953125;-0.00538330078125;6.58999998336185;660;1 A
18.4954449533035;-0.499847412109375;-0.00537719726562499;6.5999999833366;661;1 A
18.5054449532782;-0.499847412109375;-0.0053680419921875;6.60999998331135;662;1 A
18.515444953253;-0.499847412109375;-0.00536499023437501;6.61999998328611;663;1 A
18.5254449532277;-0.499786376953125;-0.00535888671875;6.62999998326086;664;1 A
18.5354449532025;-0.499847412109375;-0.00536193847656249;6.63999998323561;665;1 A
18.5454449531773;-0.499786376953125;-0.0053558349609375;6.64999998321036;666;1 A
18.555444953152;-0.499755859375;-0.00534667968749999;6.65999998318512;667;1 A
18.5654449531268;-0.499847412109375;-0.00534667968749999;6.66999998315987;668;1 A
18.5754449531015;-0.499755859375;-0.0053436279296875;6.67999998313462;669;1 A
18.5854449530763;-0.499725341796875;-0.00534973144531251;6.68999998310937;670;1 A
18.595444953051;-0.499786376953125;-0.0053436279296875;6.69999998308413;671;1 A
18.6054449530258;-0.499847412109375;-0.005340576171875;6.70999998305888;672;1 A
18.6154449530005;-0.49981689453125;-0.00534667968749999;6.71999998303363;673;1 A
18.6254449529753;-0.49981689453125;-0.005340576171875;6.72999998300838;674;1 A
18.63544495295;-0.49981689453125;-0.00534667968749999;6.73999998298314;675;1 A
18.6454449529248;-0.49981689453125;-0.0053436279296875;6.74999998295789;676;1 A
18.6554449528995;-0.499786376953125;-0.0053375244140625;6.75999998293264;677;1 A
18.6654449528743;-0.49981689453125;-0.0053436279296875;6.76999998290739;678;1 A
18.675444952849;-0.499847412109375;-0.0053375244140625;6.77999998288215;679;1 A
18.6854449528238;-0.499847412109375;-0.00534667968749999;6.7899999828569;680;1 A
18.6954449527985;-0.499755859375;-0.0053436279296875;6.79999998283165;681;1 A
18.7054449527733;-0.499755859375;-0.00533447265625001;6.8099999828064;682;1 A
18.715444952748;-0.499847412109375;-0.00533142089843749;6.81999998278116;683;1 A
18.7254449527228;-0.499786376953125;-0.005322265625;6.82999998275591;684;1 A
18.7354449526975;-0.499847412109375;-0.0053253173828125;6.83999998273066;685;1 A
18.7454449526723;-0.499755859375;-0.005322265625;6.84999998270541;686;1 A
18.7554449526471;-0.49981689453125;-0.0053131103515625;6.85999998268016;687;1 A
18.7654449526218;-0.49981689453125;-0.00531616210937499;6.86999998265492;688;1 A
18.7754449525966;-0.499755859375;-0.0053070068359375;6.87999998262967;689;1 A
18.7854449525713;-0.499786376953125;-0.00531616210937499;6.88999998260442;690;1 A
18.7954449525461;-0.499847412109375;-0.00530395507812501;6.89999998257917;691;1 A
18.8054449525208;-0.4998779296875;-0.005291748046875;6.90999998255393;692;1 A
18.8154449524956;-0.499786376953125;-0.0052978515625;6.91999998252868;693;1 A
18.8254449524703;-0.499847412109375;-0.00528869628906251;6.92999998250343;694;1 A
18.8354449524451;-0.499786376953125;-0.0052947998046875;6.93999998247818;695;1 A
18.8454449524198;-0.499755859375;-0.005291748046875;6.94999998245294;696;1 A
18.8554449523946;-0.499847412109375;-0.00528869628906251;6.95999998242769;697;1 A
18.8654449523693;-0.499786376953125;-0.0052825927734375;6.96999998240244;698;1 A
18.8754449523441;-0.49981689453125;-0.005267333984375;6.97999998237719;699;1 A
18.8854449523188;-0.499786376953125;-0.005267333984375;6.98999998235195;700;1 A
18.8954449522936;-0.499755859375;-0.0052642822265625;6.9999999823267;701;1 A
18.9054449522683;-0.499847412109375;-0.0052490234375;7.00999998230145;702;1 A
18.9154449522431;-0.499786376953125;-0.0052459716796875;7.0199999822762;703;1 A
18.9254449522178;-0.49981689453125;-0.00524291992187501;7.02999998225096;704;1 A
18.9354449521926;-0.49981689453125;-0.0052520751953125;7.03999998222571;705;1 A
18.9454449521673;-0.499847412109375;-0.0052490234375;7.04999998220046;706;1 A
18.9554449521421;-0.49981689453125;-0.00523681640625;7.05999998217521;707;1 A
18.9654449521169;-0.499786376953125;-0.00523986816406249;7.06999998214997;708;1 A
18.9754449520916;-0.49981689453125;-0.00523681640625;7.07999998212472;709;1 A
18.9854449520664;-0.499755859375;-0.00524291992187501;7.08999998209947;710;1 A
18.9954449520411;-0.499847412109375;-0.0052337646484375;7.09999998207422;711;1 A
19.0054449520159;-0.499786376953125;-0.005230712890625;7.10999998204898;712;1 A
19.0154449519906;-0.499786376953125;-0.005230712890625;7.11999998202373;713;1 A
19.0254449519654;-0.49981689453125;-0.0052154541015625;7.12999998199848;714;1 A
19.0354449519401;-0.49981689453125;-0.00521240234375001;7.13999998197323;715;1 A
19.0454449519149;-0.49981689453125;-0.0052001953125;7.14999998194799;716;1 A
19.0554449518896;-0.499847412109375;-0.00518798828125;7.15999998192274;717;1 A
19.0654449518644;-0.499755859375;-0.00518188476562501;7.16999998189749;718;1 A
19.0754449518391;-0.49981689453125;-0.0051727294921875;7.17999998187224;719;1 A
19.0854449518139;-0.49981689453125;-0.0051849365234375;7.189999981847;720;1 A
19.0954449517886;-0.49981689453125;-0.0051849365234375;7.19999998182175;721;1 A
19.1054449517634;-0.49981689453125;-0.0051849365234375;7.2099999817965;722;1 A
19.1154449517381;-0.499847412109375;-0.00518798828125;7.21999998177125;723;1 A
19.1254449517129;-0.499786376953125;-0.0052001953125;7.229999981746;724;1 A
19.1354449516876;-0.499786376953125;-0.00521240234375001;7.23999998172076;725;1 A
19.1454449516624;-0.499786376953125;-0.005218505859375;7.24999998169551;726;1 A
19.1554449516372;-0.49981689453125;-0.0052154541015625;7.25999998167026;727;1 A
19.1654449516119;-0.499847412109375;-0.005218505859375;7.26999998164501;728;1 A
19.1754449515867;-0.499755859375;-0.0052154541015625;7.27999998161977;729;1 A
19.1854449515614;-0.4998779296875;-0.00522460937499999;7.28999998159452;730;1 A
19.1954449515362;-0.4998779296875;-0.00521240234375001;7.29999998156927;731;1 A
19.2054449515109;-0.499786376953125;-0.00521240234375001;7.30999998154402;732;1 A
19.2154449514857;-0.499847412109375;-0.005206298828125;7.31999998151878;733;1 A
19.2254449514604;-0.499847412109375;-0.0052001953125;7.32999998149353;734;1 A
19.2354449514352;-0.499847412109375;-0.00520935058593749;7.33999998146828;735;1 A
19.2454449514099;-0.499847412109375;-0.00521240234375001;7.34999998144303;736;1 A
19.2554449513847;-0.49981689453125;-0.00521240234375001;7.35999998141779;737;1 A
19.2654449513594;-0.49981689453125;-0.00522460937499999;7.36999998139254;738;1 A
19.2754449513342;-0.49981689453125;-0.0052154541015625;7.37999998136729;739;1 A
19.2854449513089;-0.499725341796875;-0.00522766113281251;7.38999998134204;740;1 A
19.2954449512837;-0.49981689453125;-0.00522766113281251;7.3999999813168;741;1 A
19.3054449512584;-0.499725341796875;-0.0052215576171875;7.40999998129155;742;1 A
19.3154449512332;-0.499847412109375;-0.00522460937499999;7.4199999812663;743;1 A
19.3254449512079;-0.49981689453125;-0.0052154541015625;7.42999998124105;744;1 A
19.3354449511827;-0.499786376953125;-0.0052215576171875;7.43999998121581;745;1 A
19.3454449511574;-0.499786376953125;-0.0052215576171875;7.44999998119056;746;1 A
19.3554449511322;-0.4998779296875;-0.00520935058593749;7.45999998116531;747;1 A
19.365444951107;-0.499786376953125;-0.00520935058593749;7.46999998114006;748;1 A
19.3754449510817;-0.499755859375;-0.005206298828125;7.47999998111482;749;1 A
19.3854449510565;-0.49981689453125;-0.0052032470703125;7.48999998108957;750;1 A
19.3954449510312;-0.49981689453125;-0.00519714355468751;7.49999998106432;751;1 A
19.405444951006;-0.499755859375;-0.0051910400390625;7.50999998103907;752;1 A
19.4154449509807;-0.49981689453125;-0.0052001953125;7.51999998101383;753;1 A
19.4254449509555;-0.499847412109375;-0.00519714355468751;7.52999998098858;754;1 A
19.4354449509302;-0.499847412109375;-0.0052001953125;7.53999998096333;755;1 A
19.445444950905;-0.49981689453125;-0.00519714355468751;7.54999998093808;756;1 A
19.4554449508797;-0.499786376953125;-0.00519714355468751;7.55999998091283;757;1 A
19.4654449508545;-0.49981689453125;-0.00519714355468751;7.56999998088759;758;1 A
19.4754449508292;-0.499847412109375;-0.00518798828125;7.57999998086234;759;1 A
19.485444950804;-0.49981689453125;-0.00519714355468751;7.58999998083709;760;1 A
19.4954449507787;-0.49981689453125;-0.00519409179687499;7.59999998081184;761;1 A
19.5054449507535;-0.49981689453125;-0.00518798828125;7.6099999807866;762;1 A
19.5154449507282;-0.49981689453125;-0.0051849365234375;7.61999998076135;763;1 A
19.525444950703;-0.4998779296875;-0.0051727294921875;7.6299999807361;764;1 A
19.5354449506777;-0.499786376953125;-0.00517578125;7.63999998071085;765;1 A
19.5454449506525;-0.499786376953125;-0.00516662597656251;7.64999998068561;766;1 A
19.5554449506272;-0.4998779296875;-0.005157470703125;7.65999998066036;767;1 A
19.565444950602;-0.499786376953125;-0.00516357421874999;7.66999998063511;768;1 A
19.5754449505768;-0.499786376953125;-0.005157470703125;7.67999998060986;769;1 A
19.5854449505515;-0.49981689453125;-0.00516662597656251;7.68999998058462;770;1 A
19.5954449505263;-0.499847412109375;-0.0051605224609375;7.69999998055937;771;1 A
19.605444950501;-0.499786376953125;-0.0051605224609375;7.70999998053412;772;1 A
19.6154449504758;-0.499786376953125;-0.00516662597656251;7.71999998050887;773;1 A
19.6254449504505;-0.499847412109375;-0.00516357421874999;7.72999998048363;774;1 A
19.6354449504253;-0.499847412109375;-0.00517883300781249;7.73999998045838;775;1 A
19.6454449504;-0.499755859375;-0.0051849365234375;7.74999998043313;776;1 A
19.6554449503748;-0.499847412109375;-0.0051849365234375;7.75999998040788;777;1 A
19.6654449503495;-0.499755859375;-0.00519714355468751;7.76999998038264;778;1 A
19.6754449503243;-0.4998779296875;-0.00518798828125;7.77999998035739;779;1 A
19.685444950299;-0.499725341796875;-0.0052032470703125;7.78999998033214;780;1 A
19.6954449502738;-0.499786376953125;-0.0052001953125;7.79999998030689;781;1 A
19.7054449502485;-0.499786376953125;-0.00519714355468751;7.80999998028165;782;1 A
19.7154449502233;-0.499908447265625;-0.00519714355468751;7.8199999802564;783;1 A
19.725444950198;-0.49981689453125;-0.00519714355468751;7.82999998023115;784;1 A
19.7354449501728;-0.499725341796875;-0.005206298828125;7.8399999802059;785;1 A
19.7454449501475;-0.499847412109375;-0.0052032470703125;7.84999998018066;786;1 A
19.7554449501223;-0.499847412109375;-0.00519714355468751;7.85999998015541;787;1 A
19.765444950097;-0.49981689453125;-0.005206298828125;7.86999998013016;788;1 A
19.7754449500718;-0.49981689453125;-0.005206298828125;7.87999998010491;789;1 A
19.7854449500466;-0.49981689453125;-0.0052154541015625;7.88999998007966;790;1 A
19.7954449500213;-0.499847412109375;-0.005218505859375;7.89999998005442;791;1 A
19.8054449499961;-0.499786376953125;-0.00522460937499999;7.90999998002917;792;1 A
19.8154449499708;-0.499786376953125;-0.0052337646484375;7.91999998000392;793;1 A
19.8254449499456;-0.499755859375;-0.005230712890625;7.92999997997867;794;1 A
19.8354449499203;-0.499908447265625;-0.0052337646484375;7.93999997995343;795;1 A
19.8454449498951;-0.499847412109375;-0.00523681640625;7.94999997992818;796;1 A
19.8554449498698;-0.499847412109375;-0.005230712890625;7.95999997990293;797;1 A
19.8654449498446;-0.49981689453125;-0.00523681640625;7.96999997987768;798;1 A
19.8754449498193;-0.4998779296875;-0.00522766113281251;7.97999997985244;799;1 A
19.8854449497941;-0.499755859375;-0.0052459716796875;7.98999997982719;800;1 A
19.8954449497688;-0.499786376953125;-0.0052490234375;7.99999997980194;801;1 A
19.9054449497436;-0.499786376953125;-0.0052459716796875;8.00999997977669;802;1 A
19.9154449497183;-0.4998779296875;-0.0052459716796875;8.01999997975145;803;1 A
19.9254449496931;-0.499847412109375;-0.00524291992187501;8.0299999797262;804;1 A
19.9354449496678;-0.499786376953125;-0.0052490234375;8.03999997970095;805;1 A
19.9454449496426;-0.49981689453125;-0.00523986816406249;8.0499999796757;806;1 A
19.9554449496173;-0.4998779296875;-0.0052337646484375;8.05999997965046;807;1 A
19.9654449495921;-0.499847412109375;-0.0052337646484375;8.06999997962521;808;1 A
19.9754449495668;-0.499786376953125;-0.005230712890625;8.07999997959996;809;1 A
19.9854449495416;-0.499786376953125;-0.00523986816406249;8.08999997957471;810;1 A
19.9954449495164;-0.499847412109375;-0.00522766113281251;8.09999997954947;811;1 A
20.0054449494911;-0.499755859375;-0.00522766113281251;8.10999997952422;812;1 A
20.0154449494659;-0.499786376953125;-0.005230712890625;8.11999997949897;813;1 A
20.0254449494406;-0.499786376953125;-0.00522766113281251;8.12999997947372;814;1 A
20.0354449494154;-0.4998779296875;-0.0052337646484375;8.13999997944848;815;1 A
20.0454449493901;-0.499786376953125;-0.0052337646484375;8.14999997942323;816;1 A
20.0554449493649;-0.49981689453125;-0.00522766113281251;8.15999997939798;817;1 A
20.0654449493396;-0.49981689453125;-0.0052337646484375;8.16999997937273;818;1 A
20.0754449493144;-0.499908447265625;-0.005230712890625;8.17999997934749;819;1 A
20.0854449492891;-0.499786376953125;-0.0052459716796875;8.18999997932224;820;1 A
20.0954449492639;-0.499786376953125;-0.0052459716796875;8.19999997929699;821;1 A
20.1054449492386;-0.49981689453125;-0.0052459716796875;8.20999997927174;822;1 A
20.1154449492134;-0.499847412109375;-0.0052520751953125;8.2199999792465;823;1 A
20.1254449491881;-0.499786376953125;-0.0052520751953125;8.22999997922125;824;1 A
20.1354449491629;-0.49981689453125;-0.0052642822265625;8.239999979196;825;1 A
20.1454449491376;-0.499847412109375;-0.005267333984375;8.24999997917075;826;1 A
20.1554449491124;-0.499847412109375;-0.00526123046875;8.2599999791455;827;1 A
20.1654449490871;-0.499786376953125;-0.00527038574218749;8.26999997912026;828;1 A
20.1754449490619;-0.49981689453125;-0.00527343750000001;8.27999997909501;829;1 A
20.1854449490367;-0.499847412109375;-0.00528869628906251;8.28999997906976;830;1 A
20.1954449490114;-0.499908447265625;-0.005291748046875;8.29999997904451;831;1 A
20.2054449489862;-0.49981689453125;-0.005291748046875;8.30999997901927;832;1 A
20.2154449489609;-0.499847412109375;-0.0053070068359375;8.31999997899402;833;1 A
20.2254449489357;-0.49981689453125;-0.0053070068359375;8.32999997896877;834;1 A
20.2354449489104;-0.499847412109375;-0.0053131103515625;8.33999997894352;835;1 A
20.2454449488852;-0.499786376953125;-0.00531616210937499;8.34999997891828;836;1 A
20.2554449488599;-0.499847412109375;-0.00531921386718751;8.35999997889303;837;1 A
20.2654449488347;-0.49981689453125;-0.0053253173828125;8.36999997886778;838;1 A
20.2754449488094;-0.499908447265625;-0.005322265625;8.37999997884253;839;1 A
20.2854449487842;-0.499786376953125;-0.005340576171875;8.38999997881729;840;1 A
20.2954449487589;-0.499786376953125;-0.00534973144531251;8.39999997879204;841;1 A
20.3054449487337;-0.49981689453125;-0.0053436279296875;8.40999997876679;842;1 A
20.3154449487084;-0.499847412109375;-0.00534667968749999;8.41999997874154;843;1 A
20.3254449486832;-0.4998779296875;-0.00534667968749999;8.4299999787163;844;1 A
20.3354449486579;-0.49981689453125;-0.00535888671875;8.43999997869105;845;1 A
20.3454449486327;-0.499847412109375;-0.00534973144531251;8.4499999786658;846;1 A
20.3554449486074;-0.499847412109375;-0.00534973144531251;8.45999997864055;847;1 A
20.3654449485822;-0.4998779296875;-0.00535888671875;8.46999997861531;848;1 A
20.3754449485569;-0.499847412109375;-0.00535888671875;8.47999997859006;849;1 A
20.3854449485317;-0.49981689453125;-0.0053680419921875;8.48999997856481;850;1 A
20.3954449485065;-0.4998779296875;-0.00537109375;8.49999997853956;851;1 A
20.4054449484812;-0.499786376953125;-0.0053741455078125;8.50999997851432;852;1 A
20.415444948456;-0.49981689453125;-0.00539550781250001;8.51999997848907;853;1 A
20.4254449484307;-0.49981689453125;-0.0053985595703125;8.52999997846382;854;1 A
20.4354449484055;-0.499847412109375;-0.005419921875;8.53999997843857;855;1 A
20.4454449483802;-0.49981689453125;-0.0054351806640625;8.54999997841333;856;1 A
20.455444948355;-0.499847412109375;-0.00543823242187499;8.55999997838808;857;1 A
20.4654449483297;-0.49981689453125;-0.00545349121093749;8.56999997836283;858;1 A
20.4754449483045;-0.4998779296875;-0.0054443359375;8.57999997833758;859;1 A
20.4854449482792;-0.49981689453125;-0.00545349121093749;8.58999997831233;860;1 A
20.495444948254;-0.499786376953125;-0.00544128417968751;8.59999997828709;861;1 A
20.5054449482287;-0.499786376953125;-0.0054290771484375;8.60999997826184;862;1 A
20.5154449482035;-0.49993896484375;-0.00542602539062501;8.61999997823659;863;1 A
20.5254449481782;-0.49981689453125;-0.0054168701171875;8.62999997821134;864;1 A
20.535444948153;-0.499755859375;-0.0054168701171875;8.6399999781861;865;1 A
20.5454449481277;-0.49981689453125;-0.00541076660156251;8.64999997816085;866;1 A
20.5554449481025;-0.49981689453125;-0.00539550781250001;8.6599999781356;867;1 A
20.5654449480772;-0.49981689453125;-0.00539550781250001;8.66999997811035;868;1 A
20.575444948052;-0.499786376953125;-0.005389404296875;8.67999997808511;869;1 A
20.5854449480267;-0.499786376953125;-0.00539245605468749;8.68999997805986;870;1 A
20.5954449480015;-0.499847412109375;-0.00539550781250001;8.69999997803461;871;1 A
20.6054449479763;-0.49981689453125;-0.00539245605468749;8.70999997800936;872;1 A
20.615444947951;-0.499786376953125;-0.00539245605468749;8.71999997798412;873;1 A
20.6254449479258;-0.499786376953125;-0.00538330078125;8.72999997795887;874;1 A
20.6354449479005;-0.49993896484375;-0.00538330078125;8.73999997793362;875;1 A
20.6454449478753;-0.49981689453125;-0.00538024902343751;8.74999997790837;876;1 A
20.65544494785;-0.49969482421875;-0.0053741455078125;8.75999997788313;877;1 A
20.6654449478248;-0.499786376953125;-0.00537109375;8.76999997785788;878;1 A
20.6754449477995;-0.499847412109375;-0.0053558349609375;8.77999997783263;879;1 A
20.6854449477743;-0.499847412109375;-0.0053558349609375;8.78999997780738;880;1 A
20.695444947749;-0.499786376953125;-0.00534973144531251;8.79999997778214;881;1 A
20.7054449477238;-0.49981689453125;-0.0053375244140625;8.80999997775689;882;1 A
20.7154449476985;-0.499847412109375;-0.0053253173828125;8.81999997773164;883;1 A
20.7254449476733;-0.499755859375;-0.00531616210937499;8.82999997770639;884;1 A
20.735444947648;-0.499786376953125;-0.00531921386718751;8.83999997768115;885;1 A
20.7454449476228;-0.49981689453125;-0.00530090332031249;8.8499999776559;886;1 A
20.7554449475975;-0.4998779296875;-0.00528869628906251;8.85999997763065;887;1 A
20.7654449475723;-0.499755859375;-0.0052947998046875;8.8699999776054;888;1 A
20.775444947547;-0.499755859375;-0.00528564453124999;8.87999997758016;889;1 A
20.7854449475218;-0.499786376953125;-0.005291748046875;8.88999997755491;890;1 A
20.7954449474965;-0.49981689453125;-0.00528564453124999;8.89999997752966;891;1 A
20.8054449474713;-0.499847412109375;-0.0052764892578125;8.90999997750441;892;1 A
20.8154449474461;-0.49981689453125;-0.0052825927734375;8.91999997747916;893;1 A
20.8254449474208;-0.49981689453125;-0.005267333984375;8.92999997745392;894;1 A
20.8354449473956;-0.49981689453125;-0.00527343750000001;8.93999997742867;895;1 A
20.8454449473703;-0.49981689453125;-0.005267333984375;8.94999997740342;896;1 A
20.8554449473451;-0.4998779296875;-0.0052490234375;8.95999997737817;897;1 A
20.8654449473198;-0.499847412109375;-0.0052490234375;8.96999997735293;898;1 A
20.8754449472946;-0.499847412109375;-0.00522766113281251;8.97999997732768;899;1 A
20.8854449472693;-0.499847412109375;-0.005230712890625;8.98999997730243;900;1 A
20.8954449472441;-0.499786376953125;-0.0052215576171875;8.99999997727718;901;1 A
20.9054449472188;-0.499725341796875;-0.00520935058593749;9.00999997725194;902;1 A
20.9154449471936;-0.4998779296875;-0.00520935058593749;9.01999997722669;903;1 A
20.9254449471683;-0.499847412109375;-0.0052032470703125;9.02999997720144;904;1 A
20.9354449471431;-0.499847412109375;-0.00520935058593749;9.03999997717619;905;1 A
20.9454449471178;-0.49981689453125;-0.00521240234375001;9.04999997715095;906;1 A
20.9554449470926;-0.49981689453125;-0.005206298828125;9.0599999771257;907;1 A
20.9654449470673;-0.499786376953125;-0.00521240234375001;9.06999997710045;908;1 A
20.9754449470421;-0.49981689453125;-0.005206298828125;9.0799999770752;909;1 A
20.9854449470168;-0.49981689453125;-0.00521240234375001;9.08999997704996;910;1 A
20.9954449469916;-0.499908447265625;-0.005206298828125;9.09999997702471;911;1 A
21.0054449469663;-0.499786376953125;-0.00519714355468751;9.10999997699946;912;1 A
21.0154449469411;-0.499755859375;-0.00519714355468751;9.11999997697421;913;1 A
21.0254449469159;-0.49981689453125;-0.0051910400390625;9.12999997694897;914;1 A
21.0354449468906;-0.49981689453125;-0.0051910400390625;9.13999997692372;915;1 A
21.0454449468654;-0.49981689453125;-0.00518798828125;9.14999997689847;916;1 A
21.0554449468401;-0.49981689453125;-0.00517578125;9.15999997687322;917;1 A
21.0654449468149;-0.499786376953125;-0.00517883300781249;9.16999997684798;918;1 A
21.0754449467896;-0.499847412109375;-0.00517578125;9.17999997682273;919;1 A
21.0854449467644;-0.499755859375;-0.0051849365234375;9.18999997679748;920;1 A
21.0954449467391;-0.499786376953125;-0.00518188476562501;9.19999997677223;921;1 A
21.1054449467139;-0.499786376953125;-0.00518188476562501;9.20999997674699;922;1 A
21.1154449466886;-0.499847412109375;-0.00517578125;9.21999997672174;923;1 A
21.1254449466634;-0.4998779296875;-0.005169677734375;9.22999997669649;924;1 A
21.1354449466381;-0.499725341796875;-0.00518188476562501;9.23999997667124;925;1 A
21.1454449466129;-0.49981689453125;-0.00517883300781249;9.249999976646;926;1 A
21.1554449465876;-0.49981689453125;-0.0051727294921875;9.25999997662075;927;1 A
21.1654449465624;-0.49981689453125;-0.00517883300781249;9.2699999765955;928;1 A
21.1754449465371;-0.49981689453125;-0.00517578125;9.27999997657025;929;1 A
21.1854449465119;-0.499847412109375;-0.00517883300781249;9.289999976545;930;1 A
21.1954449464866;-0.49981689453125;-0.00516662597656251;9.29999997651976;931;1 A
21.2054449464614;-0.499725341796875;-0.005157470703125;9.30999997649451;932;1 A
21.2154449464362;-0.49981689453125;-0.00516357421874999;9.31999997646926;933;1 A
21.2254449464109;-0.49981689453125;-0.00514831542968749;9.32999997644401;934;1 A
21.2354449463857;-0.4998779296875;-0.00516357421874999;9.33999997641877;935;1 A
21.2454449463604;-0.49981689453125;-0.0051605224609375;9.34999997639352;936;1 A
21.2554449463352;-0.499755859375;-0.0051544189453125;9.35999997636827;937;1 A
21.2654449463099;-0.499786376953125;-0.00516357421874999;9.36999997634302;938;1 A
21.2754449462847;-0.49981689453125;-0.00514831542968749;9.37999997631778;939;1 A
21.2854449462594;-0.4998779296875;-0.005157470703125;9.38999997629253;940;1 A
21.2954449462342;-0.49981689453125;-0.00514831542968749;9.39999997626728;941;1 A
21.3054449462089;-0.499786376953125;-0.00513305664062499;9.40999997624203;942;1 A
21.3154449461837;-0.499847412109375;-0.0051300048828125;9.41999997621679;943;1 A
21.3254449461584;-0.49981689453125;-0.0051116943359375;9.42999997619154;944;1 A
21.3354449461332;-0.49981689453125;-0.00510559082031251;9.43999997616629;945;1 A
21.3454449461079;-0.499847412109375;-0.005096435546875;9.44999997614104;946;1 A
21.3554449460827;-0.499847412109375;-0.00507507324218751;9.4599999761158;947;1 A
21.3654449460574;-0.499786376953125;-0.00507507324218751;9.46999997609055;948;1 A
21.3754449460322;-0.49981689453125;-0.0050689697265625;9.4799999760653;949;1 A
21.3854449460069;-0.4998779296875;-0.00507507324218751;9.48999997604005;950;1 A
21.3954449459817;-0.49981689453125;-0.0050811767578125;9.49999997601481;951;1 A
21.4054449459564;-0.499847412109375;-0.005078125;9.50999997598956;952;1 A
21.4154449459312;-0.49981689453125;-0.0050933837890625;9.51999997596431;953;1 A
21.425444945906;-0.49981689453125;-0.0050933837890625;9.52999997593906;954;1 A
21.4354449458807;-0.499847412109375;-0.0050994873046875;9.53999997591382;955;1 A
21.4454449458555;-0.499755859375;-0.00510253906249999;9.54999997588857;956;1 A
21.4554449458302;-0.49981689453125;-0.00510253906249999;9.55999997586332;957;1 A
21.465444945805;-0.499847412109375;-0.005108642578125;9.56999997583807;958;1 A
21.4754449457797;-0.499847412109375;-0.00510559082031251;9.57999997581283;959;1 A
21.4854449457545;-0.4998779296875;-0.00511779785156249;9.58999997578758;960;1 A
21.4954449457292;-0.499755859375;-0.00511474609375;9.59999997576233;961;1 A
21.505444945704;-0.499847412109375;-0.0051116943359375;9.60999997573708;962;1 A
21.5154449456787;-0.499786376953125;-0.00511779785156249;9.61999997571183;963;1 A
21.5254449456535;-0.4998779296875;-0.00511474609375;9.62999997568659;964;1 A
21.5354449456282;-0.49981689453125;-0.00512084960937501;9.63999997566134;965;1 A
21.545444945603;-0.49981689453125;-0.00511474609375;9.64999997563609;966;1 A
21.5554449455777;-0.49981689453125;-0.00510559082031251;9.65999997561084;967;1 A
21.5654449455525;-0.499786376953125;-0.00510559082031251;9.6699999755856;968;1 A
21.5754449455272;-0.499847412109375;-0.005096435546875;9.67999997556035;969;1 A
21.585444945502;-0.499755859375;-0.00510253906249999;9.6899999755351;970;1 A
21.5954449454767;-0.499847412109375;-0.0050994873046875;9.69999997550985;971;1 A
21.6054449454515;-0.499786376953125;-0.005096435546875;9.70999997548461;972;1 A
21.6154449454262;-0.499786376953125;-0.00510559082031251;9.71999997545936;973;1 A
21.625444945401;-0.499786376953125;-0.0050994873046875;9.72999997543411;974;1 A
21.6354449453758;-0.499786376953125;-0.0051116943359375;9.73999997540886;975;1 A
21.6454449453505;-0.499847412109375;-0.00511779785156249;9.74999997538362;976;1 A
21.6554449453253;-0.499847412109375;-0.00512084960937501;9.75999997535837;977;1 A
21.6654449453;-0.49981689453125;-0.0051300048828125;9.76999997533312;978;1 A
21.6754449452748;-0.4998779296875;-0.0051239013671875;9.77999997530787;979;1 A
21.6854449452495;-0.499755859375;-0.00513305664062499;9.78999997528263;980;1 A
21.6954449452243;-0.49981689453125;-0.00513305664062499;9.79999997525738;981;1 A
21.705444945199;-0.49981689453125;-0.005126953125;9.80999997523213;982;1 A
21.7154449451738;-0.4998779296875;-0.00513305664062499;9.81999997520688;983;1 A
21.7254449451485;-0.499786376953125;-0.005126953125;9.82999997518164;984;1 A
21.7354449451233;-0.49981689453125;-0.00513916015625;9.83999997515639;985;1 A
21.745444945098;-0.499847412109375;-0.00514831542968749;9.84999997513114;986;1 A
21.7554449450728;-0.49981689453125;-0.00513916015625;9.85999997510589;987;1 A
21.7654449450475;-0.49981689453125;-0.00515136718750001;9.86999997508065;988;1 A
21.7754449450223;-0.49981689453125;-0.0051544189453125;9.8799999750554;989;1 A
21.785444944997;-0.499786376953125;-0.005157470703125;9.88999997503015;990;1 A
21.7954449449718;-0.499847412109375;-0.0051605224609375;9.8999999750049;991;1 A
21.8054449449465;-0.499755859375;-0.00514831542968749;9.90999997497966;992;1 A
21.8154449449213;-0.499786376953125;-0.00515136718750001;9.91999997495441;993;1 A
21.825444944896;-0.499786376953125;-0.00513916015625;9.92999997492916;994;1 A
21.8354449448708;-0.49993896484375;-0.0051300048828125;9.93999997490391;995;1 A
21.8454449448456;-0.499755859375;-0.00512084960937501;9.94999997487866;996;1 A
21.8554449448203;-0.499725341796875;-0.0051116943359375;9.95999997485342;997;1 A
21.8654449447951;-0.499847412109375;-0.00511474609375;9.96999997482817;998;1 A
21.8754449447698;-0.49981689453125;-0.0051116943359375;9.97999997480292;999;1 A
21.8854449447446;-0.49981689453125;-0.00511779785156249;9.98999997477767;1000;1 A
