Time (s);WE(1).Potential (V);WE(1).Current (A);Corrected time (s);Index;Current range
23.2587449412773;-0.599761962890625;-0.00780639648437501;0;1;1 A
23.2687449412521;-0.59979248046875;-0.00689697265625;0.00999999997475243;2;1 A
23.2787449412268;-0.5997314453125;-0.00647583007812499;0.0199999999495049;3;1 A
23.2887449412016;-0.5997314453125;-0.00623168945312499;0.0299999999242573;4;1 A
23.2987449411763;-0.599761962890625;-0.0060546875;0.0399999998990097;5;1 A
23.3087449411511;-0.599700927734375;-0.005950927734375;0.0499999998737621;6;1 A
23.3187449411258;-0.599822998046875;-0.00585021972656249;0.0599999998485146;7;1 A
23.3287449411006;-0.599822998046875;-0.00577697753906251;0.069999999823267;8;1 A
23.3387449410753;-0.59979248046875;-0.005718994140625;0.0799999997980194;9;1 A
23.3487449410501;-0.5997314453125;-0.005645751953125;0.0899999997727718;10;1 A
23.3587449410248;-0.599822998046875;-0.00562438964843751;0.0999999997475243;11;1 A
23.3687449409996;-0.599822998046875;-0.00557556152343749;0.109999999722277;12;1 A
23.3787449409743;-0.599761962890625;-0.0055511474609375;0.119999999697029;13;1 A
23.3887449409491;-0.599761962890625;-0.00553283691406251;0.129999999671782;14;1 A
23.3987449409238;-0.599761962890625;-0.00550231933593751;0.139999999646534;15;1 A
23.4087449408986;-0.599761962890625;-0.00549926757812499;0.149999999621286;16;1 A
23.4187449408734;-0.599761962890625;-0.005474853515625;0.159999999596039;17;1 A
23.4287449408481;-0.5997314453125;-0.005450439453125;0.169999999570791;18;1 A
23.4387449408229;-0.59979248046875;-0.00543823242187499;0.179999999545544;19;1 A
23.4487449407976;-0.599761962890625;-0.0054168701171875;0.189999999520296;20;1 A
23.4587449407724;-0.599761962890625;-0.00543212890625;0.199999999495049;21;1 A
23.4687449407471;-0.599761962890625;-0.00542602539062501;0.209999999469801;22;1 A
23.4787449407219;-0.599761962890625;-0.0054168701171875;0.219999999444553;23;1 A
23.4887449406966;-0.5997314453125;-0.0054168701171875;0.229999999419306;24;1 A
23.4987449406714;-0.599822998046875;-0.0053985595703125;0.239999999394058;25;1 A
23.5087449406461;-0.599761962890625;-0.005401611328125;0.249999999368811;26;1 A
23.5187449406209;-0.5997314453125;-0.00538024902343751;0.259999999343563;27;1 A
23.5287449405956;-0.599700927734375;-0.0053741455078125;0.269999999318316;28;1 A
23.5387449405704;-0.59979248046875;-0.00537719726562499;0.279999999293068;29;1 A
23.5487449405451;-0.5997314453125;-0.0053741455078125;0.28999999926782;30;1 A
23.5587449405199;-0.599761962890625;-0.00538330078125;0.299999999242573;31;1 A
23.5687449404946;-0.599761962890625;-0.0053741455078125;0.309999999217325;32;1 A
23.5787449404694;-0.5997314453125;-0.00536499023437501;0.319999999192078;33;1 A
23.5887449404441;-0.599761962890625;-0.00536499023437501;0.32999999916683;34;1 A
23.5987449404189;-0.599761962890625;-0.00534973144531251;0.339999999141583;35;1 A
23.6087449403936;-0.59979248046875;-0.00536193847656249;0.349999999116335;36;1 A
23.6187449403684;-0.599761962890625;-0.00535888671875;0.359999999091087;37;1 A
23.6287449403432;-0.5997314453125;-0.00536193847656249;0.36999999906584;38;1 A
23.6387449403179;-0.5997314453125;-0.00537109375;0.379999999040592;39;1 A
23.6487449402927;-0.59979248046875;-0.00536193847656249;0.389999999015345;40;1 A
23.6587449402674;-0.59979248046875;-0.00538024902343751;0.399999998990097;41;1 A
23.6687449402422;-0.5997314453125;-0.0053680419921875;0.40999999896485;42;1 A
23.6787449402169;-0.59979248046875;-0.00536499023437501;0.419999998939602;43;1 A
23.6887449401917;-0.59979248046875;-0.00537719726562499;0.429999998914354;44;1 A
23.6987449401664;-0.599761962890625;-0.00537719726562499;0.439999998889107;45;1 A
23.7087449401412;-0.59979248046875;-0.00539550781250001;0.449999998863859;46;1 A
23.7187449401159;-0.599700927734375;-0.0053985595703125;0.459999998838612;47;1 A
23.7287449400907;-0.5997314453125;-0.005389404296875;0.469999998813364;48;1 A
23.7387449400654;-0.59979248046875;-0.00539245605468749;0.479999998788116;49;1 A
23.7487449400402;-0.5997314453125;-0.00537719726562499;0.489999998762869;50;1 A
23.7587449400149;-0.59979248046875;-0.00539245605468749;0.499999998737621;51;1 A
23.7687449399897;-0.599761962890625;-0.005389404296875;0.509999998712374;52;1 A
23.7787449399644;-0.599700927734375;-0.00539245605468749;0.519999998687126;53;1 A
23.7887449399392;-0.599822998046875;-0.00541076660156251;0.529999998661879;54;1 A
23.7987449399139;-0.599761962890625;-0.00540771484374999;0.539999998636631;55;1 A
23.8087449398887;-0.599761962890625;-0.00542602539062501;0.549999998611383;56;1 A
23.8187449398634;-0.5997314453125;-0.005419921875;0.559999998586136;57;1 A
23.8287449398382;-0.59979248046875;-0.00541076660156251;0.569999998560888;58;1 A
23.838744939813;-0.5997314453125;-0.005413818359375;0.579999998535641;59;1 A
23.8487449397877;-0.599700927734375;-0.0053985595703125;0.589999998510393;60;1 A
23.8587449397625;-0.599761962890625;-0.005413818359375;0.599999998485146;61;1 A
23.8687449397372;-0.5997314453125;-0.00540771484374999;0.609999998459898;62;1 A
23.878744939712;-0.59979248046875;-0.00539245605468749;0.61999999843465;63;1 A
23.8887449396867;-0.59979248046875;-0.0053985595703125;0.629999998409403;64;1 A
23.8987449396615;-0.599761962890625;-0.0053863525390625;0.639999998384155;65;1 A
23.9087449396362;-0.5997314453125;-0.005401611328125;0.649999998358908;66;1 A
23.918744939611;-0.5997314453125;-0.0053863525390625;0.65999999833366;67;1 A
23.9287449395857;-0.5997314453125;-0.00538330078125;0.669999998308413;68;1 A
23.9387449395605;-0.599761962890625;-0.0053985595703125;0.679999998283165;69;1 A
23.9487449395352;-0.599761962890625;-0.00539245605468749;0.689999998257917;70;1 A
23.95874493951;-0.5997314453125;-0.00541076660156251;0.69999999823267;71;1 A
23.9687449394847;-0.599700927734375;-0.0054046630859375;0.709999998207422;72;1 A
23.9787449394595;-0.599761962890625;-0.005401611328125;0.719999998182175;73;1 A
23.9887449394342;-0.599761962890625;-0.005401611328125;0.729999998156927;74;1 A
23.998744939409;-0.599761962890625;-0.00539245605468749;0.73999999813168;75;1 A
24.0087449393837;-0.59979248046875;-0.0054046630859375;0.749999998106432;76;1 A
24.0187449393585;-0.5997314453125;-0.005401611328125;0.759999998081184;77;1 A
24.0287449393333;-0.599700927734375;-0.0053985595703125;0.769999998055937;78;1 A
24.038744939308;-0.599761962890625;-0.0054046630859375;0.779999998030689;79;1 A
24.0487449392828;-0.599761962890625;-0.0053985595703125;0.789999998005442;80;1 A
24.0587449392575;-0.599761962890625;-0.005413818359375;0.799999997980194;81;1 A
24.0687449392323;-0.599761962890625;-0.0053985595703125;0.809999997954947;82;1 A
24.078744939207;-0.59979248046875;-0.00539245605468749;0.819999997929699;83;1 A
24.0887449391818;-0.59979248046875;-0.0053985595703125;0.829999997904451;84;1 A
24.0987449391565;-0.599761962890625;-0.0053985595703125;0.839999997879204;85;1 A
24.1087449391313;-0.59967041015625;-0.00541076660156251;0.849999997853956;86;1 A
24.118744939106;-0.5997314453125;-0.005401611328125;0.859999997828709;87;1 A
24.1287449390808;-0.599700927734375;-0.005389404296875;0.869999997803461;88;1 A
24.1387449390555;-0.5997314453125;-0.005389404296875;0.879999997778214;89;1 A
24.1487449390303;-0.59979248046875;-0.00536499023437501;0.889999997752966;90;1 A
24.158744939005;-0.599700927734375;-0.00537109375;0.899999997727718;91;1 A
24.1687449389798;-0.599700927734375;-0.00535888671875;0.909999997702471;92;1 A
24.1787449389545;-0.599761962890625;-0.005352783203125;0.919999997677223;93;1 A
24.1887449389293;-0.5997314453125;-0.0053558349609375;0.929999997651976;94;1 A
24.198744938904;-0.599761962890625;-0.0053436279296875;0.939999997626728;95;1 A
24.2087449388788;-0.5997314453125;-0.0053558349609375;0.949999997601481;96;1 A
24.2187449388535;-0.599700927734375;-0.00533447265625001;0.959999997576233;97;1 A
24.2287449388283;-0.59979248046875;-0.00531616210937499;0.969999997550985;98;1 A
24.2387449388031;-0.5997314453125;-0.00531921386718751;0.979999997525738;99;1 A
24.2487449387778;-0.599822998046875;-0.00530090332031249;0.98999999750049;100;1 A
24.2587449387526;-0.59979248046875;-0.005322265625;0.999999997475243;101;1 A
24.2687449387273;-0.599761962890625;-0.005322265625;1.00999999745;102;1 A
24.2787449387021;-0.599700927734375;-0.0053131103515625;1.01999999742475;103;1 A
24.2887449386768;-0.5997314453125;-0.0053131103515625;1.0299999973995;104;1 A
24.2987449386516;-0.599761962890625;-0.0052947998046875;1.03999999737425;105;1 A
24.3087449386263;-0.59967041015625;-0.0052947998046875;1.049999997349;106;1 A
24.3187449386011;-0.599761962890625;-0.005267333984375;1.05999999732376;107;1 A
24.3287449385758;-0.599761962890625;-0.0052490234375;1.06999999729851;108;1 A
24.3387449385506;-0.5997314453125;-0.00524291992187501;1.07999999727326;109;1 A
24.3487449385253;-0.59979248046875;-0.005218505859375;1.08999999724801;110;1 A
24.3587449385001;-0.599761962890625;-0.0052215576171875;1.09999999722277;111;1 A
24.3687449384748;-0.5997314453125;-0.00519714355468751;1.10999999719752;112;1 A
24.3787449384496;-0.599700927734375;-0.00518188476562501;1.11999999717227;113;1 A
24.3887449384243;-0.59979248046875;-0.00516662597656251;1.12999999714702;114;1 A
24.3987449383991;-0.5997314453125;-0.00515136718750001;1.13999999712178;115;1 A
24.4087449383738;-0.5997314453125;-0.005157470703125;1.14999999709653;116;1 A
24.4187449383486;-0.5997314453125;-0.00515136718750001;1.15999999707128;117;1 A
24.4287449383233;-0.599761962890625;-0.005145263671875;1.16999999704603;118;1 A
24.4387449382981;-0.599761962890625;-0.00515136718750001;1.17999999702079;119;1 A
24.4487449382729;-0.599853515625;-0.00513916015625;1.18999999699554;120;1 A
24.4587449382476;-0.599761962890625;-0.00515136718750001;1.19999999697029;121;1 A
24.4687449382224;-0.59979248046875;-0.00513305664062499;1.20999999694504;122;1 A
24.4787449381971;-0.5997314453125;-0.00512084960937501;1.2199999969198;123;1 A
24.4887449381719;-0.5997314453125;-0.0051239013671875;1.22999999689455;124;1 A
24.4987449381466;-0.59979248046875;-0.0051116943359375;1.2399999968693;125;1 A
24.5087449381214;-0.599761962890625;-0.005126953125;1.24999999684405;126;1 A
24.5187449380961;-0.59979248046875;-0.00511779785156249;1.25999999681881;127;1 A
24.5287449380709;-0.59979248046875;-0.005108642578125;1.26999999679356;128;1 A
24.5387449380456;-0.5997314453125;-0.0051116943359375;1.27999999676831;129;1 A
24.5487449380204;-0.599700927734375;-0.005096435546875;1.28999999674306;130;1 A
24.5587449379951;-0.5997314453125;-0.0051116943359375;1.29999999671782;131;1 A
24.5687449379699;-0.59979248046875;-0.00510559082031251;1.30999999669257;132;1 A
24.5787449379446;-0.599761962890625;-0.005108642578125;1.31999999666732;133;1 A
24.5887449379194;-0.599761962890625;-0.0051239013671875;1.32999999664207;134;1 A
24.5987449378941;-0.599761962890625;-0.00512084960937501;1.33999999661683;135;1 A
24.6087449378689;-0.5997314453125;-0.0051422119140625;1.34999999659158;136;1 A
24.6187449378436;-0.599761962890625;-0.00513916015625;1.35999999656633;137;1 A
24.6287449378184;-0.599761962890625;-0.00513610839843751;1.36999999654108;138;1 A
24.6387449377931;-0.59979248046875;-0.00514831542968749;1.37999999651583;139;1 A
24.6487449377679;-0.5997314453125;-0.005145263671875;1.38999999649059;140;1 A
24.6587449377427;-0.5997314453125;-0.00516357421874999;1.39999999646534;141;1 A
24.6687449377174;-0.5997314453125;-0.005169677734375;1.40999999644009;142;1 A
24.6787449376922;-0.59967041015625;-0.00516357421874999;1.41999999641484;143;1 A
24.6887449376669;-0.599761962890625;-0.0051727294921875;1.4299999963896;144;1 A
24.6987449376417;-0.599761962890625;-0.00516357421874999;1.43999999636435;145;1 A
24.7087449376164;-0.599822998046875;-0.00517578125;1.4499999963391;146;1 A
24.7187449375912;-0.59979248046875;-0.00516662597656251;1.45999999631385;147;1 A
24.7287449375659;-0.5997314453125;-0.00516357421874999;1.46999999628861;148;1 A
24.7387449375407;-0.59979248046875;-0.005169677734375;1.47999999626336;149;1 A
24.7487449375154;-0.599700927734375;-0.00516357421874999;1.48999999623811;150;1 A
24.7587449374902;-0.599761962890625;-0.00518188476562501;1.49999999621286;151;1 A
24.7687449374649;-0.599700927734375;-0.00517578125;1.50999999618762;152;1 A
24.7787449374397;-0.5997314453125;-0.00516357421874999;1.51999999616237;153;1 A
24.7887449374144;-0.599761962890625;-0.00516357421874999;1.52999999613712;154;1 A
24.7987449373892;-0.5997314453125;-0.005145263671875;1.53999999611187;155;1 A
24.8087449373639;-0.599761962890625;-0.0051544189453125;1.54999999608663;156;1 A
24.8187449373387;-0.59979248046875;-0.0051544189453125;1.55999999606138;157;1 A
24.8287449373134;-0.59979248046875;-0.00514831542968749;1.56999999603613;158;1 A
24.8387449372882;-0.59979248046875;-0.00515136718750001;1.57999999601088;159;1 A
24.8487449372629;-0.599700927734375;-0.00513610839843751;1.58999999598564;160;1 A
24.8587449372377;-0.599700927734375;-0.0051544189453125;1.59999999596039;161;1 A
24.8687449372125;-0.59979248046875;-0.00513610839843751;1.60999999593514;162;1 A
24.8787449371872;-0.599761962890625;-0.00513610839843751;1.61999999590989;163;1 A
24.888744937162;-0.599822998046875;-0.00514831542968749;1.62999999588465;164;1 A
24.8987449371367;-0.59979248046875;-0.00514831542968749;1.6399999958594;165;1 A
24.9087449371115;-0.59979248046875;-0.00517578125;1.64999999583415;166;1 A
24.9187449370862;-0.5997314453125;-0.0051727294921875;1.6599999958089;167;1 A
24.928744937061;-0.599761962890625;-0.00516662597656251;1.66999999578366;168;1 A
24.9387449370357;-0.599761962890625;-0.00517578125;1.67999999575841;169;1 A
24.9487449370105;-0.5997314453125;-0.0051605224609375;1.68999999573316;170;1 A
24.9587449369852;-0.599761962890625;-0.00517578125;1.69999999570791;171;1 A
24.96874493696;-0.599761962890625;-0.0051727294921875;1.70999999568267;172;1 A
24.9787449369347;-0.5997314453125;-0.005169677734375;1.71999999565742;173;1 A
24.9887449369095;-0.5997314453125;-0.00518798828125;1.72999999563217;174;1 A
24.9987449368842;-0.599761962890625;-0.005169677734375;1.73999999560692;175;1 A
25.008744936859;-0.599761962890625;-0.00518798828125;1.74999999558167;176;1 A
25.0187449368337;-0.599700927734375;-0.00517578125;1.75999999555643;177;1 A
25.0287449368085;-0.599853515625;-0.0051605224609375;1.76999999553118;178;1 A
25.0387449367832;-0.59979248046875;-0.005169677734375;1.77999999550593;179;1 A
25.048744936758;-0.599700927734375;-0.00516357421874999;1.78999999548068;180;1 A
25.0587449367328;-0.59979248046875;-0.0051910400390625;1.79999999545544;181;1 A
25.0687449367075;-0.5997314453125;-0.00519409179687499;1.80999999543019;182;1 A
25.0787449366823;-0.59979248046875;-0.0052001953125;1.81999999540494;183;1 A
25.088744936657;-0.59979248046875;-0.005218505859375;1.82999999537969;184;1 A
25.0987449366318;-0.599761962890625;-0.0052001953125;1.83999999535445;185;1 A
25.1087449366065;-0.599761962890625;-0.0052154541015625;1.8499999953292;186;1 A
25.1187449365813;-0.599700927734375;-0.00521240234375001;1.85999999530395;187;1 A
25.128744936556;-0.5997314453125;-0.0052032470703125;1.8699999952787;188;1 A
25.1387449365308;-0.599700927734375;-0.005218505859375;1.87999999525346;189;1 A
25.1487449365055;-0.59979248046875;-0.0052032470703125;1.88999999522821;190;1 A
25.1587449364803;-0.599761962890625;-0.005218505859375;1.89999999520296;191;1 A
25.168744936455;-0.599700927734375;-0.00521240234375001;1.90999999517771;192;1 A
25.1787449364298;-0.599761962890625;-0.0052032470703125;1.91999999515247;193;1 A
25.1887449364045;-0.59967041015625;-0.0052001953125;1.92999999512722;194;1 A
25.1987449363793;-0.59979248046875;-0.00518188476562501;1.93999999510197;195;1 A
25.208744936354;-0.599761962890625;-0.00519714355468751;1.94999999507672;196;1 A
25.2187449363288;-0.5997314453125;-0.0051910400390625;1.95999999505148;197;1 A
25.2287449363035;-0.59979248046875;-0.00518798828125;1.96999999502623;198;1 A
25.2387449362783;-0.599700927734375;-0.00519409179687499;1.97999999500098;199;1 A
25.248744936253;-0.5997314453125;-0.00518798828125;1.98999999497573;200;1 A
25.2587449362278;-0.599761962890625;-0.005206298828125;1.99999999495049;201;1 A
25.2687449362026;-0.599761962890625;-0.00519409179687499;2.00999999492524;202;1 A
25.2787449361773;-0.599822998046875;-0.00519409179687499;2.01999999489999;203;1 A
25.2887449361521;-0.599761962890625;-0.00520935058593749;2.02999999487474;204;1 A
25.2987449361268;-0.599761962890625;-0.005206298828125;2.0399999948495;205;1 A
25.3087449361016;-0.599700927734375;-0.0052337646484375;2.04999999482425;206;1 A
25.3187449360763;-0.5997314453125;-0.0052337646484375;2.059999994799;207;1 A
25.3287449360511;-0.599761962890625;-0.00522766113281251;2.06999999477375;208;1 A
25.3387449360258;-0.599761962890625;-0.005230712890625;2.0799999947485;209;1 A
25.3487449360006;-0.599822998046875;-0.00520935058593749;2.08999999472326;210;1 A
25.3587449359753;-0.599761962890625;-0.0052215576171875;2.09999999469801;211;1 A
25.3687449359501;-0.599761962890625;-0.00521240234375001;2.10999999467276;212;1 A
25.3787449359248;-0.599761962890625;-0.00521240234375001;2.11999999464751;213;1 A
25.3887449358996;-0.599761962890625;-0.00522460937499999;2.12999999462227;214;1 A
25.3987449358743;-0.5997314453125;-0.0052154541015625;2.13999999459702;215;1 A
25.4087449358491;-0.599761962890625;-0.00523986816406249;2.14999999457177;216;1 A
25.4187449358238;-0.599700927734375;-0.0052337646484375;2.15999999454652;217;1 A
25.4287449357986;-0.599761962890625;-0.00522766113281251;2.16999999452128;218;1 A
25.4387449357733;-0.599761962890625;-0.0052459716796875;2.17999999449603;219;1 A
25.4487449357481;-0.59979248046875;-0.00523986816406249;2.18999999447078;220;1 A
25.4587449357228;-0.599853515625;-0.005267333984375;2.19999999444553;221;1 A
25.4687449356976;-0.599761962890625;-0.00527038574218749;2.20999999442029;222;1 A
25.4787449356724;-0.599761962890625;-0.00527038574218749;2.21999999439504;223;1 A
25.4887449356471;-0.59967041015625;-0.005279541015625;2.22999999436979;224;1 A
25.4987449356219;-0.599761962890625;-0.005267333984375;2.23999999434454;225;1 A
25.5087449355966;-0.599761962890625;-0.005279541015625;2.2499999943193;226;1 A
25.5187449355714;-0.59979248046875;-0.00527343750000001;2.25999999429405;227;1 A
25.5287449355461;-0.5997314453125;-0.00527343750000001;2.2699999942688;228;1 A
25.5387449355209;-0.59979248046875;-0.005291748046875;2.27999999424355;229;1 A
25.5487449354956;-0.599761962890625;-0.0052825927734375;2.28999999421831;230;1 A
25.5587449354704;-0.59979248046875;-0.00531005859375;2.29999999419306;231;1 A
25.5687449354451;-0.59979248046875;-0.00530090332031249;2.30999999416781;232;1 A
25.5787449354199;-0.599761962890625;-0.0052947998046875;2.31999999414256;233;1 A
25.5887449353946;-0.599761962890625;-0.0052947998046875;2.32999999411732;234;1 A
25.5987449353694;-0.599761962890625;-0.0052764892578125;2.33999999409207;235;1 A
25.6087449353441;-0.599700927734375;-0.005291748046875;2.34999999406682;236;1 A
25.6187449353189;-0.599761962890625;-0.0052825927734375;2.35999999404157;237;1 A
25.6287449352936;-0.599761962890625;-0.00527038574218749;2.36999999401633;238;1 A
25.6387449352684;-0.599761962890625;-0.00527038574218749;2.37999999399108;239;1 A
25.6487449352431;-0.599761962890625;-0.0052520751953125;2.38999999396583;240;1 A
25.6587449352179;-0.599700927734375;-0.00525512695312499;2.39999999394058;241;1 A
25.6687449351926;-0.59979248046875;-0.00523681640625;2.40999999391533;242;1 A
25.6787449351674;-0.599700927734375;-0.00522460937499999;2.41999999389009;243;1 A
25.6887449351422;-0.5997314453125;-0.0052337646484375;2.42999999386484;244;1 A
25.6987449351169;-0.599761962890625;-0.0052215576171875;2.43999999383959;245;1 A
25.7087449350917;-0.599761962890625;-0.00523986816406249;2.44999999381434;246;1 A
25.7187449350664;-0.599761962890625;-0.00524291992187501;2.4599999937891;247;1 A
25.7287449350412;-0.59979248046875;-0.00523681640625;2.46999999376385;248;1 A
25.7387449350159;-0.5997314453125;-0.00523681640625;2.4799999937386;249;1 A
25.7487449349907;-0.5997314453125;-0.00522460937499999;2.48999999371335;250;1 A
25.7587449349654;-0.599761962890625;-0.0052337646484375;2.49999999368811;251;1 A
25.7687449349402;-0.599761962890625;-0.00522460937499999;2.50999999366286;252;1 A
25.7787449349149;-0.59979248046875;-0.0052154541015625;2.51999999363761;253;1 A
25.7887449348897;-0.59979248046875;-0.0052154541015625;2.52999999361236;254;1 A
25.7987449348644;-0.599761962890625;-0.00519714355468751;2.53999999358712;255;1 A
25.8087449348392;-0.5997314453125;-0.0052001953125;2.54999999356187;256;1 A
25.8187449348139;-0.59979248046875;-0.00517578125;2.55999999353662;257;1 A
25.8287449347887;-0.5997314453125;-0.0051544189453125;2.56999999351137;258;1 A
25.8387449347634;-0.59979248046875;-0.005145263671875;2.57999999348613;259;1 A
25.8487449347382;-0.59979248046875;-0.005126953125;2.58999999346088;260;1 A
25.8587449347129;-0.599761962890625;-0.0051422119140625;2.59999999343563;261;1 A
25.8687449346877;-0.599700927734375;-0.0051422119140625;2.60999999341038;262;1 A
25.8787449346624;-0.5997314453125;-0.00513305664062499;2.61999999338514;263;1 A
25.8887449346372;-0.599761962890625;-0.00513916015625;2.62999999335989;264;1 A
25.898744934612;-0.599761962890625;-0.00512084960937501;2.63999999333464;265;1 A
25.9087449345867;-0.5997314453125;-0.0051300048828125;2.64999999330939;266;1 A
25.9187449345615;-0.599761962890625;-0.00512084960937501;2.65999999328415;267;1 A
25.9287449345362;-0.5997314453125;-0.005108642578125;2.6699999932589;268;1 A
25.938744934511;-0.59979248046875;-0.0051239013671875;2.67999999323365;269;1 A
25.9487449344857;-0.5997314453125;-0.005108642578125;2.6899999932084;270;1 A
25.9587449344605;-0.59979248046875;-0.005126953125;2.69999999318316;271;1 A
25.9687449344352;-0.599700927734375;-0.00510253906249999;2.70999999315791;272;1 A
25.97874493441;-0.599761962890625;-0.0050811767578125;2.71999999313266;273;1 A
25.9887449343847;-0.599822998046875;-0.005078125;2.72999999310741;274;1 A
25.9987449343595;-0.599761962890625;-0.00505676269531249;2.73999999308217;275;1 A
26.0087449343342;-0.599761962890625;-0.0050689697265625;2.74999999305692;276;1 A
26.018744934309;-0.599822998046875;-0.0050689697265625;2.75999999303167;277;1 A
26.0287449342837;-0.59979248046875;-0.00507202148437499;2.76999999300642;278;1 A
26.0387449342585;-0.599761962890625;-0.0050933837890625;2.77999999298117;279;1 A
26.0487449342332;-0.59979248046875;-0.005084228515625;2.78999999295593;280;1 A
26.058744934208;-0.5997314453125;-0.00510559082031251;2.79999999293068;281;1 A
26.0687449341827;-0.599700927734375;-0.005108642578125;2.80999999290543;282;1 A
26.0787449341575;-0.59979248046875;-0.00510559082031251;2.81999999288018;283;1 A
26.0887449341323;-0.599761962890625;-0.005126953125;2.82999999285494;284;1 A
26.098744934107;-0.599761962890625;-0.00512084960937501;2.83999999282969;285;1 A
26.1087449340818;-0.59979248046875;-0.0051422119140625;2.84999999280444;286;1 A
26.1187449340565;-0.599761962890625;-0.00513305664062499;2.85999999277919;287;1 A
26.1287449340313;-0.599761962890625;-0.0051239013671875;2.86999999275395;288;1 A
26.138744934006;-0.5997314453125;-0.00512084960937501;2.8799999927287;289;1 A
26.1487449339808;-0.599761962890625;-0.0050933837890625;2.88999999270345;290;1 A
26.1587449339555;-0.599700927734375;-0.005096435546875;2.8999999926782;291;1 A
26.1687449339303;-0.599700927734375;-0.005084228515625;2.90999999265296;292;1 A
26.178744933905;-0.59979248046875;-0.00507507324218751;2.91999999262771;293;1 A
26.1887449338798;-0.5997314453125;-0.005084228515625;2.92999999260246;294;1 A
26.1987449338545;-0.599761962890625;-0.0050689697265625;2.93999999257721;295;1 A
26.2087449338293;-0.599853515625;-0.0050811767578125;2.94999999255197;296;1 A
26.218744933804;-0.599700927734375;-0.00507202148437499;2.95999999252672;297;1 A
26.2287449337788;-0.599761962890625;-0.00505981445312501;2.96999999250147;298;1 A
26.2387449337535;-0.5997314453125;-0.0050628662109375;2.97999999247622;299;1 A
26.2487449337283;-0.5997314453125;-0.0050506591796875;2.98999999245098;300;1 A
26.258744933703;-0.5997314453125;-0.0050689697265625;2.99999999242573;301;1 A
26.2687449336778;-0.5997314453125;-0.0050689697265625;3.00999999240048;302;1 A
26.2787449336525;-0.5997314453125;-0.00505981445312501;3.01999999237523;303;1 A
26.2887449336273;-0.599761962890625;-0.00505676269531249;3.02999999234999;304;1 A
26.2987449336021;-0.599761962890625;-0.005035400390625;3.03999999232474;305;1 A
26.3087449335768;-0.599761962890625;-0.00502624511718749;3.04999999229949;306;1 A
26.3187449335516;-0.5997314453125;-0.00501403808593751;3.05999999227424;307;1 A
26.3287449335263;-0.599761962890625;-0.00499877929687501;3.069999992249;308;1 A
26.3387449335011;-0.599822998046875;-0.0050079345703125;3.07999999222375;309;1 A
26.3487449334758;-0.599761962890625;-0.0050018310546875;3.0899999921985;310;1 A
26.3587449334506;-0.5997314453125;-0.00501403808593751;3.09999999217325;311;1 A
26.3687449334253;-0.599761962890625;-0.00501403808593751;3.109999992148;312;1 A
26.3787449334001;-0.59979248046875;-0.00501098632812499;3.11999999212276;313;1 A
26.3887449333748;-0.59979248046875;-0.00501708984375;3.12999999209751;314;1 A
26.3987449333496;-0.59979248046875;-0.00501403808593751;3.13999999207226;315;1 A
26.4087449333243;-0.59967041015625;-0.005035400390625;3.14999999204701;316;1 A
26.4187449332991;-0.59979248046875;-0.00504150390624999;3.15999999202177;317;1 A
26.4287449332738;-0.59979248046875;-0.00504455566406251;3.16999999199652;318;1 A
26.4387449332486;-0.59979248046875;-0.00505676269531249;3.17999999197127;319;1 A
26.4487449332233;-0.599761962890625;-0.00504455566406251;3.18999999194602;320;1 A
26.4587449331981;-0.59979248046875;-0.0050537109375;3.19999999192078;321;1 A
26.4687449331728;-0.599761962890625;-0.005035400390625;3.20999999189553;322;1 A
26.4787449331476;-0.59979248046875;-0.005023193359375;3.21999999187028;323;1 A
26.4887449331223;-0.5997314453125;-0.00502929687500001;3.22999999184503;324;1 A
26.4987449330971;-0.599761962890625;-0.00501708984375;3.23999999181979;325;1 A
26.5087449330719;-0.5997314453125;-0.005035400390625;3.24999999179454;326;1 A
26.5187449330466;-0.5997314453125;-0.00504150390624999;3.25999999176929;327;1 A
26.5287449330214;-0.599761962890625;-0.005035400390625;3.26999999174404;328;1 A
26.5387449329961;-0.59979248046875;-0.0050506591796875;3.2799999917188;329;1 A
26.5487449329709;-0.599761962890625;-0.0050384521484375;3.28999999169355;330;1 A
26.5587449329456;-0.59979248046875;-0.00505676269531249;3.2999999916683;331;1 A
26.5687449329204;-0.599761962890625;-0.0050628662109375;3.30999999164305;332;1 A
26.5787449328951;-0.599700927734375;-0.00506591796875;3.31999999161781;333;1 A
26.5887449328699;-0.59979248046875;-0.00509033203125001;3.32999999159256;334;1 A
26.5987449328446;-0.59979248046875;-0.00508728027343749;3.33999999156731;335;1 A
26.6087449328194;-0.5997314453125;-0.00510559082031251;3.34999999154206;336;1 A
26.6187449327941;-0.599761962890625;-0.005108642578125;3.35999999151682;337;1 A
26.6287449327689;-0.5997314453125;-0.0050994873046875;3.36999999149157;338;1 A
26.6387449327436;-0.5997314453125;-0.00511779785156249;3.37999999146632;339;1 A
26.6487449327184;-0.599822998046875;-0.00511474609375;3.38999999144107;340;1 A
26.6587449326931;-0.599822998046875;-0.00513916015625;3.39999999141583;341;1 A
26.6687449326679;-0.59979248046875;-0.005157470703125;3.40999999139058;342;1 A
26.6787449326426;-0.5997314453125;-0.00516662597656251;3.41999999136533;343;1 A
26.6887449326174;-0.59979248046875;-0.0051849365234375;3.42999999134008;344;1 A
26.6987449325921;-0.5997314453125;-0.00517883300781249;3.43999999131483;345;1 A
26.7087449325669;-0.59979248046875;-0.00519409179687499;3.44999999128959;346;1 A
26.7187449325417;-0.599822998046875;-0.00519714355468751;3.45999999126434;347;1 A
26.7287449325164;-0.599700927734375;-0.0052001953125;3.46999999123909;348;1 A
26.7387449324912;-0.59979248046875;-0.005218505859375;3.47999999121384;349;1 A
26.7487449324659;-0.599761962890625;-0.00520935058593749;3.4899999911886;350;1 A
26.7587449324407;-0.599761962890625;-0.00522460937499999;3.49999999116335;351;1 A
26.7687449324154;-0.59979248046875;-0.00522460937499999;3.5099999911381;352;1 A
26.7787449323902;-0.599761962890625;-0.0052154541015625;3.51999999111285;353;1 A
26.7887449323649;-0.599822998046875;-0.0052215576171875;3.52999999108761;354;1 A
26.7987449323397;-0.599761962890625;-0.00520935058593749;3.53999999106236;355;1 A
26.8087449323144;-0.599700927734375;-0.00522460937499999;3.54999999103711;356;1 A
26.8187449322892;-0.599700927734375;-0.00523681640625;3.55999999101186;357;1 A
26.8287449322639;-0.599761962890625;-0.00523681640625;3.56999999098662;358;1 A
26.8387449322387;-0.59979248046875;-0.0052520751953125;3.57999999096137;359;1 A
26.8487449322134;-0.599700927734375;-0.0052490234375;3.58999999093612;360;1 A
26.8587449321882;-0.59967041015625;-0.00526123046875;3.59999999091087;361;1 A
26.8687449321629;-0.599822998046875;-0.00525817871093751;3.60999999088563;362;1 A
26.8787449321377;-0.599700927734375;-0.00525512695312499;3.61999999086038;363;1 A
26.8887449321124;-0.59979248046875;-0.005267333984375;3.62999999083513;364;1 A
26.8987449320872;-0.5997314453125;-0.00526123046875;3.63999999080988;365;1 A
26.9087449320619;-0.5997314453125;-0.0052825927734375;3.64999999078464;366;1 A
26.9187449320367;-0.599761962890625;-0.0052764892578125;3.65999999075939;367;1 A
26.9287449320115;-0.5997314453125;-0.005267333984375;3.66999999073414;368;1 A
26.9387449319862;-0.59979248046875;-0.00526123046875;3.67999999070889;369;1 A
26.948744931961;-0.599700927734375;-0.0052337646484375;3.68999999068365;370;1 A
26.9587449319357;-0.599761962890625;-0.005230712890625;3.6999999906584;371;1 A
26.9687449319105;-0.59979248046875;-0.00522766113281251;3.70999999063315;372;1 A
26.9787449318852;-0.599700927734375;-0.0052215576171875;3.7199999906079;373;1 A
26.98874493186;-0.599761962890625;-0.00523681640625;3.72999999058266;374;1 A
26.9987449318347;-0.5997314453125;-0.00522460937499999;3.73999999055741;375;1 A
27.0087449318095;-0.599761962890625;-0.00522766113281251;3.74999999053216;376;1 A
27.0187449317842;-0.59979248046875;-0.005218505859375;3.75999999050691;377;1 A
27.028744931759;-0.599761962890625;-0.005206298828125;3.76999999048167;378;1 A
27.0387449317337;-0.599761962890625;-0.0052154541015625;3.77999999045642;379;1 A
27.0487449317085;-0.599700927734375;-0.0052001953125;3.78999999043117;380;1 A
27.0587449316832;-0.5997314453125;-0.00520935058593749;3.79999999040592;381;1 A
27.068744931658;-0.599761962890625;-0.00521240234375001;3.80999999038067;382;1 A
27.0787449316327;-0.59979248046875;-0.0052032470703125;3.81999999035543;383;1 A
27.0887449316075;-0.599822998046875;-0.005206298828125;3.82999999033018;384;1 A
27.0987449315822;-0.599700927734375;-0.00518798828125;3.83999999030493;385;1 A
27.108744931557;-0.599761962890625;-0.0051910400390625;3.84999999027968;386;1 A
27.1187449315318;-0.5997314453125;-0.00517883300781249;3.85999999025444;387;1 A
27.1287449315065;-0.5997314453125;-0.005169677734375;3.86999999022919;388;1 A
27.1387449314813;-0.599700927734375;-0.00517883300781249;3.87999999020394;389;1 A
27.148744931456;-0.5997314453125;-0.00516662597656251;3.88999999017869;390;1 A
27.1587449314308;-0.599761962890625;-0.00517578125;3.89999999015345;391;1 A
27.1687449314055;-0.5997314453125;-0.005169677734375;3.9099999901282;392;1 A
27.1787449313803;-0.599761962890625;-0.00515136718750001;3.91999999010295;393;1 A
27.188744931355;-0.599700927734375;-0.00514831542968749;3.9299999900777;394;1 A
27.1987449313298;-0.59979248046875;-0.00512084960937501;3.93999999005246;395;1 A
27.2087449313045;-0.59979248046875;-0.00512084960937501;3.94999999002721;396;1 A
27.2187449312793;-0.5997314453125;-0.00511474609375;3.95999999000196;397;1 A
27.228744931254;-0.599822998046875;-0.00510559082031251;3.96999998997671;398;1 A
27.2387449312288;-0.599700927734375;-0.00510253906249999;3.97999998995147;399;1 A
27.2487449312035;-0.59979248046875;-0.005084228515625;3.98999998992622;400;1 A
27.2587449311783;-0.599822998046875;-0.005084228515625;3.99999998990097;401;1 A
27.268744931153;-0.5997314453125;-0.00507507324218751;4.00999998987572;402;1 A
27.2787449311278;-0.599822998046875;-0.0050689697265625;4.01999998985048;403;1 A
27.2887449311025;-0.5997314453125;-0.00507202148437499;4.02999998982523;404;1 A
27.2987449310773;-0.5997314453125;-0.0050628662109375;4.03999998979998;405;1 A
27.308744931052;-0.599761962890625;-0.005078125;4.04999998977473;406;1 A
27.3187449310268;-0.599700927734375;-0.005078125;4.05999998974949;407;1 A
27.3287449310016;-0.59979248046875;-0.00507507324218751;4.06999998972424;408;1 A
27.3387449309763;-0.599761962890625;-0.0050811767578125;4.07999998969899;409;1 A
27.3487449309511;-0.599822998046875;-0.0050689697265625;4.08999998967374;410;1 A
27.3587449309258;-0.599761962890625;-0.0050811767578125;4.0999999896485;411;1 A
27.3687449309006;-0.599700927734375;-0.005084228515625;4.10999998962325;412;1 A
27.3787449308753;-0.599822998046875;-0.005084228515625;4.119999989598;413;1 A
27.3887449308501;-0.5997314453125;-0.005096435546875;4.12999998957275;414;1 A
27.3987449308248;-0.59979248046875;-0.00508728027343749;4.1399999895475;415;1 A
27.4087449307996;-0.59979248046875;-0.0050994873046875;4.14999998952226;416;1 A
27.4187449307743;-0.59979248046875;-0.0050994873046875;4.15999998949701;417;1 A
27.4287449307491;-0.599761962890625;-0.00508728027343749;4.16999998947176;418;1 A
27.4387449307238;-0.599700927734375;-0.005096435546875;4.17999998944651;419;1 A
27.4487449306986;-0.599822998046875;-0.00509033203125001;4.18999998942127;420;1 A
27.4587449306733;-0.599761962890625;-0.005108642578125;4.19999998939602;421;1 A
27.4687449306481;-0.599700927734375;-0.00511779785156249;4.20999998937077;422;1 A
27.4787449306228;-0.599822998046875;-0.0051239013671875;4.21999998934552;423;1 A
27.4887449305976;-0.599761962890625;-0.00513916015625;4.22999998932028;424;1 A
27.4987449305723;-0.59967041015625;-0.00513305664062499;4.23999998929503;425;1 A
27.5087449305471;-0.599700927734375;-0.00514831542968749;4.24999998926978;426;1 A
27.5187449305218;-0.599761962890625;-0.005157470703125;4.25999998924453;427;1 A
27.5287449304966;-0.59979248046875;-0.005169677734375;4.26999998921929;428;1 A
27.5387449304714;-0.599822998046875;-0.0051910400390625;4.27999998919404;429;1 A
27.5487449304461;-0.599761962890625;-0.00519714355468751;4.28999998916879;430;1 A
27.5587449304209;-0.599700927734375;-0.00520935058593749;4.29999998914354;431;1 A
27.5687449303956;-0.5997314453125;-0.00521240234375001;4.3099999891183;432;1 A
27.5787449303704;-0.599700927734375;-0.005206298828125;4.31999998909305;433;1 A
27.5887449303451;-0.5997314453125;-0.0052032470703125;4.3299999890678;434;1 A
27.5987449303199;-0.59979248046875;-0.00518798828125;4.33999998904255;435;1 A
27.6087449302946;-0.599639892578125;-0.00519409179687499;4.34999998901731;436;1 A
27.6187449302694;-0.59979248046875;-0.00519714355468751;4.35999998899206;437;1 A
27.6287449302441;-0.599761962890625;-0.00519409179687499;4.36999998896681;438;1 A
27.6387449302189;-0.5997314453125;-0.00520935058593749;4.37999998894156;439;1 A
27.6487449301936;-0.5997314453125;-0.0052001953125;4.38999998891632;440;1 A
27.6587449301684;-0.59967041015625;-0.005206298828125;4.39999998889107;441;1 A
27.6687449301431;-0.599700927734375;-0.0052001953125;4.40999998886582;442;1 A
27.6787449301179;-0.5997314453125;-0.0052001953125;4.41999998884057;443;1 A
27.6887449300926;-0.599700927734375;-0.00520935058593749;4.42999998881533;444;1 A
27.6987449300674;-0.59979248046875;-0.0052001953125;4.43999998879008;445;1 A
27.7087449300421;-0.5997314453125;-0.0052215576171875;4.44999998876483;446;1 A
27.7187449300169;-0.599761962890625;-0.00522766113281251;4.45999998873958;447;1 A
27.7287449299916;-0.5997314453125;-0.005218505859375;4.46999998871433;448;1 A
27.7387449299664;-0.59979248046875;-0.00522766113281251;4.47999998868909;449;1 A
27.7487449299412;-0.5997314453125;-0.005206298828125;4.48999998866384;450;1 A
27.7587449299159;-0.599761962890625;-0.00520935058593749;4.49999998863859;451;1 A
27.7687449298907;-0.599822998046875;-0.00520935058593749;4.50999998861334;452;1 A
27.7787449298654;-0.5997314453125;-0.00521240234375001;4.5199999885881;453;1 A
27.7887449298402;-0.599761962890625;-0.005218505859375;4.52999998856285;454;1 A
27.7987449298149;-0.5997314453125;-0.005206298828125;4.5399999885376;455;1 A
27.8087449297897;-0.59979248046875;-0.00520935058593749;4.54999998851235;456;1 A
27.8187449297644;-0.59979248046875;-0.0052032470703125;4.55999998848711;457;1 A
27.8287449297392;-0.5997314453125;-0.0051849365234375;4.56999998846186;458;1 A
27.8387449297139;-0.599761962890625;-0.0051910400390625;4.57999998843661;459;1 A
27.8487449296887;-0.5997314453125;-0.0051727294921875;4.58999998841136;460;1 A
27.8587449296634;-0.5997314453125;-0.00517883300781249;4.59999998838612;461;1 A
27.8687449296382;-0.5997314453125;-0.00518188476562501;4.60999998836087;462;1 A
27.8787449296129;-0.599761962890625;-0.00517578125;4.61999998833562;463;1 A
27.8887449295877;-0.59979248046875;-0.0051849365234375;4.62999998831037;464;1 A
27.8987449295624;-0.5997314453125;-0.005169677734375;4.63999998828513;465;1 A
27.9087449295372;-0.5997314453125;-0.005169677734375;4.64999998825988;466;1 A
27.9187449295119;-0.5997314453125;-0.0051605224609375;4.65999998823463;467;1 A
27.9287449294867;-0.599700927734375;-0.0051605224609375;4.66999998820938;468;1 A
27.9387449294614;-0.599761962890625;-0.0051727294921875;4.67999998818414;469;1 A
27.9487449294362;-0.599761962890625;-0.0051727294921875;4.68999998815889;470;1 A
27.958744929411;-0.59979248046875;-0.0051849365234375;4.69999998813364;471;1 A
27.9687449293857;-0.599761962890625;-0.0051849365234375;4.70999998810839;472;1 A
27.9787449293605;-0.59979248046875;-0.00518188476562501;4.71999998808315;473;1 A
27.9887449293352;-0.5997314453125;-0.0051910400390625;4.7299999880579;474;1 A
27.99874492931;-0.5997314453125;-0.0051727294921875;4.73999998803265;475;1 A
28.0087449292847;-0.59979248046875;-0.00517883300781249;4.7499999880074;476;1 A
28.0187449292595;-0.5997314453125;-0.00518798828125;4.75999998798216;477;1 A
28.0287449292342;-0.59979248046875;-0.0051849365234375;4.76999998795691;478;1 A
28.038744929209;-0.5997314453125;-0.0052001953125;4.77999998793166;479;1 A
28.0487449291837;-0.59979248046875;-0.0051849365234375;4.78999998790641;480;1 A
28.0587449291585;-0.599700927734375;-0.0051910400390625;4.79999998788116;481;1 A
28.0687449291332;-0.599761962890625;-0.00518188476562501;4.80999998785592;482;1 A
28.078744929108;-0.59979248046875;-0.00517883300781249;4.81999998783067;483;1 A
28.0887449290827;-0.599700927734375;-0.0051849365234375;4.82999998780542;484;1 A
28.0987449290575;-0.599761962890625;-0.00517883300781249;4.83999998778017;485;1 A
28.1087449290322;-0.5997314453125;-0.0051910400390625;4.84999998775493;486;1 A
28.118744929007;-0.5997314453125;-0.0051910400390625;4.85999998772968;487;1 A
28.1287449289817;-0.599700927734375;-0.00518798828125;4.86999998770443;488;1 A
28.1387449289565;-0.599761962890625;-0.0052001953125;4.87999998767918;489;1 A
28.1487449289313;-0.599853515625;-0.00517883300781249;4.88999998765394;490;1 A
28.158744928906;-0.59979248046875;-0.00518798828125;4.89999998762869;491;1 A
28.1687449288808;-0.59967041015625;-0.00519409179687499;4.90999998760344;492;1 A
28.1787449288555;-0.5997314453125;-0.00519714355468751;4.91999998757819;493;1 A
28.1887449288303;-0.599761962890625;-0.0052032470703125;4.92999998755295;494;1 A
28.198744928805;-0.59979248046875;-0.0051849365234375;4.9399999875277;495;1 A
28.2087449287798;-0.59979248046875;-0.00519409179687499;4.94999998750245;496;1 A
28.2187449287545;-0.599761962890625;-0.0051849365234375;4.9599999874772;497;1 A
28.2287449287293;-0.5997314453125;-0.0051727294921875;4.96999998745196;498;1 A
28.238744928704;-0.599761962890625;-0.00517578125;4.97999998742671;499;1 A
28.2487449286788;-0.599822998046875;-0.00516357421874999;4.98999998740146;500;1 A
28.2587449286535;-0.599761962890625;-0.00516357421874999;4.99999998737621;501;1 A
28.2687449286283;-0.59979248046875;-0.0051727294921875;5.00999998735097;502;1 A
28.278744928603;-0.59979248046875;-0.005169677734375;5.01999998732572;503;1 A
28.2887449285778;-0.599761962890625;-0.0051849365234375;5.02999998730047;504;1 A
28.2987449285525;-0.599700927734375;-0.00517578125;5.03999998727522;505;1 A
28.3087449285273;-0.599761962890625;-0.0051849365234375;5.04999998724998;506;1 A
28.318744928502;-0.599761962890625;-0.00519409179687499;5.05999998722473;507;1 A
28.3287449284768;-0.5997314453125;-0.0052032470703125;5.06999998719948;508;1 A
28.3387449284515;-0.599822998046875;-0.00522460937499999;5.07999998717423;509;1 A
28.3487449284263;-0.599822998046875;-0.005230712890625;5.08999998714899;510;1 A
28.3587449284011;-0.599700927734375;-0.00525817871093751;5.09999998712374;511;1 A
28.3687449283758;-0.599700927734375;-0.0052764892578125;5.10999998709849;512;1 A
28.3787449283506;-0.599761962890625;-0.0052825927734375;5.11999998707324;513;1 A
28.3887449283253;-0.59979248046875;-0.0052947998046875;5.129999987048;514;1 A
28.3987449283001;-0.59979248046875;-0.005291748046875;5.13999998702275;515;1 A
28.4087449282748;-0.59979248046875;-0.00531616210937499;5.1499999869975;516;1 A
28.4187449282496;-0.59979248046875;-0.005328369140625;5.15999998697225;517;1 A
28.4287449282243;-0.59979248046875;-0.005340576171875;5.169999986947;518;1 A
28.4387449281991;-0.59979248046875;-0.00536193847656249;5.17999998692176;519;1 A
28.4487449281738;-0.599761962890625;-0.00535888671875;5.18999998689651;520;1 A
28.4587449281486;-0.599761962890625;-0.00536193847656249;5.19999998687126;521;1 A
28.4687449281233;-0.5997314453125;-0.00537109375;5.20999998684601;522;1 A
28.4787449280981;-0.599700927734375;-0.0053680419921875;5.21999998682077;523;1 A
28.4887449280728;-0.599700927734375;-0.00538024902343751;5.22999998679552;524;1 A
28.4987449280476;-0.59979248046875;-0.00537109375;5.23999998677027;525;1 A
28.5087449280223;-0.5997314453125;-0.0053863525390625;5.24999998674502;526;1 A
28.5187449279971;-0.599761962890625;-0.0053863525390625;5.25999998671978;527;1 A
28.5287449279718;-0.599761962890625;-0.00538024902343751;5.26999998669453;528;1 A
28.5387449279466;-0.59979248046875;-0.00538330078125;5.27999998666928;529;1 A
28.5487449279213;-0.59979248046875;-0.00535888671875;5.28999998664403;530;1 A
28.5587449278961;-0.599700927734375;-0.00535888671875;5.29999998661879;531;1 A
28.5687449278709;-0.59979248046875;-0.00534973144531251;5.30999998659354;532;1 A
28.5787449278456;-0.599822998046875;-0.0053375244140625;5.31999998656829;533;1 A
28.5887449278204;-0.59979248046875;-0.005340576171875;5.32999998654304;534;1 A
28.5987449277951;-0.599761962890625;-0.00531616210937499;5.3399999865178;535;1 A
28.6087449277699;-0.59967041015625;-0.0053131103515625;5.34999998649255;536;1 A
28.6187449277446;-0.59979248046875;-0.00530395507812501;5.3599999864673;537;1 A
28.6287449277194;-0.599700927734375;-0.00528869628906251;5.36999998644205;538;1 A
28.6387449276941;-0.59979248046875;-0.005291748046875;5.37999998641681;539;1 A
28.6487449276689;-0.59979248046875;-0.00527343750000001;5.38999998639156;540;1 A
28.6587449276436;-0.5997314453125;-0.005279541015625;5.39999998636631;541;1 A
28.6687449276184;-0.599761962890625;-0.0052764892578125;5.40999998634106;542;1 A
28.6787449275931;-0.5997314453125;-0.005267333984375;5.41999998631582;543;1 A
28.6887449275679;-0.599853515625;-0.0052642822265625;5.42999998629057;544;1 A
28.6987449275426;-0.599700927734375;-0.0052459716796875;5.43999998626532;545;1 A
28.7087449275174;-0.59979248046875;-0.00523986816406249;5.44999998624007;546;1 A
28.7187449274921;-0.599761962890625;-0.0052337646484375;5.45999998621483;547;1 A
28.7287449274669;-0.599761962890625;-0.00522766113281251;5.46999998618958;548;1 A
28.7387449274416;-0.59979248046875;-0.00523986816406249;5.47999998616433;549;1 A
28.7487449274164;-0.599761962890625;-0.005230712890625;5.48999998613908;550;1 A
28.7587449273911;-0.599761962890625;-0.00523986816406249;5.49999998611383;551;1 A
28.7687449273659;-0.599761962890625;-0.00523986816406249;5.50999998608859;552;1 A
28.7787449273407;-0.59979248046875;-0.005230712890625;5.51999998606334;553;1 A
28.7887449273154;-0.599761962890625;-0.0052337646484375;5.52999998603809;554;1 A
28.7987449272902;-0.599761962890625;-0.00521240234375001;5.53999998601284;555;1 A
28.8087449272649;-0.5997314453125;-0.0052154541015625;5.5499999859876;556;1 A
28.8187449272397;-0.59979248046875;-0.0052154541015625;5.55999998596235;557;1 A
28.8287449272144;-0.599761962890625;-0.0052215576171875;5.5699999859371;558;1 A
28.8387449271892;-0.599822998046875;-0.005230712890625;5.57999998591185;559;1 A
28.8487449271639;-0.59979248046875;-0.00521240234375001;5.58999998588661;560;1 A
28.8587449271387;-0.5997314453125;-0.00520935058593749;5.59999998586136;561;1 A
28.8687449271134;-0.5997314453125;-0.00519409179687499;5.60999998583611;562;1 A
28.8787449270882;-0.599822998046875;-0.00517883300781249;5.61999998581086;563;1 A
28.8887449270629;-0.599822998046875;-0.005169677734375;5.62999998578562;564;1 A
28.8987449270377;-0.599761962890625;-0.00514831542968749;5.63999998576037;565;1 A
28.9087449270124;-0.599761962890625;-0.00515136718750001;5.64999998573512;566;1 A
28.9187449269872;-0.5997314453125;-0.0051422119140625;5.65999998570987;567;1 A
28.9287449269619;-0.599761962890625;-0.005126953125;5.66999998568463;568;1 A
28.9387449269367;-0.599761962890625;-0.0051300048828125;5.67999998565938;569;1 A
28.9487449269114;-0.599822998046875;-0.00510253906249999;5.68999998563413;570;1 A
28.9587449268862;-0.599822998046875;-0.00510559082031251;5.69999998560888;571;1 A
28.9687449268609;-0.599761962890625;-0.0050994873046875;5.70999998558364;572;1 A
28.9787449268357;-0.599761962890625;-0.0050994873046875;5.71999998555839;573;1 A
28.9887449268105;-0.599761962890625;-0.00510253906249999;5.72999998553314;574;1 A
28.9987449267852;-0.599761962890625;-0.005084228515625;5.73999998550789;575;1 A
29.00874492676;-0.5997314453125;-0.00508728027343749;5.74999998548265;576;1 A
29.0187449267347;-0.59979248046875;-0.005078125;5.7599999854574;577;1 A
29.0287449267095;-0.59979248046875;-0.00504455566406251;5.76999998543215;578;1 A
29.0387449266842;-0.599700927734375;-0.00504150390624999;5.7799999854069;579;1 A
29.048744926659;-0.59967041015625;-0.0050079345703125;5.78999998538166;580;1 A
29.0587449266337;-0.5997314453125;-0.0050018310546875;5.79999998535641;581;1 A
29.0687449266085;-0.599761962890625;-0.00499572753906249;5.80999998533116;582;1 A
29.0787449265832;-0.599761962890625;-0.004986572265625;5.81999998530591;583;1 A
29.088744926558;-0.599700927734375;-0.00499267578125;5.82999998528066;584;1 A
29.0987449265327;-0.599761962890625;-0.0049713134765625;5.83999998525542;585;1 A
29.1087449265075;-0.59979248046875;-0.00496826171875001;5.84999998523017;586;1 A
29.1187449264822;-0.5997314453125;-0.00496826171875001;5.85999998520492;587;1 A
29.128744926457;-0.599761962890625;-0.004962158203125;5.86999998517967;588;1 A
29.1387449264317;-0.5997314453125;-0.00496826171875001;5.87999998515443;589;1 A
29.1487449264065;-0.59979248046875;-0.0049560546875;5.88999998512918;590;1 A
29.1587449263812;-0.59979248046875;-0.0049591064453125;5.89999998510393;591;1 A
29.168744926356;-0.5997314453125;-0.0049560546875;5.90999998507868;592;1 A
29.1787449263308;-0.59979248046875;-0.00494384765625;5.91999998505344;593;1 A
29.1887449263055;-0.5997314453125;-0.0049468994140625;5.92999998502819;594;1 A
29.1987449262803;-0.599761962890625;-0.00491943359374999;5.93999998500294;595;1 A
29.208744926255;-0.599761962890625;-0.00491943359374999;5.94999998497769;596;1 A
29.2187449262298;-0.599761962890625;-0.0049163818359375;5.95999998495245;597;1 A
29.2287449262045;-0.599700927734375;-0.00490722656250001;5.9699999849272;598;1 A
29.2387449261793;-0.5997314453125;-0.00491943359374999;5.97999998490195;599;1 A
29.248744926154;-0.599822998046875;-0.00490417480468749;5.9899999848767;600;1 A
29.2587449261288;-0.599761962890625;-0.0049163818359375;5.99999998485146;601;1 A
29.2687449261035;-0.599761962890625;-0.0049163818359375;6.00999998482621;602;1 A
29.2787449260783;-0.5997314453125;-0.00492248535156251;6.01999998480096;603;1 A
29.288744926053;-0.5997314453125;-0.00494384765625;6.02999998477571;604;1 A
29.2987449260278;-0.59979248046875;-0.0049468994140625;6.03999998475047;605;1 A
29.3087449260025;-0.5997314453125;-0.00496520996093749;6.04999998472522;606;1 A
29.3187449259773;-0.5997314453125;-0.00498046874999999;6.05999998469997;607;1 A
29.328744925952;-0.599761962890625;-0.00498046874999999;6.06999998467472;608;1 A
29.3387449259268;-0.599761962890625;-0.00499267578125;6.07999998464948;609;1 A
29.3487449259015;-0.599700927734375;-0.00496826171875001;6.08999998462423;610;1 A
29.3587449258763;-0.5997314453125;-0.00498046874999999;6.09999998459898;611;1 A
29.368744925851;-0.5997314453125;-0.00498046874999999;6.10999998457373;612;1 A
29.3787449258258;-0.599761962890625;-0.00498046874999999;6.11999998454849;613;1 A
29.3887449258006;-0.599822998046875;-0.00499877929687501;6.12999998452324;614;1 A
29.3987449257753;-0.599761962890625;-0.0049896240234375;6.13999998449799;615;1 A
29.4087449257501;-0.5997314453125;-0.0050018310546875;6.14999998447274;616;1 A
29.4187449257248;-0.59979248046875;-0.0050079345703125;6.1599999844475;617;1 A
29.4287449256996;-0.5997314453125;-0.0050079345703125;6.16999998442225;618;1 A
29.4387449256743;-0.599761962890625;-0.005023193359375;6.179999984397;619;1 A
29.4487449256491;-0.599761962890625;-0.0050079345703125;6.18999998437175;620;1 A
29.4587449256238;-0.599761962890625;-0.00502624511718749;6.1999999843465;621;1 A
29.4687449255986;-0.599761962890625;-0.0050384521484375;6.20999998432126;622;1 A
29.4787449255733;-0.599761962890625;-0.005035400390625;6.21999998429601;623;1 A
29.4887449255481;-0.5997314453125;-0.0050506591796875;6.22999998427076;624;1 A
29.4987449255228;-0.5997314453125;-0.0050323486328125;6.23999998424551;625;1 A
29.5087449254976;-0.599761962890625;-0.005035400390625;6.24999998422027;626;1 A
29.5187449254723;-0.59979248046875;-0.0050384521484375;6.25999998419502;627;1 A
29.5287449254471;-0.599761962890625;-0.005023193359375;6.26999998416977;628;1 A
29.5387449254218;-0.599700927734375;-0.0050323486328125;6.27999998414452;629;1 A
29.5487449253966;-0.5997314453125;-0.00501708984375;6.28999998411928;630;1 A
29.5587449253713;-0.599761962890625;-0.005023193359375;6.29999998409403;631;1 A
29.5687449253461;-0.59979248046875;-0.00502624511718749;6.30999998406878;632;1 A
29.5787449253208;-0.599761962890625;-0.0050201416015625;6.31999998404353;633;1 A
29.5887449252956;-0.5997314453125;-0.0050201416015625;6.32999998401829;634;1 A
29.5987449252704;-0.5997314453125;-0.0050079345703125;6.33999998399304;635;1 A
29.6087449252451;-0.599761962890625;-0.0050201416015625;6.34999998396779;636;1 A
29.6187449252199;-0.59979248046875;-0.00502624511718749;6.35999998394254;637;1 A
29.6287449251946;-0.5997314453125;-0.005023193359375;6.3699999839173;638;1 A
29.6387449251694;-0.599761962890625;-0.00504455566406251;6.37999998389205;639;1 A
29.6487449251441;-0.599761962890625;-0.00502624511718749;6.3899999838668;640;1 A
29.6587449251189;-0.599761962890625;-0.005035400390625;6.39999998384155;641;1 A
29.6687449250936;-0.599822998046875;-0.0050323486328125;6.40999998381631;642;1 A
29.6787449250684;-0.5997314453125;-0.005023193359375;6.41999998379106;643;1 A
29.6887449250431;-0.599761962890625;-0.005023193359375;6.42999998376581;644;1 A
29.6987449250179;-0.599761962890625;-0.0050079345703125;6.43999998374056;645;1 A
29.7087449249926;-0.59979248046875;-0.00501708984375;6.44999998371532;646;1 A
29.7187449249674;-0.599700927734375;-0.005023193359375;6.45999998369007;647;1 A
29.7287449249421;-0.5997314453125;-0.0050201416015625;6.46999998366482;648;1 A
29.7387449249169;-0.5997314453125;-0.00502624511718749;6.47999998363957;649;1 A
29.7487449248916;-0.599761962890625;-0.0050079345703125;6.48999998361433;650;1 A
29.7587449248664;-0.59979248046875;-0.0050201416015625;6.49999998358908;651;1 A
29.7687449248411;-0.59979248046875;-0.00502929687500001;6.50999998356383;652;1 A
29.7787449248159;-0.599761962890625;-0.005035400390625;6.51999998353858;653;1 A
29.7887449247906;-0.59979248046875;-0.0050628662109375;6.52999998351333;654;1 A
29.7987449247654;-0.59979248046875;-0.00506591796875;6.53999998348809;655;1 A
29.8087449247402;-0.59979248046875;-0.005084228515625;6.54999998346284;656;1 A
29.8187449247149;-0.59979248046875;-0.005096435546875;6.55999998343759;657;1 A
29.8287449246897;-0.599700927734375;-0.005096435546875;6.56999998341234;658;1 A
29.8387449246644;-0.599761962890625;-0.00510253906249999;6.5799999833871;659;1 A
29.8487449246392;-0.599700927734375;-0.0050933837890625;6.58999998336185;660;1 A
29.8587449246139;-0.599761962890625;-0.005108642578125;6.5999999833366;661;1 A
29.8687449245887;-0.599700927734375;-0.00512084960937501;6.60999998331135;662;1 A
29.8787449245634;-0.599822998046875;-0.00512084960937501;6.61999998328611;663;1 A
29.8887449245382;-0.599761962890625;-0.00513916015625;6.62999998326086;664;1 A
29.8987449245129;-0.599700927734375;-0.00512084960937501;6.63999998323561;665;1 A
29.9087449244877;-0.599761962890625;-0.00512084960937501;6.64999998321036;666;1 A
29.9187449244624;-0.5997314453125;-0.005126953125;6.65999998318512;667;1 A
29.9287449244372;-0.59979248046875;-0.00512084960937501;6.66999998315987;668;1 A
29.9387449244119;-0.599700927734375;-0.0051422119140625;6.67999998313462;669;1 A
29.9487449243867;-0.59979248046875;-0.00513610839843751;6.68999998310937;670;1 A
29.9587449243614;-0.59979248046875;-0.005145263671875;6.69999998308413;671;1 A
29.9687449243362;-0.599700927734375;-0.00515136718750001;6.70999998305888;672;1 A
29.9787449243109;-0.599700927734375;-0.005145263671875;6.71999998303363;673;1 A
29.9887449242857;-0.599700927734375;-0.0051544189453125;6.72999998300838;674;1 A
29.9987449242604;-0.599761962890625;-0.00513916015625;6.73999998298314;675;1 A
30.0087449242352;-0.59979248046875;-0.00515136718750001;6.74999998295789;676;1 A
30.01874492421;-0.599822998046875;-0.005157470703125;6.75999998293264;677;1 A
30.0287449241847;-0.599761962890625;-0.005157470703125;6.76999998290739;678;1 A
30.0387449241595;-0.59979248046875;-0.00517578125;6.77999998288215;679;1 A
30.0487449241342;-0.5997314453125;-0.00516357421874999;6.7899999828569;680;1 A
30.058744924109;-0.59979248046875;-0.00517578125;6.79999998283165;681;1 A
30.0687449240837;-0.599761962890625;-0.00517883300781249;6.8099999828064;682;1 A
30.0787449240585;-0.59979248046875;-0.0051849365234375;6.81999998278116;683;1 A
30.0887449240332;-0.599761962890625;-0.0052032470703125;6.82999998275591;684;1 A
30.098744924008;-0.599700927734375;-0.0051910400390625;6.83999998273066;685;1 A
30.1087449239827;-0.5997314453125;-0.0052032470703125;6.84999998270541;686;1 A
30.1187449239575;-0.599761962890625;-0.005206298828125;6.85999998268016;687;1 A
30.1287449239322;-0.599822998046875;-0.0052001953125;6.86999998265492;688;1 A
30.138744923907;-0.599761962890625;-0.005206298828125;6.87999998262967;689;1 A
30.1487449238817;-0.59967041015625;-0.00518798828125;6.88999998260442;690;1 A
30.1587449238565;-0.599700927734375;-0.00519714355468751;6.89999998257917;691;1 A
30.1687449238312;-0.599700927734375;-0.005206298828125;6.90999998255393;692;1 A
30.178744923806;-0.5997314453125;-0.005206298828125;6.91999998252868;693;1 A
30.1887449237807;-0.59979248046875;-0.0052154541015625;6.92999998250343;694;1 A
30.1987449237555;-0.599822998046875;-0.0052032470703125;6.93999998247818;695;1 A
30.2087449237303;-0.59979248046875;-0.00520935058593749;6.94999998245294;696;1 A
30.218744923705;-0.599761962890625;-0.005206298828125;6.95999998242769;697;1 A
30.2287449236798;-0.59979248046875;-0.00519409179687499;6.96999998240244;698;1 A
30.2387449236545;-0.599761962890625;-0.0052001953125;6.97999998237719;699;1 A
30.2487449236293;-0.599853515625;-0.0051849365234375;6.98999998235195;700;1 A
30.258744923604;-0.599700927734375;-0.00519409179687499;6.9999999823267;701;1 A
30.2687449235788;-0.59979248046875;-0.0051910400390625;7.00999998230145;702;1 A
30.2787449235535;-0.599761962890625;-0.0051910400390625;7.0199999822762;703;1 A
30.2887449235283;-0.599761962890625;-0.0052001953125;7.02999998225096;704;1 A
30.298744923503;-0.599761962890625;-0.00517578125;7.03999998222571;705;1 A
30.3087449234778;-0.599761962890625;-0.00518188476562501;7.04999998220046;706;1 A
30.3187449234525;-0.599822998046875;-0.00518188476562501;7.05999998217521;707;1 A
30.3287449234273;-0.599761962890625;-0.0051727294921875;7.06999998214997;708;1 A
30.338744923402;-0.599761962890625;-0.00518188476562501;7.07999998212472;709;1 A
30.3487449233768;-0.599700927734375;-0.00516662597656251;7.08999998209947;710;1 A
30.3587449233515;-0.5997314453125;-0.00516662597656251;7.09999998207422;711;1 A
30.3687449233263;-0.599761962890625;-0.00516662597656251;7.10999998204898;712;1 A
30.378744923301;-0.5997314453125;-0.00515136718750001;7.11999998202373;713;1 A
30.3887449232758;-0.59979248046875;-0.00514831542968749;7.12999998199848;714;1 A
30.3987449232505;-0.599761962890625;-0.0051300048828125;7.13999998197323;715;1 A
30.4087449232253;-0.599761962890625;-0.00513610839843751;7.14999998194799;716;1 A
30.4187449232001;-0.5997314453125;-0.00514831542968749;7.15999998192274;717;1 A
30.4287449231748;-0.59979248046875;-0.005145263671875;7.16999998189749;718;1 A
30.4387449231496;-0.599761962890625;-0.0051544189453125;7.17999998187224;719;1 A
30.4487449231243;-0.599761962890625;-0.00513305664062499;7.189999981847;720;1 A
30.4587449230991;-0.59979248046875;-0.0051422119140625;7.19999998182175;721;1 A
30.4687449230738;-0.59979248046875;-0.00513305664062499;7.2099999817965;722;1 A
30.4787449230486;-0.599700927734375;-0.0051300048828125;7.21999998177125;723;1 A
30.4887449230233;-0.599761962890625;-0.0051300048828125;7.229999981746;724;1 A
30.4987449229981;-0.599700927734375;-0.0051116943359375;7.23999998172076;725;1 A
30.5087449229728;-0.599761962890625;-0.00511474609375;7.24999998169551;726;1 A
30.5187449229476;-0.5997314453125;-0.0051116943359375;7.25999998167026;727;1 A
30.5287449229223;-0.599700927734375;-0.00510253906249999;7.26999998164501;728;1 A
30.5387449228971;-0.5997314453125;-0.005108642578125;7.27999998161977;729;1 A
30.5487449228718;-0.599700927734375;-0.005078125;7.28999998159452;730;1 A
30.5587449228466;-0.599761962890625;-0.00508728027343749;7.29999998156927;731;1 A
30.5687449228213;-0.599761962890625;-0.00509033203125001;7.30999998154402;732;1 A
30.5787449227961;-0.5997314453125;-0.0050933837890625;7.31999998151878;733;1 A
30.5887449227708;-0.5997314453125;-0.0051116943359375;7.32999998149353;734;1 A
30.5987449227456;-0.599700927734375;-0.0050994873046875;7.33999998146828;735;1 A
30.6087449227203;-0.599761962890625;-0.00511474609375;7.34999998144303;736;1 A
30.6187449226951;-0.59979248046875;-0.00511779785156249;7.35999998141779;737;1 A
30.6287449226699;-0.599822998046875;-0.00510559082031251;7.36999998139254;738;1 A
30.6387449226446;-0.599822998046875;-0.0051116943359375;7.37999998136729;739;1 A
30.6487449226194;-0.5997314453125;-0.0050933837890625;7.38999998134204;740;1 A
30.6587449225941;-0.599761962890625;-0.00510253906249999;7.3999999813168;741;1 A
30.6687449225689;-0.599761962890625;-0.00510253906249999;7.40999998129155;742;1 A
30.6787449225436;-0.59979248046875;-0.005096435546875;7.4199999812663;743;1 A
30.6887449225184;-0.599761962890625;-0.00510253906249999;7.42999998124105;744;1 A
30.6987449224931;-0.599700927734375;-0.0050811767578125;7.43999998121581;745;1 A
30.7087449224679;-0.599822998046875;-0.005078125;7.44999998119056;746;1 A
30.7187449224426;-0.59967041015625;-0.0050811767578125;7.45999998116531;747;1 A
30.7287449224174;-0.599700927734375;-0.0050811767578125;7.46999998114006;748;1 A
30.7387449223921;-0.5997314453125;-0.005096435546875;7.47999998111482;749;1 A
30.7487449223669;-0.599700927734375;-0.0050811767578125;7.48999998108957;750;1 A
30.7587449223416;-0.59979248046875;-0.0050933837890625;7.49999998106432;751;1 A
30.7687449223164;-0.599761962890625;-0.005096435546875;7.50999998103907;752;1 A
30.7787449222911;-0.599700927734375;-0.0050933837890625;7.51999998101383;753;1 A
30.7887449222659;-0.5997314453125;-0.0050933837890625;7.52999998098858;754;1 A
30.7987449222406;-0.599761962890625;-0.00507507324218751;7.53999998096333;755;1 A
30.8087449222154;-0.59979248046875;-0.005084228515625;7.54999998093808;756;1 A
30.8187449221901;-0.59979248046875;-0.00508728027343749;7.55999998091283;757;1 A
30.8287449221649;-0.59979248046875;-0.005078125;7.56999998088759;758;1 A
30.8387449221397;-0.599700927734375;-0.005084228515625;7.57999998086234;759;1 A
30.8487449221144;-0.5997314453125;-0.00505981445312501;7.58999998083709;760;1 A
30.8587449220892;-0.599761962890625;-0.00505981445312501;7.59999998081184;761;1 A
30.8687449220639;-0.5997314453125;-0.00505676269531249;7.6099999807866;762;1 A
30.8787449220387;-0.5997314453125;-0.0050506591796875;7.61999998076135;763;1 A
30.8887449220134;-0.599700927734375;-0.0050628662109375;7.6299999807361;764;1 A
30.8987449219882;-0.599700927734375;-0.0050537109375;7.63999998071085;765;1 A
30.9087449219629;-0.5997314453125;-0.00507507324218751;7.64999998068561;766;1 A
30.9187449219377;-0.599761962890625;-0.00508728027343749;7.65999998066036;767;1 A
30.9287449219124;-0.599853515625;-0.005096435546875;7.66999998063511;768;1 A
30.9387449218872;-0.5997314453125;-0.00511779785156249;7.67999998060986;769;1 A
30.9487449218619;-0.599761962890625;-0.0051116943359375;7.68999998058462;770;1 A
30.9587449218367;-0.599700927734375;-0.00513305664062499;7.69999998055937;771;1 A
30.9687449218114;-0.59967041015625;-0.005145263671875;7.70999998053412;772;1 A
30.9787449217862;-0.5997314453125;-0.0051422119140625;7.71999998050887;773;1 A
30.9887449217609;-0.5997314453125;-0.0051544189453125;7.72999998048363;774;1 A
30.9987449217357;-0.599761962890625;-0.00513610839843751;7.73999998045838;775;1 A
31.0087449217104;-0.59979248046875;-0.00513916015625;7.74999998043313;776;1 A
31.0187449216852;-0.599761962890625;-0.00513610839843751;7.75999998040788;777;1 A
31.0287449216599;-0.5997314453125;-0.00511779785156249;7.76999998038264;778;1 A
31.0387449216347;-0.5997314453125;-0.00512084960937501;7.77999998035739;779;1 A
31.0487449216095;-0.5997314453125;-0.00510559082031251;7.78999998033214;780;1 A
31.0587449215842;-0.599761962890625;-0.0051116943359375;7.79999998030689;781;1 A
31.068744921559;-0.5997314453125;-0.00511474609375;7.80999998028165;782;1 A
31.0787449215337;-0.5997314453125;-0.0051116943359375;7.8199999802564;783;1 A
31.0887449215085;-0.5997314453125;-0.00511779785156249;7.82999998023115;784;1 A
31.0987449214832;-0.5997314453125;-0.005096435546875;7.8399999802059;785;1 A
31.108744921458;-0.59979248046875;-0.0050994873046875;7.84999998018066;786;1 A
31.1187449214327;-0.599761962890625;-0.00510253906249999;7.85999998015541;787;1 A
31.1287449214075;-0.599822998046875;-0.00509033203125001;7.86999998013016;788;1 A
31.1387449213822;-0.599761962890625;-0.00510253906249999;7.87999998010491;789;1 A
31.148744921357;-0.599761962890625;-0.00509033203125001;7.88999998007966;790;1 A
31.1587449213317;-0.599700927734375;-0.005084228515625;7.89999998005442;791;1 A
31.1687449213065;-0.59979248046875;-0.005078125;7.90999998002917;792;1 A
31.1787449212812;-0.599761962890625;-0.0050628662109375;7.91999998000392;793;1 A
31.188744921256;-0.599822998046875;-0.005047607421875;7.92999997997867;794;1 A
31.1987449212307;-0.5997314453125;-0.005023193359375;7.93999997995343;795;1 A
31.2087449212055;-0.599761962890625;-0.0050323486328125;7.94999997992818;796;1 A
31.2187449211802;-0.5997314453125;-0.005035400390625;7.95999997990293;797;1 A
31.228744921155;-0.5997314453125;-0.0050323486328125;7.96999997987768;798;1 A
31.2387449211298;-0.599761962890625;-0.00504455566406251;7.97999997985244;799;1 A
31.2487449211045;-0.599761962890625;-0.0050323486328125;7.98999997982719;800;1 A
31.2587449210793;-0.599761962890625;-0.005047607421875;7.99999997980194;801;1 A
31.268744921054;-0.599761962890625;-0.0050537109375;8.00999997977669;802;1 A
31.2787449210288;-0.59967041015625;-0.00505981445312501;8.01999997975145;803;1 A
31.2887449210035;-0.59979248046875;-0.00507507324218751;8.0299999797262;804;1 A
31.2987449209783;-0.599761962890625;-0.0050689697265625;8.03999997970095;805;1 A
31.308744920953;-0.599822998046875;-0.005084228515625;8.0499999796757;806;1 A
31.3187449209278;-0.599761962890625;-0.0050933837890625;8.05999997965046;807;1 A
31.3287449209025;-0.599761962890625;-0.00509033203125001;8.06999997962521;808;1 A
31.3387449208773;-0.59979248046875;-0.0050994873046875;8.07999997959996;809;1 A
31.348744920852;-0.599700927734375;-0.005078125;8.08999997957471;810;1 A
31.3587449208268;-0.599822998046875;-0.00509033203125001;8.09999997954947;811;1 A
31.3687449208015;-0.599761962890625;-0.0050933837890625;8.10999997952422;812;1 A
31.3787449207763;-0.599761962890625;-0.005096435546875;8.11999997949897;813;1 A
31.388744920751;-0.5997314453125;-0.00511474609375;8.12999997947372;814;1 A
31.3987449207258;-0.599700927734375;-0.00510253906249999;8.13999997944848;815;1 A
31.4087449207005;-0.59979248046875;-0.00511779785156249;8.14999997942323;816;1 A
31.4187449206753;-0.59967041015625;-0.00512084960937501;8.15999997939798;817;1 A
31.42874492065;-0.599761962890625;-0.00511779785156249;8.16999997937273;818;1 A
31.4387449206248;-0.599700927734375;-0.00513305664062499;8.17999997934749;819;1 A
31.4487449205996;-0.5997314453125;-0.005126953125;8.18999997932224;820;1 A
31.4587449205743;-0.5997314453125;-0.005145263671875;8.19999997929699;821;1 A
31.4687449205491;-0.599761962890625;-0.0051544189453125;8.20999997927174;822;1 A
31.4787449205238;-0.59979248046875;-0.0051544189453125;8.2199999792465;823;1 A
31.4887449204986;-0.599761962890625;-0.0051605224609375;8.22999997922125;824;1 A
31.4987449204733;-0.59979248046875;-0.00514831542968749;8.239999979196;825;1 A
31.5087449204481;-0.59979248046875;-0.005157470703125;8.24999997917075;826;1 A
31.5187449204228;-0.599761962890625;-0.00516357421874999;8.2599999791455;827;1 A
31.5287449203976;-0.59979248046875;-0.0051605224609375;8.26999997912026;828;1 A
31.5387449203723;-0.59979248046875;-0.005169677734375;8.27999997909501;829;1 A
31.5487449203471;-0.599761962890625;-0.0051605224609375;8.28999997906976;830;1 A
31.5587449203218;-0.599761962890625;-0.0051727294921875;8.29999997904451;831;1 A
31.5687449202966;-0.599761962890625;-0.00518188476562501;8.30999997901927;832;1 A
31.5787449202713;-0.599761962890625;-0.00517578125;8.31999997899402;833;1 A
31.5887449202461;-0.5997314453125;-0.00518798828125;8.32999997896877;834;1 A
31.5987449202208;-0.599761962890625;-0.0051727294921875;8.33999997894352;835;1 A
31.6087449201956;-0.5997314453125;-0.00518188476562501;8.34999997891828;836;1 A
31.6187449201703;-0.5997314453125;-0.0051849365234375;8.35999997889303;837;1 A
31.6287449201451;-0.5997314453125;-0.00518188476562501;8.36999997886778;838;1 A
31.6387449201198;-0.599761962890625;-0.0051849365234375;8.37999997884253;839;1 A
31.6487449200946;-0.5997314453125;-0.0051605224609375;8.38999997881729;840;1 A
31.6587449200694;-0.59979248046875;-0.0051605224609375;8.39999997879204;841;1 A
31.6687449200441;-0.599761962890625;-0.00514831542968749;8.40999997876679;842;1 A
31.6787449200189;-0.599761962890625;-0.00513610839843751;8.41999997874154;843;1 A
31.6887449199936;-0.5997314453125;-0.00513916015625;8.4299999787163;844;1 A
31.6987449199684;-0.5997314453125;-0.0051239013671875;8.43999997869105;845;1 A
31.7087449199431;-0.599761962890625;-0.005126953125;8.4499999786658;846;1 A
31.7187449199179;-0.599761962890625;-0.00513305664062499;8.45999997864055;847;1 A
31.7287449198926;-0.599700927734375;-0.00512084960937501;8.46999997861531;848;1 A
31.7387449198674;-0.599761962890625;-0.0051239013671875;8.47999997859006;849;1 A
31.7487449198421;-0.59979248046875;-0.00510253906249999;8.48999997856481;850;1 A
31.7587449198169;-0.59979248046875;-0.005108642578125;8.49999997853956;851;1 A
31.7687449197916;-0.599700927734375;-0.00511779785156249;8.50999997851432;852;1 A
31.7787449197664;-0.5997314453125;-0.0051116943359375;8.51999997848907;853;1 A
31.7887449197411;-0.599761962890625;-0.005126953125;8.52999997846382;854;1 A
31.7987449197159;-0.59979248046875;-0.00510559082031251;8.53999997843857;855;1 A
31.8087449196906;-0.59979248046875;-0.005108642578125;8.54999997841333;856;1 A
31.8187449196654;-0.5997314453125;-0.00510253906249999;8.55999997838808;857;1 A
31.8287449196401;-0.599761962890625;-0.005084228515625;8.56999997836283;858;1 A
31.8387449196149;-0.5997314453125;-0.00508728027343749;8.57999997833758;859;1 A
31.8487449195896;-0.59979248046875;-0.0050689697265625;8.58999997831233;860;1 A
31.8587449195644;-0.59979248046875;-0.0050811767578125;8.59999997828709;861;1 A
31.8687449195392;-0.59979248046875;-0.00508728027343749;8.60999997826184;862;1 A
31.8787449195139;-0.599761962890625;-0.005084228515625;8.61999997823659;863;1 A
31.8887449194887;-0.59979248046875;-0.005096435546875;8.62999997821134;864;1 A
31.8987449194634;-0.599822998046875;-0.00508728027343749;8.6399999781861;865;1 A
31.9087449194382;-0.5997314453125;-0.0050933837890625;8.64999997816085;866;1 A
31.9187449194129;-0.59979248046875;-0.00510253906249999;8.6599999781356;867;1 A
31.9287449193877;-0.59979248046875;-0.0050994873046875;8.66999997811035;868;1 A
31.9387449193624;-0.599700927734375;-0.00511779785156249;8.67999997808511;869;1 A
31.9487449193372;-0.599761962890625;-0.0051116943359375;8.68999997805986;870;1 A
31.9587449193119;-0.5997314453125;-0.00512084960937501;8.69999997803461;871;1 A
31.9687449192867;-0.59979248046875;-0.005126953125;8.70999997800936;872;1 A
31.9787449192614;-0.599700927734375;-0.00511779785156249;8.71999997798412;873;1 A
31.9887449192362;-0.599761962890625;-0.00511474609375;8.72999997795887;874;1 A
31.9987449192109;-0.599761962890625;-0.005096435546875;8.73999997793362;875;1 A
32.0087449191857;-0.5997314453125;-0.005108642578125;8.74999997790837;876;1 A
32.0187449191604;-0.5997314453125;-0.00512084960937501;8.75999997788313;877;1 A
32.0287449191352;-0.599761962890625;-0.0051239013671875;8.76999997785788;878;1 A
32.0387449191099;-0.599761962890625;-0.00513610839843751;8.77999997783263;879;1 A
32.0487449190847;-0.599822998046875;-0.00511779785156249;8.78999997780738;880;1 A
32.0587449190594;-0.5997314453125;-0.00513305664062499;8.79999997778214;881;1 A
32.0687449190342;-0.599822998046875;-0.00513305664062499;8.80999997775689;882;1 A
32.078744919009;-0.599761962890625;-0.005126953125;8.81999997773164;883;1 A
32.0887449189837;-0.59979248046875;-0.0051422119140625;8.82999997770639;884;1 A
32.0987449189585;-0.5997314453125;-0.00513610839843751;8.83999997768115;885;1 A
32.1087449189332;-0.599761962890625;-0.00514831542968749;8.8499999776559;886;1 A
32.118744918908;-0.59979248046875;-0.0051605224609375;8.85999997763065;887;1 A
32.1287449188827;-0.599700927734375;-0.005157470703125;8.8699999776054;888;1 A
32.1387449188575;-0.5997314453125;-0.005169677734375;8.87999997758016;889;1 A
32.1487449188322;-0.599700927734375;-0.005157470703125;8.88999997755491;890;1 A
32.158744918807;-0.599761962890625;-0.00517578125;8.89999997752966;891;1 A
32.1687449187817;-0.59979248046875;-0.00519409179687499;8.90999997750441;892;1 A
32.1787449187565;-0.599761962890625;-0.0052032470703125;8.91999997747916;893;1 A
32.1887449187312;-0.599822998046875;-0.0052337646484375;8.92999997745392;894;1 A
32.198744918706;-0.599700927734375;-0.00522766113281251;8.93999997742867;895;1 A
32.2087449186807;-0.59979248046875;-0.0052520751953125;8.94999997740342;896;1 A
32.2187449186555;-0.5997314453125;-0.0052642822265625;8.95999997737817;897;1 A
32.2287449186302;-0.599822998046875;-0.00525512695312499;8.96999997735293;898;1 A
32.238744918605;-0.599700927734375;-0.00527038574218749;8.97999997732768;899;1 A
32.2487449185797;-0.59979248046875;-0.0052642822265625;8.98999997730243;900;1 A
32.2587449185545;-0.59979248046875;-0.005279541015625;8.99999997727718;901;1 A
32.2687449185293;-0.5997314453125;-0.0052978515625;9.00999997725194;902;1 A
32.278744918504;-0.599761962890625;-0.0052978515625;9.01999997722669;903;1 A
32.2887449184788;-0.5997314453125;-0.0053070068359375;9.02999997720144;904;1 A
32.2987449184535;-0.59979248046875;-0.0052947998046875;9.03999997717619;905;1 A
32.3087449184283;-0.5997314453125;-0.0052978515625;9.04999997715095;906;1 A
32.318744918403;-0.5997314453125;-0.0052947998046875;9.0599999771257;907;1 A
32.3287449183778;-0.59979248046875;-0.00528869628906251;9.06999997710045;908;1 A
32.3387449183525;-0.599700927734375;-0.00530090332031249;9.0799999770752;909;1 A
32.3487449183273;-0.59979248046875;-0.00528564453124999;9.08999997704996;910;1 A
32.358744918302;-0.599761962890625;-0.00528869628906251;9.09999997702471;911;1 A
32.3687449182768;-0.599700927734375;-0.005291748046875;9.10999997699946;912;1 A
32.3787449182515;-0.59979248046875;-0.0052764892578125;9.11999997697421;913;1 A
32.3887449182263;-0.5997314453125;-0.0052764892578125;9.12999997694897;914;1 A
32.398744918201;-0.5997314453125;-0.00526123046875;9.13999997692372;915;1 A
32.4087449181758;-0.59979248046875;-0.0052642822265625;9.14999997689847;916;1 A
32.4187449181505;-0.5997314453125;-0.0052764892578125;9.15999997687322;917;1 A
32.4287449181253;-0.599761962890625;-0.00527038574218749;9.16999997684798;918;1 A
32.4387449181;-0.599700927734375;-0.0052764892578125;9.17999997682273;919;1 A
32.4487449180748;-0.599822998046875;-0.00525817871093751;9.18999997679748;920;1 A
32.4587449180495;-0.5997314453125;-0.0052642822265625;9.19999997677223;921;1 A
32.4687449180243;-0.599761962890625;-0.00526123046875;9.20999997674699;922;1 A
32.4787449179991;-0.599761962890625;-0.00524291992187501;9.21999997672174;923;1 A
32.4887449179738;-0.599700927734375;-0.0052520751953125;9.22999997669649;924;1 A
32.4987449179486;-0.5997314453125;-0.0052337646484375;9.23999997667124;925;1 A
32.5087449179233;-0.599700927734375;-0.00523681640625;9.249999976646;926;1 A
32.5187449178981;-0.5997314453125;-0.00524291992187501;9.25999997662075;927;1 A
32.5287449178728;-0.599822998046875;-0.00522766113281251;9.2699999765955;928;1 A
32.5387449178476;-0.599761962890625;-0.00522460937499999;9.27999997657025;929;1 A
32.5487449178223;-0.5997314453125;-0.00520935058593749;9.289999976545;930;1 A
32.5587449177971;-0.5997314453125;-0.005206298828125;9.29999997651976;931;1 A
32.5687449177718;-0.5997314453125;-0.0052154541015625;9.30999997649451;932;1 A
32.5787449177466;-0.599761962890625;-0.0052154541015625;9.31999997646926;933;1 A
32.5887449177213;-0.5997314453125;-0.00522460937499999;9.32999997644401;934;1 A
32.5987449176961;-0.599822998046875;-0.0052154541015625;9.33999997641877;935;1 A
32.6087449176708;-0.5997314453125;-0.00522460937499999;9.34999997639352;936;1 A
32.6187449176456;-0.59979248046875;-0.005230712890625;9.35999997636827;937;1 A
32.6287449176203;-0.5997314453125;-0.005218505859375;9.36999997634302;938;1 A
32.6387449175951;-0.599700927734375;-0.0052337646484375;9.37999997631778;939;1 A
32.6487449175698;-0.59979248046875;-0.005218505859375;9.38999997629253;940;1 A
32.6587449175446;-0.599761962890625;-0.0052337646484375;9.39999997626728;941;1 A
32.6687449175193;-0.59979248046875;-0.00523986816406249;9.40999997624203;942;1 A
32.6787449174941;-0.599700927734375;-0.0052337646484375;9.41999997621679;943;1 A
32.6887449174689;-0.5997314453125;-0.005230712890625;9.42999997619154;944;1 A
32.6987449174436;-0.599761962890625;-0.00521240234375001;9.43999997616629;945;1 A
32.7087449174184;-0.5997314453125;-0.0052154541015625;9.44999997614104;946;1 A
32.7187449173931;-0.599761962890625;-0.0052215576171875;9.4599999761158;947;1 A
32.7287449173679;-0.599761962890625;-0.00521240234375001;9.46999997609055;948;1 A
32.7387449173426;-0.599761962890625;-0.00522460937499999;9.4799999760653;949;1 A
32.7487449173174;-0.5997314453125;-0.005218505859375;9.48999997604005;950;1 A
32.7587449172921;-0.5997314453125;-0.0052337646484375;9.49999997601481;951;1 A
32.7687449172669;-0.59979248046875;-0.00523986816406249;9.50999997598956;952;1 A
32.7787449172416;-0.599761962890625;-0.005230712890625;9.51999997596431;953;1 A
32.7887449172164;-0.599761962890625;-0.0052337646484375;9.52999997593906;954;1 A
32.7987449171911;-0.5997314453125;-0.005218505859375;9.53999997591382;955;1 A
32.8087449171659;-0.599700927734375;-0.0052215576171875;9.54999997588857;956;1 A
32.8187449171406;-0.59979248046875;-0.0052215576171875;9.55999997586332;957;1 A
32.8287449171154;-0.599761962890625;-0.0052154541015625;9.56999997583807;958;1 A
32.8387449170901;-0.599853515625;-0.0052154541015625;9.57999997581283;959;1 A
32.8487449170649;-0.599761962890625;-0.00519714355468751;9.58999997578758;960;1 A
32.8587449170396;-0.5997314453125;-0.00519409179687499;9.59999997576233;961;1 A
32.8687449170144;-0.5997314453125;-0.0051910400390625;9.60999997573708;962;1 A
32.8787449169891;-0.599609375;-0.00517883300781249;9.61999997571183;963;1 A
32.8887449169639;-0.599761962890625;-0.00518188476562501;9.62999997568659;964;1 A
32.8987449169387;-0.599761962890625;-0.00516662597656251;9.63999997566134;965;1 A
32.9087449169134;-0.5997314453125;-0.0051727294921875;9.64999997563609;966;1 A
32.9187449168882;-0.599700927734375;-0.00516662597656251;9.65999997561084;967;1 A
32.9287449168629;-0.599700927734375;-0.0051422119140625;9.6699999755856;968;1 A
32.9387449168377;-0.599761962890625;-0.00513305664062499;9.67999997556035;969;1 A
32.9487449168124;-0.59967041015625;-0.005096435546875;9.6899999755351;970;1 A
32.9587449167872;-0.599761962890625;-0.005084228515625;9.69999997550985;971;1 A
32.9687449167619;-0.5997314453125;-0.00507202148437499;9.70999997548461;972;1 A
32.9787449167367;-0.599761962890625;-0.0050628662109375;9.71999997545936;973;1 A
32.9887449167114;-0.599761962890625;-0.00505981445312501;9.72999997543411;974;1 A
32.9987449166862;-0.599761962890625;-0.005035400390625;9.73999997540886;975;1 A
33.0087449166609;-0.5997314453125;-0.005035400390625;9.74999997538362;976;1 A
33.0187449166357;-0.599761962890625;-0.00502929687500001;9.75999997535837;977;1 A
33.0287449166104;-0.599761962890625;-0.0050079345703125;9.76999997533312;978;1 A
33.0387449165852;-0.599639892578125;-0.0050079345703125;9.77999997530787;979;1 A
33.0487449165599;-0.5997314453125;-0.0049896240234375;9.78999997528263;980;1 A
33.0587449165347;-0.599761962890625;-0.0050018310546875;9.79999997525738;981;1 A
33.0687449165094;-0.599700927734375;-0.00499877929687501;9.80999997523213;982;1 A
33.0787449164842;-0.59979248046875;-0.00498352050781251;9.81999997520688;983;1 A
33.0887449164589;-0.59979248046875;-0.004986572265625;9.82999997518164;984;1 A
33.0987449164337;-0.599761962890625;-0.0049591064453125;9.83999997515639;985;1 A
33.1087449164085;-0.5997314453125;-0.0049560546875;9.84999997513114;986;1 A
33.1187449163832;-0.599700927734375;-0.0049560546875;9.85999997510589;987;1 A
33.128744916358;-0.599853515625;-0.00495300292968751;9.86999997508065;988;1 A
33.1387449163327;-0.599761962890625;-0.00496826171875001;9.8799999750554;989;1 A
33.1487449163075;-0.599761962890625;-0.004962158203125;9.88999997503015;990;1 A
33.1587449162822;-0.5997314453125;-0.0049713134765625;9.8999999750049;991;1 A
33.168744916257;-0.599761962890625;-0.00498046874999999;9.90999997497966;992;1 A
33.1787449162317;-0.59979248046875;-0.0049774169921875;9.91999997495441;993;1 A
33.1887449162065;-0.599761962890625;-0.00499267578125;9.92999997492916;994;1 A
33.1987449161812;-0.5997314453125;-0.004986572265625;9.93999997490391;995;1 A
33.208744916156;-0.59979248046875;-0.0050018310546875;9.94999997487866;996;1 A
33.2187449161307;-0.59979248046875;-0.00501708984375;9.95999997485342;997;1 A
33.2287449161055;-0.599761962890625;-0.00501403808593751;9.96999997482817;998;1 A
33.2387449160802;-0.599700927734375;-0.005023193359375;9.97999997480292;999;1 A
33.248744916055;-0.5997314453125;-0.00501403808593751;9.98999997477767;1000;1 A
