Time (s);WE(1).Potential (V);WE(1).Current (A);Corrected time (s);Index;Current range;Overload
33.8190389146151;-0.89569091796875;-2.3419189453125;0;1;1 A;Current overload
33.8290389145899;-0.97930908203125;-1.8804931640625;0.00999999997475243;2;1 A;
33.8390389145646;-1.00067138671875;-1.37847900390625;0.0199999999495049;3;1 A;
33.8490389145394;-1.00006103515625;-1.158447265625;0.0299999999242573;4;1 A;
33.8590389145141;-0.999755859375;-1.021728515625;0.0399999998990097;5;1 A;
33.8690389144889;-1.00006103515625;-0.92559814453125;0.0499999998737621;6;1 A;
33.8790389144636;-1.00006103515625;-0.85357666015625;0.0599999998485146;7;1 A;
33.8890389144384;-0.999755859375;-0.79681396484375;0.069999999823267;8;1 A;
33.8990389144132;-0.999755859375;-0.75103759765625;0.0799999997980194;9;1 A;
33.9090389143879;-0.999755859375;-0.71258544921875;0.0899999997727718;10;1 A;
33.9190389143627;-0.9991455078125;-0.679931640625;0.0999999997475243;11;1 A;
33.9290389143374;-1.00006103515625;-0.65185546875;0.109999999722277;12;1 A;
33.9390389143122;-0.9991455078125;-0.62774658203125;0.119999999697029;13;1 A;
33.9490389142869;-0.99945068359375;-0.606689453125;0.129999999671782;14;1 A;
33.9590389142617;-0.99945068359375;-0.5877685546875;0.139999999646534;15;1 A;
33.9690389142364;-0.999755859375;-0.57159423828125;0.149999999621286;16;1 A;
33.9790389142112;-0.999755859375;-0.556640625;0.159999999596039;17;1 A;
33.9890389141859;-1.00006103515625;-0.543212890625;0.169999999570791;18;1 A;
33.9990389141607;-0.9991455078125;-0.53131103515625;0.179999999545544;19;1 A;
34.0090389141354;-0.999755859375;-0.52032470703125;0.189999999520296;20;1 A;
34.0190389141102;-1.00006103515625;-0.51055908203125;0.199999999495049;21;1 A;
34.0290389140849;-1.0003662109375;-0.50140380859375;0.209999999469801;22;1 A;
34.0390389140597;-0.999755859375;-0.49346923828125;0.219999999444553;23;1 A;
34.0490389140344;-0.99945068359375;-0.486480712890625;0.229999999419306;24;1 A;
34.0590389140092;-1.00006103515625;-0.479888916015625;0.239999999394058;25;1 A;
34.0690389139839;-0.99945068359375;-0.47393798828125;0.249999999368811;26;1 A;
34.0790389139587;-0.99945068359375;-0.46832275390625;0.259999999343563;27;1 A;
34.0890389139335;-0.999755859375;-0.463043212890625;0.269999999318316;28;1 A;
34.0990389139082;-0.999755859375;-0.458343505859375;0.279999999293068;29;1 A;
34.109038913883;-0.999755859375;-0.453643798828125;0.28999999926782;30;1 A;
34.1190389138577;-0.999755859375;-0.44921875;0.299999999242573;31;1 A;
34.1290389138325;-1.0003662109375;-0.445404052734375;0.309999999217325;32;1 A;
34.1390389138072;-0.999755859375;-0.44158935546875;0.319999999192078;33;1 A;
34.149038913782;-0.99945068359375;-0.4383544921875;0.32999999916683;34;1 A;
34.1590389137567;-0.99945068359375;-0.43511962890625;0.339999999141583;35;1 A;
34.1690389137315;-0.999755859375;-0.43206787109375;0.349999999116335;36;1 A;
34.1790389137062;-1.00006103515625;-0.429473876953125;0.359999999091087;37;1 A;
34.189038913681;-0.9991455078125;-0.426605224609375;0.36999999906584;38;1 A;
34.1990389136557;-0.99884033203125;-0.424407958984375;0.379999999040592;39;1 A;
34.2090389136305;-0.999755859375;-0.4222412109375;0.389999999015345;40;1 A;
34.2190389136052;-0.999755859375;-0.419952392578125;0.399999998990097;41;1 A;
34.22903891358;-0.999755859375;-0.4178466796875;0.40999999896485;42;1 A;
34.2390389135547;-0.99945068359375;-0.4158935546875;0.419999998939602;43;1 A;
34.2490389135295;-0.99945068359375;-0.41412353515625;0.429999998914354;44;1 A;
34.2590389135042;-0.99945068359375;-0.412750244140625;0.439999998889107;45;1 A;
34.269038913479;-0.99945068359375;-0.4110107421875;0.449999998863859;46;1 A;
34.2790389134537;-0.99945068359375;-0.40972900390625;0.459999998838612;47;1 A;
34.2890389134285;-0.9991455078125;-0.40869140625;0.469999998813364;48;1 A;
34.2990389134033;-0.999755859375;-0.40771484375;0.479999998788116;49;1 A;
34.309038913378;-0.99945068359375;-0.40667724609375;0.489999998762869;50;1 A;
34.3190389133528;-0.99945068359375;-0.4056396484375;0.499999998737621;51;1 A;
34.3290389133275;-0.999755859375;-0.404510498046875;0.509999998712374;52;1 A;
34.3390389133023;-1.00006103515625;-0.403717041015625;0.519999998687126;53;1 A;
34.349038913277;-0.9991455078125;-0.40264892578125;0.529999998661879;54;1 A;
34.3590389132518;-0.99945068359375;-0.4017333984375;0.539999998636631;55;1 A;
34.3690389132265;-0.999755859375;-0.400848388671875;0.549999998611383;56;1 A;
34.3790389132013;-1.00006103515625;-0.39959716796875;0.559999998586136;57;1 A;
34.389038913176;-0.99945068359375;-0.398590087890625;0.569999998560888;58;1 A;
34.3990389131508;-0.999755859375;-0.39727783203125;0.579999998535641;59;1 A;
34.4090389131255;-1.00006103515625;-0.39593505859375;0.589999998510393;60;1 A;
34.4190389131003;-1.00006103515625;-0.394683837890625;0.599999998485146;61;1 A;
34.429038913075;-1.00006103515625;-0.392974853515625;0.609999998459898;62;1 A;
34.4390389130498;-0.99945068359375;-0.39178466796875;0.61999999843465;63;1 A;
34.4490389130245;-0.999755859375;-0.390838623046875;0.629999998409403;64;1 A;
34.4590389129993;-0.99945068359375;-0.389312744140625;0.639999998384155;65;1 A;
34.469038912974;-0.9991455078125;-0.38812255859375;0.649999998358908;66;1 A;
34.4790389129488;-0.999755859375;-0.38677978515625;0.65999999833366;67;1 A;
34.4890389129235;-1.00006103515625;-0.3858642578125;0.669999998308413;68;1 A;
34.4990389128983;-1.0003662109375;-0.3851318359375;0.679999998283165;69;1 A;
34.5090389128731;-0.999755859375;-0.3843994140625;0.689999998257917;70;1 A;
34.5190389128478;-1.00006103515625;-0.38348388671875;0.69999999823267;71;1 A;
34.5290389128226;-0.99945068359375;-0.382965087890625;0.709999998207422;72;1 A;
34.5390389127973;-0.99945068359375;-0.381927490234375;0.719999998182175;73;1 A;
34.5490389127721;-0.9991455078125;-0.3809814453125;0.729999998156927;74;1 A;
34.5590389127468;-0.99945068359375;-0.379547119140625;0.73999999813168;75;1 A;
34.5690389127216;-0.9991455078125;-0.378265380859375;0.749999998106432;76;1 A;
34.5790389126963;-0.99945068359375;-0.377227783203125;0.759999998081184;77;1 A;
34.5890389126711;-0.999755859375;-0.37603759765625;0.769999998055937;78;1 A;
34.5990389126458;-1.0003662109375;-0.375335693359375;0.779999998030689;79;1 A;
34.6090389126206;-0.99945068359375;-0.37457275390625;0.789999998005442;80;1 A;
34.6190389125953;-0.999755859375;-0.373382568359375;0.799999997980194;81;1 A;
34.6290389125701;-1.00006103515625;-0.372344970703125;0.809999997954947;82;1 A;
34.6390389125448;-0.999755859375;-0.371368408203125;0.819999997929699;83;1 A;
34.6490389125196;-0.999755859375;-0.37042236328125;0.829999997904451;84;1 A;
34.6590389124943;-0.99945068359375;-0.369873046875;0.839999997879204;85;1 A;
34.6690389124691;-0.99945068359375;-0.368927001953125;0.849999997853956;86;1 A;
34.6790389124438;-0.99945068359375;-0.3685302734375;0.859999997828709;87;1 A;
34.6890389124186;-1.0003662109375;-0.36822509765625;0.869999997803461;88;1 A;
34.6990389123933;-0.999755859375;-0.36761474609375;0.879999997778214;89;1 A;
34.7090389123681;-0.999755859375;-0.36688232421875;0.889999997752966;90;1 A;
34.7190389123429;-0.999755859375;-0.366058349609375;0.899999997727718;91;1 A;
34.7290389123176;-0.99945068359375;-0.3653564453125;0.909999997702471;92;1 A;
34.7390389122924;-0.99945068359375;-0.365020751953125;0.919999997677223;93;1 A;
34.7490389122671;-1.00006103515625;-0.364654541015625;0.929999997651976;94;1 A;
34.7590389122419;-0.99945068359375;-0.364532470703125;0.939999997626728;95;1 A;
34.7690389122166;-1.00006103515625;-0.364501953125;0.949999997601481;96;1 A;
34.7790389121914;-0.99945068359375;-0.364166259765625;0.959999997576233;97;1 A;
34.7890389121661;-0.999755859375;-0.364227294921875;0.969999997550985;98;1 A;
34.7990389121409;-0.99945068359375;-0.363922119140625;0.979999997525738;99;1 A;
34.8090389121156;-0.999755859375;-0.363922119140625;0.98999999750049;100;1 A;
34.8190389120904;-1.00006103515625;-0.363983154296875;0.999999997475243;101;1 A;
34.8290389120651;-0.999755859375;-0.363861083984375;1.00999999745;102;1 A;
34.8390389120399;-0.999755859375;-0.364166259765625;1.01999999742475;103;1 A;
34.8490389120146;-0.99945068359375;-0.364654541015625;1.0299999973995;104;1 A;
34.8590389119894;-0.99945068359375;-0.364410400390625;1.03999999737425;105;1 A;
34.8690389119641;-0.99945068359375;-0.36456298828125;1.049999997349;106;1 A;
34.8790389119389;-0.999755859375;-0.36444091796875;1.05999999732376;107;1 A;
34.8890389119136;-1.00006103515625;-0.36456298828125;1.06999999729851;108;1 A;
34.8990389118884;-1.00006103515625;-0.364593505859375;1.07999999727326;109;1 A;
34.9090389118631;-0.999755859375;-0.364532470703125;1.08999999724801;110;1 A;
34.9190389118379;-0.99945068359375;-0.364288330078125;1.09999999722277;111;1 A;
34.9290389118127;-1.00006103515625;-0.364501953125;1.10999999719752;112;1 A;
34.9390389117874;-0.999755859375;-0.36431884765625;1.11999999717227;113;1 A;
34.9490389117622;-0.999755859375;-0.36431884765625;1.12999999714702;114;1 A;
34.9590389117369;-1.00006103515625;-0.363983154296875;1.13999999712178;115;1 A;
34.9690389117117;-0.99945068359375;-0.36395263671875;1.14999999709653;116;1 A;
34.9790389116864;-1.00006103515625;-0.364013671875;1.15999999707128;117;1 A;
34.9890389116612;-0.99945068359375;-0.3641357421875;1.16999999704603;118;1 A;
34.9990389116359;-0.999755859375;-0.364471435546875;1.17999999702079;119;1 A;
35.0090389116107;-0.99945068359375;-0.36480712890625;1.18999999699554;120;1 A;
35.0190389115854;-0.999755859375;-0.364532470703125;1.19999999697029;121;1 A;
35.0290389115602;-0.9991455078125;-0.364532470703125;1.20999999694504;122;1 A;
35.0390389115349;-0.999755859375;-0.3642578125;1.2199999969198;123;1 A;
35.0490389115097;-0.99945068359375;-0.364013671875;1.22999999689455;124;1 A;
35.0590389114844;-1.00006103515625;-0.363739013671875;1.2399999968693;125;1 A;
35.0690389114592;-0.999755859375;-0.362945556640625;1.24999999684405;126;1 A;
35.0790389114339;-1.00006103515625;-0.362640380859375;1.25999999681881;127;1 A;
35.0890389114087;-0.99945068359375;-0.362213134765625;1.26999999679356;128;1 A;
35.0990389113834;-0.99945068359375;-0.3614501953125;1.27999999676831;129;1 A;
35.1090389113582;-0.999755859375;-0.360870361328125;1.28999999674306;130;1 A;
35.119038911333;-0.99945068359375;-0.360321044921875;1.29999999671782;131;1 A;
35.1290389113077;-0.99945068359375;-0.360198974609375;1.30999999669257;132;1 A;
35.1390389112825;-0.99945068359375;-0.360198974609375;1.31999999666732;133;1 A;
35.1490389112572;-0.999755859375;-0.36041259765625;1.32999999664207;134;1 A;
35.159038911232;-0.99945068359375;-0.360565185546875;1.33999999661683;135;1 A;
35.1690389112067;-0.999755859375;-0.360931396484375;1.34999999659158;136;1 A;
35.1790389111815;-0.99945068359375;-0.360870361328125;1.35999999656633;137;1 A;
35.1890389111562;-0.999755859375;-0.361358642578125;1.36999999654108;138;1 A;
35.199038911131;-0.999755859375;-0.361236572265625;1.37999999651583;139;1 A;
35.2090389111057;-0.999755859375;-0.361602783203125;1.38999999649059;140;1 A;
35.2190389110805;-1.0003662109375;-0.361724853515625;1.39999999646534;141;1 A;
35.2290389110552;-0.99945068359375;-0.361907958984375;1.40999999644009;142;1 A;
35.23903891103;-0.99945068359375;-0.362152099609375;1.41999999641484;143;1 A;
35.2490389110047;-0.99945068359375;-0.362457275390625;1.4299999963896;144;1 A;
35.2590389109795;-1.00006103515625;-0.36181640625;1.43999999636435;145;1 A;
35.2690389109542;-0.999755859375;-0.361846923828125;1.4499999963391;146;1 A;
35.279038910929;-1.00006103515625;-0.362030029296875;1.45999999631385;147;1 A;
35.2890389109037;-0.999755859375;-0.362823486328125;1.46999999628861;148;1 A;
35.2990389108785;-0.999755859375;-0.363800048828125;1.47999999626336;149;1 A;
35.3090389108532;-1.00006103515625;-0.364898681640625;1.48999999623811;150;1 A;
35.319038910828;-0.999755859375;-0.365692138671875;1.49999999621286;151;1 A;
35.3290389108028;-0.99945068359375;-0.366790771484375;1.50999999618762;152;1 A;
35.3390389107775;-0.99945068359375;-0.3668212890625;1.51999999616237;153;1 A;
35.3490389107523;-1.00006103515625;-0.36700439453125;1.52999999613712;154;1 A;
35.359038910727;-0.99945068359375;-0.366607666015625;1.53999999611187;155;1 A;
35.3690389107018;-0.9991455078125;-0.366485595703125;1.54999999608663;156;1 A;
35.3790389106765;-0.999755859375;-0.36614990234375;1.55999999606138;157;1 A;
35.3890389106513;-1.0003662109375;-0.365875244140625;1.56999999603613;158;1 A;
35.399038910626;-0.99945068359375;-0.3656005859375;1.57999999601088;159;1 A;
35.4090389106008;-0.99945068359375;-0.36529541015625;1.58999999598564;160;1 A;
35.4190389105755;-0.999755859375;-0.364501953125;1.59999999596039;161;1 A;
35.4290389105503;-0.999755859375;-0.3642578125;1.60999999593514;162;1 A;
35.439038910525;-0.999755859375;-0.363983154296875;1.61999999590989;163;1 A;
35.4490389104998;-0.99945068359375;-0.363922119140625;1.62999999588465;164;1 A;
35.4590389104745;-0.999755859375;-0.363983154296875;1.6399999958594;165;1 A;
35.4690389104493;-1.0003662109375;-0.363494873046875;1.64999999583415;166;1 A;
35.479038910424;-0.99945068359375;-0.363616943359375;1.6599999958089;167;1 A;
35.4890389103988;-1.00006103515625;-0.363739013671875;1.66999999578366;168;1 A;
35.4990389103735;-0.999755859375;-0.36309814453125;1.67999999575841;169;1 A;
35.5090389103483;-0.9991455078125;-0.36260986328125;1.68999999573316;170;1 A;
35.519038910323;-1.0003662109375;-0.36199951171875;1.69999999570791;171;1 A;
35.5290389102978;-0.99945068359375;-0.361907958984375;1.70999999568267;172;1 A;
35.5390389102726;-1.00006103515625;-0.361480712890625;1.71999999565742;173;1 A;
35.5490389102473;-0.99945068359375;-0.361541748046875;1.72999999563217;174;1 A;
35.5590389102221;-0.999755859375;-0.3609619140625;1.73999999560692;175;1 A;
35.5690389101968;-1.00006103515625;-0.360992431640625;1.74999999558167;176;1 A;
35.5790389101716;-1.00006103515625;-0.360015869140625;1.75999999555643;177;1 A;
35.5890389101463;-0.999755859375;-0.3599853515625;1.76999999553118;178;1 A;
35.5990389101211;-0.99945068359375;-0.359375;1.77999999550593;179;1 A;
35.6090389100958;-0.999755859375;-0.359710693359375;1.78999999548068;180;1 A;
35.6190389100706;-0.999755859375;-0.359466552734375;1.79999999545544;181;1 A;
35.6290389100453;-1.0003662109375;-0.359771728515625;1.80999999543019;182;1 A;
35.6390389100201;-0.999755859375;-0.359771728515625;1.81999999540494;183;1 A;
35.6490389099948;-0.999755859375;-0.36016845703125;1.82999999537969;184;1 A;
35.6590389099696;-0.999755859375;-0.3590087890625;1.83999999535445;185;1 A;
35.6690389099443;-0.999755859375;-0.358551025390625;1.8499999953292;186;1 A;
35.6790389099191;-1.0003662109375;-0.35784912109375;1.85999999530395;187;1 A;
35.6890389098938;-0.999755859375;-0.357513427734375;1.8699999952787;188;1 A;
35.6990389098686;-0.999755859375;-0.35699462890625;1.87999999525346;189;1 A;
35.7090389098433;-0.9991455078125;-0.356536865234375;1.88999999522821;190;1 A;
35.7190389098181;-1.00006103515625;-0.356292724609375;1.89999999520296;191;1 A;
35.7290389097928;-0.99945068359375;-0.35626220703125;1.90999999517771;192;1 A;
35.7390389097676;-0.99945068359375;-0.355438232421875;1.91999999515247;193;1 A;
35.7490389097424;-0.999755859375;-0.354949951171875;1.92999999512722;194;1 A;
35.7590389097171;-1.00006103515625;-0.354644775390625;1.93999999510197;195;1 A;
35.7690389096919;-1.00006103515625;-0.354888916015625;1.94999999507672;196;1 A;
35.7790389096666;-0.99945068359375;-0.355224609375;1.95999999505148;197;1 A;
35.7890389096414;-0.99945068359375;-0.355987548828125;1.96999999502623;198;1 A;
35.7990389096161;-0.999755859375;-0.356781005859375;1.97999999500098;199;1 A;
35.8090389095909;-0.999755859375;-0.357086181640625;1.98999999497573;200;1 A;
35.8190389095656;-1.00006103515625;-0.35693359375;1.99999999495049;201;1 A;
35.8290389095404;-1.00006103515625;-0.35711669921875;2.00999999492524;202;1 A;
35.8390389095151;-0.999755859375;-0.35699462890625;2.01999999489999;203;1 A;
35.8490389094899;-0.99945068359375;-0.35723876953125;2.02999999487474;204;1 A;
35.8590389094646;-1.00006103515625;-0.357574462890625;2.0399999948495;205;1 A;
35.8690389094394;-0.99945068359375;-0.35791015625;2.04999999482425;206;1 A;
35.8790389094141;-0.99945068359375;-0.35888671875;2.059999994799;207;1 A;
35.8890389093889;-0.999755859375;-0.35992431640625;2.06999999477375;208;1 A;
35.8990389093636;-0.999755859375;-0.359893798828125;2.0799999947485;209;1 A;
35.9090389093384;-0.999755859375;-0.36029052734375;2.08999999472326;210;1 A;
35.9190389093131;-0.9991455078125;-0.360382080078125;2.09999999469801;211;1 A;
35.9290389092879;-0.99945068359375;-0.36138916015625;2.10999999467276;212;1 A;
35.9390389092626;-0.999755859375;-0.361602783203125;2.11999999464751;213;1 A;
35.9490389092374;-1.00006103515625;-0.363006591796875;2.12999999462227;214;1 A;
35.9590389092122;-0.999755859375;-0.36346435546875;2.13999999459702;215;1 A;
35.9690389091869;-1.00006103515625;-0.364898681640625;2.14999999457177;216;1 A;
35.9790389091617;-0.999755859375;-0.364715576171875;2.15999999454652;217;1 A;
35.9890389091364;-0.999755859375;-0.365814208984375;2.16999999452128;218;1 A;
35.9990389091112;-0.999755859375;-0.36602783203125;2.17999999449603;219;1 A;
36.0090389090859;-0.999755859375;-0.367279052734375;2.18999999447078;220;1 A;
36.0190389090607;-0.99945068359375;-0.36761474609375;2.19999999444553;221;1 A;
36.0290389090354;-1.00006103515625;-0.3687744140625;2.20999999442029;222;1 A;
36.0390389090102;-0.999755859375;-0.369232177734375;2.21999999439504;223;1 A;
36.0490389089849;-1.00006103515625;-0.370391845703125;2.22999999436979;224;1 A;
36.0590389089597;-0.99945068359375;-0.369842529296875;2.23999999434454;225;1 A;
36.0690389089344;-0.999755859375;-0.37030029296875;2.2499999943193;226;1 A;
36.0790389089092;-0.999755859375;-0.370758056640625;2.25999999429405;227;1 A;
36.0890389088839;-0.999755859375;-0.3714599609375;2.2699999942688;228;1 A;
36.0990389088587;-1.00006103515625;-0.372039794921875;2.27999999424355;229;1 A;
36.1090389088334;-1.00006103515625;-0.372314453125;2.28999999421831;230;1 A;
36.1190389088082;-0.999755859375;-0.372894287109375;2.29999999419306;231;1 A;
36.1290389087829;-0.999755859375;-0.3736572265625;2.30999999416781;232;1 A;
36.1390389087577;-0.999755859375;-0.37335205078125;2.31999999414256;233;1 A;
36.1490389087325;-1.00006103515625;-0.3731689453125;2.32999999411732;234;1 A;
36.1590389087072;-1.00006103515625;-0.37335205078125;2.33999999409207;235;1 A;
36.169038908682;-0.99945068359375;-0.37353515625;2.34999999406682;236;1 A;
36.1790389086567;-0.9991455078125;-0.373565673828125;2.35999999404157;237;1 A;
36.1890389086315;-0.99945068359375;-0.373809814453125;2.36999999401633;238;1 A;
36.1990389086062;-1.00006103515625;-0.3739013671875;2.37999999399108;239;1 A;
36.209038908581;-0.99945068359375;-0.373870849609375;2.38999999396583;240;1 A;
36.2190389085557;-0.99945068359375;-0.37335205078125;2.39999999394058;241;1 A;
36.2290389085305;-0.99945068359375;-0.373504638671875;2.40999999391533;242;1 A;
36.2390389085052;-0.999755859375;-0.37335205078125;2.41999999389009;243;1 A;
36.24903890848;-0.999755859375;-0.3740234375;2.42999999386484;244;1 A;
36.2590389084547;-0.99945068359375;-0.37432861328125;2.43999999383959;245;1 A;
36.2690389084295;-0.99945068359375;-0.374847412109375;2.44999999381434;246;1 A;
36.2790389084042;-0.999755859375;-0.37542724609375;2.4599999937891;247;1 A;
36.289038908379;-0.99945068359375;-0.37652587890625;2.46999999376385;248;1 A;
36.2990389083537;-0.999755859375;-0.37567138671875;2.4799999937386;249;1 A;
36.3090389083285;-1.00006103515625;-0.375732421875;2.48999999371335;250;1 A;
36.3190389083032;-0.99945068359375;-0.375335693359375;2.49999999368811;251;1 A;
36.329038908278;-0.9991455078125;-0.376190185546875;2.50999999366286;252;1 A;
36.3390389082527;-0.9991455078125;-0.375457763671875;2.51999999363761;253;1 A;
36.3490389082275;-0.99945068359375;-0.3763427734375;2.52999999361236;254;1 A;
36.3590389082023;-0.999755859375;-0.375762939453125;2.53999999358712;255;1 A;
36.369038908177;-0.99884033203125;-0.376556396484375;2.54999999356187;256;1 A;
36.3790389081518;-0.999755859375;-0.37506103515625;2.55999999353662;257;1 A;
36.3890389081265;-0.999755859375;-0.375091552734375;2.56999999351137;258;1 A;
36.3990389081013;-0.9991455078125;-0.37408447265625;2.57999999348613;259;1 A;
36.409038908076;-0.999755859375;-0.374298095703125;2.58999999346088;260;1 A;
36.4190389080508;-0.99945068359375;-0.373138427734375;2.59999999343563;261;1 A;
36.4290389080255;-0.99945068359375;-0.373382568359375;2.60999999341038;262;1 A;
36.4390389080003;-0.99945068359375;-0.372650146484375;2.61999999338514;263;1 A;
36.449038907975;-0.99945068359375;-0.373016357421875;2.62999999335989;264;1 A;
36.4590389079498;-0.999755859375;-0.371246337890625;2.63999999333464;265;1 A;
36.4690389079245;-0.999755859375;-0.37078857421875;2.64999999330939;266;1 A;
36.4790389078993;-0.999755859375;-0.37066650390625;2.65999999328415;267;1 A;
36.489038907874;-0.99945068359375;-0.37060546875;2.6699999932589;268;1 A;
36.4990389078488;-1.00006103515625;-0.37078857421875;2.67999999323365;269;1 A;
36.5090389078235;-0.999755859375;-0.37091064453125;2.6899999932084;270;1 A;
36.5190389077983;-0.999755859375;-0.371734619140625;2.69999999318316;271;1 A;
36.529038907773;-0.999755859375;-0.372802734375;2.70999999315791;272;1 A;
36.5390389077478;-0.999755859375;-0.372528076171875;2.71999999313266;273;1 A;
36.5490389077225;-0.99945068359375;-0.37255859375;2.72999999310741;274;1 A;
36.5590389076973;-1.00006103515625;-0.373260498046875;2.73999999308217;275;1 A;
36.5690389076721;-0.99945068359375;-0.373748779296875;2.74999999305692;276;1 A;
36.5790389076468;-1.00006103515625;-0.373687744140625;2.75999999303167;277;1 A;
36.5890389076216;-0.99945068359375;-0.374176025390625;2.76999999300642;278;1 A;
36.5990389075963;-0.999755859375;-0.373870849609375;2.77999999298117;279;1 A;
36.6090389075711;-0.99945068359375;-0.37347412109375;2.78999999295593;280;1 A;
36.6190389075458;-0.99945068359375;-0.372161865234375;2.79999999293068;281;1 A;
36.6290389075206;-0.99945068359375;-0.3719482421875;2.80999999290543;282;1 A;
36.6390389074953;-1.00006103515625;-0.3709716796875;2.81999999288018;283;1 A;
36.6490389074701;-0.99945068359375;-0.371551513671875;2.82999999285494;284;1 A;
36.6590389074448;-0.999755859375;-0.3709716796875;2.83999999282969;285;1 A;
36.6690389074196;-0.99945068359375;-0.37139892578125;2.84999999280444;286;1 A;
36.6790389073943;-0.999755859375;-0.37164306640625;2.85999999277919;287;1 A;
36.6890389073691;-0.999755859375;-0.373077392578125;2.86999999275395;288;1 A;
36.6990389073438;-0.999755859375;-0.371978759765625;2.8799999927287;289;1 A;
36.7090389073186;-0.999755859375;-0.372528076171875;2.88999999270345;290;1 A;
36.7190389072933;-0.99945068359375;-0.3724365234375;2.8999999926782;291;1 A;
36.7290389072681;-0.999755859375;-0.373687744140625;2.90999999265296;292;1 A;
36.7390389072428;-1.00006103515625;-0.372894287109375;2.91999999262771;293;1 A;
36.7490389072176;-0.99945068359375;-0.37347412109375;2.92999999260246;294;1 A;
36.7590389071923;-1.00006103515625;-0.372772216796875;2.93999999257721;295;1 A;
36.7690389071671;-0.999755859375;-0.37347412109375;2.94999999255197;296;1 A;
36.7790389071419;-0.99945068359375;-0.37164306640625;2.95999999252672;297;1 A;
36.7890389071166;-1.00006103515625;-0.37139892578125;2.96999999250147;298;1 A;
36.7990389070914;-0.99945068359375;-0.370819091796875;2.97999999247622;299;1 A;
36.8090389070661;-0.999755859375;-0.371429443359375;2.98999999245098;300;1 A;
36.8190389070409;-1.00006103515625;-0.370819091796875;2.99999999242573;301;1 A;
36.8290389070156;-1.00006103515625;-0.3717041015625;3.00999999240048;302;1 A;
36.8390389069904;-0.999755859375;-0.37158203125;3.01999999237523;303;1 A;
36.8490389069651;-1.00006103515625;-0.372589111328125;3.02999999234999;304;1 A;
36.8590389069399;-0.99945068359375;-0.37139892578125;3.03999999232474;305;1 A;
36.8690389069146;-1.0003662109375;-0.37139892578125;3.04999999229949;306;1 A;
36.8790389068894;-0.999755859375;-0.371734619140625;3.05999999227424;307;1 A;
36.8890389068641;-0.99945068359375;-0.371826171875;3.069999992249;308;1 A;
36.8990389068389;-0.999755859375;-0.3717041015625;3.07999999222375;309;1 A;
36.9090389068136;-0.99945068359375;-0.371124267578125;3.0899999921985;310;1 A;
36.9190389067884;-1.0003662109375;-0.371337890625;3.09999999217325;311;1 A;
36.9290389067631;-0.999755859375;-0.371856689453125;3.109999992148;312;1 A;
36.9390389067379;-0.99945068359375;-0.37078857421875;3.11999999212276;313;1 A;
36.9490389067126;-1.00006103515625;-0.370025634765625;3.12999999209751;314;1 A;
36.9590389066874;-1.00006103515625;-0.3702392578125;3.13999999207226;315;1 A;
36.9690389066621;-1.00006103515625;-0.370574951171875;3.14999999204701;316;1 A;
36.9790389066369;-0.999755859375;-0.36993408203125;3.15999999202177;317;1 A;
36.9890389066117;-0.999755859375;-0.37042236328125;3.16999999199652;318;1 A;
36.9990389065864;-0.999755859375;-0.36993408203125;3.17999999197127;319;1 A;
37.0090389065612;-0.99945068359375;-0.370086669921875;3.18999999194602;320;1 A;
37.0190389065359;-0.999755859375;-0.368621826171875;3.19999999192078;321;1 A;
37.0290389065107;-1.00006103515625;-0.36907958984375;3.20999999189553;322;1 A;
37.0390389064854;-0.9991455078125;-0.36846923828125;3.21999999187028;323;1 A;
37.0490389064602;-0.99945068359375;-0.369873046875;3.22999999184503;324;1 A;
37.0590389064349;-0.9991455078125;-0.36932373046875;3.23999999181979;325;1 A;
37.0690389064097;-1.00006103515625;-0.370361328125;3.24999999179454;326;1 A;
37.0790389063844;-0.999755859375;-0.370452880859375;3.25999999176929;327;1 A;
37.0890389063592;-1.00006103515625;-0.37213134765625;3.26999999174404;328;1 A;
37.0990389063339;-1.00006103515625;-0.370208740234375;3.2799999917188;329;1 A;
37.1090389063087;-0.99945068359375;-0.370147705078125;3.28999999169355;330;1 A;
37.1190389062834;-0.999755859375;-0.369964599609375;3.2999999916683;331;1 A;
37.1290389062582;-1.0003662109375;-0.370880126953125;3.30999999164305;332;1 A;
37.1390389062329;-0.999755859375;-0.37005615234375;3.31999999161781;333;1 A;
37.1490389062077;-1.00006103515625;-0.37060546875;3.32999999159256;334;1 A;
37.1590389061824;-0.999755859375;-0.37060546875;3.33999999156731;335;1 A;
37.1690389061572;-0.999755859375;-0.37213134765625;3.34999999154206;336;1 A;
37.179038906132;-0.99945068359375;-0.370880126953125;3.35999999151682;337;1 A;
37.1890389061067;-0.999755859375;-0.370758056640625;3.36999999149157;338;1 A;
37.1990389060815;-0.999755859375;-0.370758056640625;3.37999999146632;339;1 A;
37.2090389060562;-0.999755859375;-0.371734619140625;3.38999999144107;340;1 A;
37.219038906031;-0.99945068359375;-0.371185302734375;3.39999999141583;341;1 A;
37.2290389060057;-0.99945068359375;-0.372406005859375;3.40999999139058;342;1 A;
37.2390389059805;-1.00006103515625;-0.372314453125;3.41999999136533;343;1 A;
37.2490389059552;-0.999755859375;-0.373748779296875;3.42999999134008;344;1 A;
37.25903890593;-1.00006103515625;-0.372100830078125;3.43999999131483;345;1 A;
37.2690389059047;-0.99945068359375;-0.372589111328125;3.44999999128959;346;1 A;
37.2790389058795;-1.00006103515625;-0.372955322265625;3.45999999126434;347;1 A;
37.2890389058542;-0.999755859375;-0.3739013671875;3.46999999123909;348;1 A;
37.299038905829;-1.00006103515625;-0.3741455078125;3.47999999121384;349;1 A;
37.3090389058037;-0.99945068359375;-0.374664306640625;3.4899999911886;350;1 A;
37.3190389057785;-0.999755859375;-0.37567138671875;3.49999999116335;351;1 A;
37.3290389057532;-0.999755859375;-0.37738037109375;3.5099999911381;352;1 A;
37.339038905728;-0.99945068359375;-0.376220703125;3.51999999111285;353;1 A;
37.3490389057027;-1.00006103515625;-0.3758544921875;3.52999999108761;354;1 A;
37.3590389056775;-0.9991455078125;-0.37652587890625;3.53999999106236;355;1 A;
37.3690389056522;-0.999755859375;-0.3775634765625;3.54999999103711;356;1 A;
37.379038905627;-0.99945068359375;-0.376922607421875;3.55999999101186;357;1 A;
37.3890389056018;-0.99945068359375;-0.37847900390625;3.56999999098662;358;1 A;
37.3990389055765;-0.99945068359375;-0.37847900390625;3.57999999096137;359;1 A;
37.4090389055513;-0.999755859375;-0.379669189453125;3.58999999093612;360;1 A;
37.419038905526;-0.99945068359375;-0.378448486328125;3.59999999091087;361;1 A;
37.4290389055008;-0.9991455078125;-0.37957763671875;3.60999999088563;362;1 A;
37.4390389054755;-0.99945068359375;-0.379547119140625;3.61999999086038;363;1 A;
37.4490389054503;-0.99945068359375;-0.381683349609375;3.62999999083513;364;1 A;
37.459038905425;-0.999755859375;-0.38116455078125;3.63999999080988;365;1 A;
37.4690389053998;-0.999755859375;-0.382965087890625;3.64999999078464;366;1 A;
37.4790389053745;-0.999755859375;-0.383056640625;3.65999999075939;367;1 A;
37.4890389053493;-0.999755859375;-0.385772705078125;3.66999999073414;368;1 A;
37.499038905324;-1.0003662109375;-0.38385009765625;3.67999999070889;369;1 A;
37.5090389052988;-1.0003662109375;-0.38458251953125;3.68999999068365;370;1 A;
37.5190389052735;-0.99945068359375;-0.385284423828125;3.6999999906584;371;1 A;
37.5290389052483;-0.999755859375;-0.3870849609375;3.70999999063315;372;1 A;
37.539038905223;-0.999755859375;-0.386688232421875;3.7199999906079;373;1 A;
37.5490389051978;-0.99945068359375;-0.387542724609375;3.72999999058266;374;1 A;
37.5590389051725;-1.00006103515625;-0.388031005859375;3.73999999055741;375;1 A;
37.5690389051473;-0.999755859375;-0.390533447265625;3.74999999053216;376;1 A;
37.579038905122;-1.00006103515625;-0.388916015625;3.75999999050691;377;1 A;
37.5890389050968;-0.999755859375;-0.388946533203125;3.76999999048167;378;1 A;
37.5990389050716;-0.999755859375;-0.389404296875;3.77999999045642;379;1 A;
37.6090389050463;-0.999755859375;-0.390716552734375;3.78999999043117;380;1 A;
37.6190389050211;-1.0003662109375;-0.389892578125;3.79999999040592;381;1 A;
37.6290389049958;-1.00006103515625;-0.39080810546875;3.80999999038067;382;1 A;
37.6390389049706;-1.00006103515625;-0.390350341796875;3.81999999035543;383;1 A;
37.6490389049453;-0.999755859375;-0.39105224609375;3.82999999033018;384;1 A;
37.6590389049201;-0.999755859375;-0.388885498046875;3.83999999030493;385;1 A;
37.6690389048948;-1.00006103515625;-0.388702392578125;3.84999999027968;386;1 A;
37.6790389048696;-0.999755859375;-0.389007568359375;3.85999999025444;387;1 A;
37.6890389048443;-1.00006103515625;-0.388763427734375;3.86999999022919;388;1 A;
37.6990389048191;-0.999755859375;-0.38873291015625;3.87999999020394;389;1 A;
37.7090389047938;-0.999755859375;-0.388031005859375;3.88999999017869;390;1 A;
37.7190389047686;-0.9991455078125;-0.3885498046875;3.89999999015345;391;1 A;
37.7290389047433;-0.99945068359375;-0.38958740234375;3.9099999901282;392;1 A;
37.7390389047181;-0.99945068359375;-0.38787841796875;3.91999999010295;393;1 A;
37.7490389046928;-0.99945068359375;-0.38677978515625;3.9299999900777;394;1 A;
37.7590389046676;-0.999755859375;-0.38726806640625;3.93999999005246;395;1 A;
37.7690389046423;-0.9991455078125;-0.388336181640625;3.94999999002721;396;1 A;
37.7790389046171;-0.999755859375;-0.38720703125;3.95999999000196;397;1 A;
37.7890389045918;-0.999755859375;-0.388702392578125;3.96999998997671;398;1 A;
37.7990389045666;-0.999755859375;-0.388153076171875;3.97999998995147;399;1 A;
37.8090389045414;-1.00006103515625;-0.390228271484375;3.98999998992622;400;1 A;
37.8190389045161;-0.99945068359375;-0.38775634765625;3.99999998990097;401;1 A;
37.8290389044909;-0.99945068359375;-0.389434814453125;4.00999998987572;402;1 A;
37.8390389044656;-0.999755859375;-0.38861083984375;4.01999998985048;403;1 A;
37.8490389044404;-0.9991455078125;-0.3917236328125;4.02999998982523;404;1 A;
37.8590389044151;-0.999755859375;-0.3900146484375;4.03999998979998;405;1 A;
37.8690389043899;-0.999755859375;-0.392425537109375;4.04999998977473;406;1 A;
37.8790389043646;-1.0003662109375;-0.39166259765625;4.05999998974949;407;1 A;
37.8890389043394;-0.999755859375;-0.395416259765625;4.06999998972424;408;1 A;
37.8990389043141;-1.0003662109375;-0.39251708984375;4.07999998969899;409;1 A;
37.9090389042889;-0.999755859375;-0.393341064453125;4.08999998967374;410;1 A;
37.9190389042636;-1.00006103515625;-0.394134521484375;4.0999999896485;411;1 A;
37.9290389042384;-1.00006103515625;-0.39581298828125;4.10999998962325;412;1 A;
37.9390389042131;-1.00006103515625;-0.39532470703125;4.119999989598;413;1 A;
37.9490389041879;-0.99945068359375;-0.395538330078125;4.12999998957275;414;1 A;
37.9590389041626;-1.00006103515625;-0.396575927734375;4.1399999895475;415;1 A;
37.9690389041374;-1.00006103515625;-0.399078369140625;4.14999998952226;416;1 A;
37.9790389041121;-0.99945068359375;-0.39764404296875;4.15999998949701;417;1 A;
37.9890389040869;-1.00006103515625;-0.397064208984375;4.16999998947176;418;1 A;
37.9990389040616;-0.999755859375;-0.3988037109375;4.17999998944651;419;1 A;
38.0090389040364;-1.00006103515625;-0.399810791015625;4.18999998942127;420;1 A;
38.0190389040112;-0.999755859375;-0.4000244140625;4.19999998939602;421;1 A;
38.0290389039859;-0.999755859375;-0.4017333984375;4.20999998937077;422;1 A;
38.0390389039607;-0.9991455078125;-0.402313232421875;4.21999998934552;423;1 A;
38.0490389039354;-1.00006103515625;-0.40313720703125;4.22999998932028;424;1 A;
38.0590389039102;-0.9991455078125;-0.40240478515625;4.23999998929503;425;1 A;
38.0690389038849;-0.999755859375;-0.40283203125;4.24999998926978;426;1 A;
38.0790389038597;-1.00006103515625;-0.40374755859375;4.25999998924453;427;1 A;
38.0890389038344;-0.99945068359375;-0.40447998046875;4.26999998921929;428;1 A;
38.0990389038092;-0.999755859375;-0.40460205078125;4.27999998919404;429;1 A;
38.1090389037839;-0.999755859375;-0.4041748046875;4.28999998916879;430;1 A;
38.1190389037587;-0.999755859375;-0.40435791015625;4.29999998914354;431;1 A;
38.1290389037334;-0.99945068359375;-0.4063720703125;4.3099999891183;432;1 A;
38.1390389037082;-0.99945068359375;-0.403656005859375;4.31999998909305;433;1 A;
38.1490389036829;-0.99945068359375;-0.403076171875;4.3299999890678;434;1 A;
38.1590389036577;-0.999755859375;-0.4033203125;4.33999998904255;435;1 A;
38.1690389036324;-0.999755859375;-0.405975341796875;4.34999998901731;436;1 A;
38.1790389036072;-1.00006103515625;-0.40399169921875;4.35999998899206;437;1 A;
38.1890389035819;-1.00006103515625;-0.40618896484375;4.36999998896681;438;1 A;
38.1990389035567;-0.999755859375;-0.40472412109375;4.37999998894156;439;1 A;
38.2090389035315;-0.99945068359375;-0.4072265625;4.38999998891632;440;1 A;
38.2190389035062;-1.00006103515625;-0.402587890625;4.39999998889107;441;1 A;
38.229038903481;-0.99945068359375;-0.40386962890625;4.40999998886582;442;1 A;
38.2390389034557;-0.99945068359375;-0.402099609375;4.41999998884057;443;1 A;
38.2490389034305;-1.00006103515625;-0.404327392578125;4.42999998881533;444;1 A;
38.2590389034052;-0.99945068359375;-0.40087890625;4.43999998879008;445;1 A;
38.26903890338;-0.99945068359375;-0.4022216796875;4.44999998876483;446;1 A;
38.2790389033547;-0.999755859375;-0.399444580078125;4.45999998873958;447;1 A;
38.2890389033295;-1.0003662109375;-0.401611328125;4.46999998871433;448;1 A;
38.2990389033042;-1.00006103515625;-0.396820068359375;4.47999998868909;449;1 A;
38.309038903279;-0.999755859375;-0.395904541015625;4.48999998866384;450;1 A;
38.3190389032537;-0.99945068359375;-0.3961181640625;4.49999998863859;451;1 A;
38.3290389032285;-0.99945068359375;-0.3956298828125;4.50999998861334;452;1 A;
38.3390389032032;-0.999755859375;-0.394256591796875;4.5199999885881;453;1 A;
38.349038903178;-0.999755859375;-0.392425537109375;4.52999998856285;454;1 A;
38.3590389031527;-0.99945068359375;-0.392425537109375;4.5399999885376;455;1 A;
38.3690389031275;-0.999755859375;-0.393341064453125;4.54999998851235;456;1 A;
38.3790389031022;-1.00006103515625;-0.391143798828125;4.55999998848711;457;1 A;
38.389038903077;-0.99945068359375;-0.38824462890625;4.56999998846186;458;1 A;
38.3990389030517;-0.99945068359375;-0.38885498046875;4.57999998843661;459;1 A;
38.4090389030265;-1.00006103515625;-0.38824462890625;4.58999998841136;460;1 A;
38.4190389030013;-0.999755859375;-0.38714599609375;4.59999998838612;461;1 A;
38.429038902976;-0.99945068359375;-0.387542724609375;4.60999998836087;462;1 A;
38.4390389029508;-0.999755859375;-0.3865966796875;4.61999998833562;463;1 A;
38.4490389029255;-0.99884033203125;-0.38690185546875;4.62999998831037;464;1 A;
38.4590389029003;-0.99945068359375;-0.38421630859375;4.63999998828513;465;1 A;
38.469038902875;-0.999755859375;-0.38427734375;4.64999998825988;466;1 A;
38.4790389028498;-0.999755859375;-0.38311767578125;4.65999998823463;467;1 A;
38.4890389028245;-1.00006103515625;-0.384552001953125;4.66999998820938;468;1 A;
38.4990389027993;-1.0003662109375;-0.382781982421875;4.67999998818414;469;1 A;
38.509038902774;-0.999755859375;-0.3829345703125;4.68999998815889;470;1 A;
38.5190389027488;-0.99945068359375;-0.382232666015625;4.69999998813364;471;1 A;
38.5290389027235;-0.999755859375;-0.38531494140625;4.70999998810839;472;1 A;
38.5390389026983;-0.9991455078125;-0.380401611328125;4.71999998808315;473;1 A;
38.549038902673;-0.9991455078125;-0.3800048828125;4.7299999880579;474;1 A;
38.5590389026478;-0.999755859375;-0.37921142578125;4.73999998803265;475;1 A;
38.5690389026225;-1.00006103515625;-0.381103515625;4.7499999880074;476;1 A;
38.5790389025973;-0.999755859375;-0.378326416015625;4.75999998798216;477;1 A;
38.589038902572;-0.99945068359375;-0.380401611328125;4.76999998795691;478;1 A;
38.5990389025468;-1.00006103515625;-0.379150390625;4.77999998793166;479;1 A;
38.6090389025215;-0.999755859375;-0.382110595703125;4.78999998790641;480;1 A;
38.6190389024963;-1.00006103515625;-0.37799072265625;4.79999998788116;481;1 A;
38.6290389024711;-0.999755859375;-0.37957763671875;4.80999998785592;482;1 A;
38.6390389024458;-1.00006103515625;-0.379608154296875;4.81999998783067;483;1 A;
38.6490389024206;-0.99945068359375;-0.382537841796875;4.82999998780542;484;1 A;
38.6590389023953;-0.999755859375;-0.380767822265625;4.83999998778017;485;1 A;
38.6690389023701;-0.99945068359375;-0.3831787109375;4.84999998775493;486;1 A;
38.6790389023448;-0.99945068359375;-0.381683349609375;4.85999998772968;487;1 A;
38.6890389023196;-0.9991455078125;-0.385040283203125;4.86999998770443;488;1 A;
38.6990389022943;-0.9991455078125;-0.380523681640625;4.87999998767918;489;1 A;
38.7090389022691;-0.999755859375;-0.3804931640625;4.88999998765394;490;1 A;
38.7190389022438;-0.99945068359375;-0.381317138671875;4.89999998762869;491;1 A;
38.7290389022186;-0.999755859375;-0.38232421875;4.90999998760344;492;1 A;
38.7390389021933;-0.999755859375;-0.3819580078125;4.91999998757819;493;1 A;
38.7490389021681;-1.00006103515625;-0.381378173828125;4.92999998755295;494;1 A;
38.7590389021428;-0.999755859375;-0.382598876953125;4.9399999875277;495;1 A;
38.7690389021176;-1.00006103515625;-0.38507080078125;4.94999998750245;496;1 A;
38.7790389020923;-1.00006103515625;-0.382781982421875;4.9599999874772;497;1 A;
38.7890389020671;-0.99945068359375;-0.38153076171875;4.96999998745196;498;1 A;
38.7990389020418;-0.99945068359375;-0.38348388671875;4.97999998742671;499;1 A;
38.8090389020166;-0.99945068359375;-0.3853759765625;4.98999998740146;500;1 A;
38.8190389019913;-1.00006103515625;-0.384796142578125;4.99999998737621;501;1 A;
38.8290389019661;-0.99945068359375;-0.387481689453125;5.00999998735097;502;1 A;
38.8390389019409;-0.99945068359375;-0.38800048828125;5.01999998732572;503;1 A;
38.8490389019156;-0.99884033203125;-0.3902587890625;5.02999998730047;504;1 A;
38.8590389018904;-0.999755859375;-0.389312744140625;5.03999998727522;505;1 A;
38.8690389018651;-1.0003662109375;-0.391326904296875;5.04999998724998;506;1 A;
38.8790389018399;-0.99945068359375;-0.3922119140625;5.05999998722473;507;1 A;
38.8890389018146;-0.99945068359375;-0.39495849609375;5.06999998719948;508;1 A;
38.8990389017894;-1.00006103515625;-0.394378662109375;5.07999998717423;509;1 A;
38.9090389017641;-0.99945068359375;-0.39593505859375;5.08999998714899;510;1 A;
38.9190389017389;-0.99945068359375;-0.395751953125;5.09999998712374;511;1 A;
38.9290389017136;-0.99945068359375;-0.39935302734375;5.10999998709849;512;1 A;
38.9390389016884;-0.99945068359375;-0.3953857421875;5.11999998707324;513;1 A;
38.9490389016631;-0.9991455078125;-0.3955078125;5.129999987048;514;1 A;
38.9590389016379;-0.999755859375;-0.39630126953125;5.13999998702275;515;1 A;
38.9690389016126;-1.00006103515625;-0.399017333984375;5.1499999869975;516;1 A;
38.9790389015874;-0.999755859375;-0.397247314453125;5.15999998697225;517;1 A;
38.9890389015621;-1.00006103515625;-0.3990478515625;5.169999986947;518;1 A;
38.9990389015369;-0.999755859375;-0.39801025390625;5.17999998692176;519;1 A;
39.0090389015116;-0.99945068359375;-0.402008056640625;5.18999998689651;520;1 A;
39.0190389014864;-1.00006103515625;-0.397247314453125;5.19999998687126;521;1 A;
39.0290389014611;-0.9991455078125;-0.397308349609375;5.20999998684601;522;1 A;
39.0390389014359;-0.99945068359375;-0.39666748046875;5.21999998682077;523;1 A;
39.0490389014107;-0.99945068359375;-0.39996337890625;5.22999998679552;524;1 A;
39.0590389013854;-1.00006103515625;-0.3974609375;5.23999998677027;525;1 A;
39.0690389013602;-0.99945068359375;-0.39996337890625;5.24999998674502;526;1 A;
39.0790389013349;-0.9991455078125;-0.397613525390625;5.25999998671978;527;1 A;
39.0890389013097;-0.999755859375;-0.4019775390625;5.26999998669453;528;1 A;
39.0990389012844;-0.99945068359375;-0.396453857421875;5.27999998666928;529;1 A;
39.1090389012592;-0.999755859375;-0.397186279296875;5.28999998664403;530;1 A;
39.1190389012339;-0.99945068359375;-0.397918701171875;5.29999998661879;531;1 A;
39.1290389012087;-0.999755859375;-0.399322509765625;5.30999998659354;532;1 A;
39.1390389011834;-1.00006103515625;-0.398101806640625;5.31999998656829;533;1 A;
39.1490389011582;-0.999755859375;-0.396759033203125;5.32999998654304;534;1 A;
39.1590389011329;-0.999755859375;-0.39703369140625;5.3399999865178;535;1 A;
39.1690389011077;-0.9991455078125;-0.399139404296875;5.34999998649255;536;1 A;
39.1790389010824;-0.9991455078125;-0.3951416015625;5.3599999864673;537;1 A;
39.1890389010572;-0.9991455078125;-0.3927001953125;5.36999998644205;538;1 A;
39.1990389010319;-0.99945068359375;-0.394622802734375;5.37999998641681;539;1 A;
39.2090389010067;-0.99945068359375;-0.39501953125;5.38999998639156;540;1 A;
39.2190389009814;-0.99945068359375;-0.3935546875;5.39999998636631;541;1 A;
39.2290389009562;-0.99945068359375;-0.39520263671875;5.40999998634106;542;1 A;
39.239038900931;-0.9991455078125;-0.394012451171875;5.41999998631582;543;1 A;
39.2490389009057;-1.00006103515625;-0.394317626953125;5.42999998629057;544;1 A;
39.2590389008805;-0.999755859375;-0.391632080078125;5.43999998626532;545;1 A;
39.2690389008552;-0.999755859375;-0.391693115234375;5.44999998624007;546;1 A;
39.27903890083;-0.99945068359375;-0.390960693359375;5.45999998621483;547;1 A;
39.2890389008047;-0.99945068359375;-0.392730712890625;5.46999998618958;548;1 A;
39.2990389007795;-0.999755859375;-0.390289306640625;5.47999998616433;549;1 A;
39.3090389007542;-0.99945068359375;-0.39111328125;5.48999998613908;550;1 A;
39.319038900729;-0.999755859375;-0.389129638671875;5.49999998611383;551;1 A;
39.3290389007037;-0.999755859375;-0.39337158203125;5.50999998608859;552;1 A;
39.3390389006785;-1.0003662109375;-0.3868408203125;5.51999998606334;553;1 A;
39.3490389006532;-0.99945068359375;-0.386505126953125;5.52999998603809;554;1 A;
39.359038900628;-0.999755859375;-0.38507080078125;5.53999998601284;555;1 A;
39.3690389006027;-0.99945068359375;-0.388824462890625;5.5499999859876;556;1 A;
39.3790389005775;-0.999755859375;-0.38494873046875;5.55999998596235;557;1 A;
39.3890389005522;-0.999755859375;-0.3861083984375;5.5699999859371;558;1 A;
39.399038900527;-0.999755859375;-0.38421630859375;5.57999998591185;559;1 A;
39.4090389005017;-0.999755859375;-0.388885498046875;5.58999998588661;560;1 A;
39.4190389004765;-0.99945068359375;-0.38153076171875;5.59999998586136;561;1 A;
39.4290389004512;-0.999755859375;-0.3818359375;5.60999998583611;562;1 A;
39.439038900426;-1.0003662109375;-0.380218505859375;5.61999998581086;563;1 A;
39.4490389004008;-0.999755859375;-0.383087158203125;5.62999998578562;564;1 A;
39.4590389003755;-1.00006103515625;-0.38006591796875;5.63999998576037;565;1 A;
39.4690389003503;-1.00006103515625;-0.382476806640625;5.64999998573512;566;1 A;
39.479038900325;-0.99945068359375;-0.380645751953125;5.65999998570987;567;1 A;
39.4890389002998;-1.0003662109375;-0.3839111328125;5.66999998568463;568;1 A;
39.4990389002745;-0.99945068359375;-0.37908935546875;5.67999998565938;569;1 A;
39.5090389002493;-0.99945068359375;-0.37921142578125;5.68999998563413;570;1 A;
39.519038900224;-0.999755859375;-0.381011962890625;5.69999998560888;571;1 A;
39.5290389001988;-0.99945068359375;-0.38092041015625;5.70999998558364;572;1 A;
39.5390389001735;-0.999755859375;-0.381103515625;5.71999998555839;573;1 A;
39.5490389001483;-0.999755859375;-0.379302978515625;5.72999998553314;574;1 A;
39.559038900123;-0.999755859375;-0.380157470703125;5.73999998550789;575;1 A;
39.5690389000978;-0.99945068359375;-0.382171630859375;5.74999998548265;576;1 A;
39.5790389000725;-1.00006103515625;-0.378814697265625;5.7599999854574;577;1 A;
39.5890389000473;-0.99945068359375;-0.376312255859375;5.76999998543215;578;1 A;
39.599038900022;-0.9991455078125;-0.37811279296875;5.7799999854069;579;1 A;
39.6090388999968;-0.9991455078125;-0.37994384765625;5.78999998538166;580;1 A;
39.6190388999715;-0.999755859375;-0.377899169921875;5.79999998535641;581;1 A;
39.6290388999463;-0.99945068359375;-0.380157470703125;5.80999998533116;582;1 A;
39.639038899921;-1.00006103515625;-0.37841796875;5.81999998530591;583;1 A;
39.6490388998958;-1.00006103515625;-0.38165283203125;5.82999998528066;584;1 A;
39.6590388998706;-0.999755859375;-0.37744140625;5.83999998525542;585;1 A;
39.6690388998453;-0.99945068359375;-0.37982177734375;5.84999998523017;586;1 A;
39.6790388998201;-0.999755859375;-0.378265380859375;5.85999998520492;587;1 A;
39.6890388997948;-1.00006103515625;-0.383087158203125;5.86999998517967;588;1 A;
39.6990388997696;-0.99945068359375;-0.37939453125;5.87999998515443;589;1 A;
39.7090388997443;-1.00006103515625;-0.38226318359375;5.88999998512918;590;1 A;
39.7190388997191;-0.999755859375;-0.379608154296875;5.89999998510393;591;1 A;
39.7290388996938;-0.9991455078125;-0.385711669921875;5.90999998507868;592;1 A;
39.7390388996686;-0.99945068359375;-0.377593994140625;5.91999998505344;593;1 A;
39.7490388996433;-1.0003662109375;-0.3782958984375;5.92999998502819;594;1 A;
39.7590388996181;-0.99945068359375;-0.37860107421875;5.93999998500294;595;1 A;
39.7690388995928;-1.00006103515625;-0.381256103515625;5.94999998497769;596;1 A;
39.7790388995676;-0.999755859375;-0.3787841796875;5.95999998495245;597;1 A;
39.7890388995423;-0.999755859375;-0.378662109375;5.9699999849272;598;1 A;
39.7990388995171;-0.99945068359375;-0.37841796875;5.97999998490195;599;1 A;
39.8090388994918;-1.0003662109375;-0.38232421875;5.9899999848767;600;1 A;
39.8190388994666;-0.99945068359375;-0.3768310546875;5.99999998485146;601;1 A;
39.8290388994413;-0.99945068359375;-0.374542236328125;6.00999998482621;602;1 A;
39.8390388994161;-0.99945068359375;-0.3753662109375;6.01999998480096;603;1 A;
39.8490388993908;-0.999755859375;-0.37628173828125;6.02999998477571;604;1 A;
39.8590388993656;-1.00006103515625;-0.37493896484375;6.03999998475047;605;1 A;
39.8690388993404;-0.999755859375;-0.376556396484375;6.04999998472522;606;1 A;
39.8790388993151;-0.999755859375;-0.37506103515625;6.05999998469997;607;1 A;
39.8890388992899;-0.99945068359375;-0.37689208984375;6.06999998467472;608;1 A;
39.8990388992646;-0.999755859375;-0.373382568359375;6.07999998464948;609;1 A;
39.9090388992394;-0.999755859375;-0.372772216796875;6.08999998462423;610;1 A;
39.9190388992141;-0.999755859375;-0.374359130859375;6.09999998459898;611;1 A;
39.9290388991889;-0.99945068359375;-0.375274658203125;6.10999998457373;612;1 A;
39.9390388991636;-0.99945068359375;-0.375732421875;6.11999998454849;613;1 A;
39.9490388991384;-0.999755859375;-0.37481689453125;6.12999998452324;614;1 A;
39.9590388991131;-1.00006103515625;-0.37615966796875;6.13999998449799;615;1 A;
39.9690388990879;-1.0003662109375;-0.38043212890625;6.14999998447274;616;1 A;
39.9790388990626;-0.99945068359375;-0.3756103515625;6.1599999844475;617;1 A;
39.9890388990374;-0.999755859375;-0.37445068359375;6.16999998442225;618;1 A;
39.9990388990121;-0.99945068359375;-0.375640869140625;6.179999984397;619;1 A;
40.0090388989869;-0.99945068359375;-0.380462646484375;6.18999998437175;620;1 A;
40.0190388989616;-0.999755859375;-0.37701416015625;6.1999999843465;621;1 A;
40.0290388989364;-1.00006103515625;-0.38116455078125;6.20999998432126;622;1 A;
40.0390388989111;-0.999755859375;-0.378173828125;6.21999998429601;623;1 A;
40.0490388988859;-1.0003662109375;-0.3828125;6.22999998427076;624;1 A;
40.0590388988606;-0.99945068359375;-0.375640869140625;6.23999998424551;625;1 A;
40.0690388988354;-0.999755859375;-0.379608154296875;6.24999998422027;626;1 A;
40.0790388988102;-0.99945068359375;-0.377899169921875;6.25999998419502;627;1 A;
40.0890388987849;-0.9991455078125;-0.38299560546875;6.26999998416977;628;1 A;
40.0990388987597;-0.99945068359375;-0.37921142578125;6.27999998414452;629;1 A;
40.1090388987344;-1.00006103515625;-0.381561279296875;6.28999998411928;630;1 A;
40.1190388987092;-0.99945068359375;-0.378814697265625;6.29999998409403;631;1 A;
40.1290388986839;-1.00006103515625;-0.38330078125;6.30999998406878;632;1 A;
40.1390388986587;-0.999755859375;-0.376922607421875;6.31999998404353;633;1 A;
40.1490388986334;-0.999755859375;-0.37530517578125;6.32999998401829;634;1 A;
40.1590388986082;-1.00006103515625;-0.377532958984375;6.33999998399304;635;1 A;
40.1690388985829;-0.999755859375;-0.37799072265625;6.34999998396779;636;1 A;
40.1790388985577;-0.9991455078125;-0.376708984375;6.35999998394254;637;1 A;
40.1890388985324;-0.999755859375;-0.374969482421875;6.3699999839173;638;1 A;
40.1990388985072;-0.99945068359375;-0.3758544921875;6.37999998389205;639;1 A;
40.2090388984819;-1.00006103515625;-0.379730224609375;6.3899999838668;640;1 A;
40.2190388984567;-0.99945068359375;-0.37530517578125;6.39999998384155;641;1 A;
40.2290388984314;-0.9991455078125;-0.37188720703125;6.40999998381631;642;1 A;
40.2390388984062;-0.99945068359375;-0.3731689453125;6.41999998379106;643;1 A;
40.2490388983809;-0.999755859375;-0.374847412109375;6.42999998376581;644;1 A;
40.2590388983557;-0.999755859375;-0.373260498046875;6.43999998374056;645;1 A;
40.2690388983305;-0.99945068359375;-0.375732421875;6.44999998371532;646;1 A;
40.2790388983052;-0.999755859375;-0.37420654296875;6.45999998369007;647;1 A;
40.28903889828;-0.999755859375;-0.37725830078125;6.46999998366482;648;1 A;
40.2990388982547;-1.00006103515625;-0.37261962890625;6.47999998363957;649;1 A;
40.3090388982295;-0.999755859375;-0.373443603515625;6.48999998361433;650;1 A;
40.3190388982042;-0.99945068359375;-0.37255859375;6.49999998358908;651;1 A;
40.329038898179;-0.9991455078125;-0.375335693359375;6.50999998356383;652;1 A;
40.3390388981537;-0.99945068359375;-0.373992919921875;6.51999998353858;653;1 A;
40.3490388981285;-0.99945068359375;-0.37371826171875;6.52999998351333;654;1 A;
40.3590388981032;-1.00006103515625;-0.373565673828125;6.53999998348809;655;1 A;
40.369038898078;-0.999755859375;-0.378753662109375;6.54999998346284;656;1 A;
40.3790388980527;-1.00006103515625;-0.37274169921875;6.55999998343759;657;1 A;
40.3890388980275;-0.99945068359375;-0.371337890625;6.56999998341234;658;1 A;
40.3990388980022;-0.99945068359375;-0.373870849609375;6.5799999833871;659;1 A;
40.409038897977;-0.999755859375;-0.377716064453125;6.58999998336185;660;1 A;
40.4190388979517;-0.99945068359375;-0.375213623046875;6.5999999833366;661;1 A;
40.4290388979265;-1.0003662109375;-0.379150390625;6.60999998331135;662;1 A;
40.4390388979012;-0.999755859375;-0.37713623046875;6.61999998328611;663;1 A;
40.449038897876;-0.99945068359375;-0.382904052734375;6.62999998326086;664;1 A;
40.4590388978507;-1.00006103515625;-0.37518310546875;6.63999998323561;665;1 A;
40.4690388978255;-0.99945068359375;-0.378997802734375;6.64999998321036;666;1 A;
40.4790388978003;-1.00006103515625;-0.377532958984375;6.65999998318512;667;1 A;
40.489038897775;-0.999755859375;-0.38336181640625;6.66999998315987;668;1 A;
40.4990388977498;-0.99945068359375;-0.3798828125;6.67999998313462;669;1 A;
40.5090388977245;-0.999755859375;-0.384002685546875;6.68999998310937;670;1 A;
40.5190388976993;-0.99945068359375;-0.38165283203125;6.69999998308413;671;1 A;
40.529038897674;-0.99945068359375;-0.38818359375;6.70999998305888;672;1 A;
40.5390388976488;-0.999755859375;-0.38116455078125;6.71999998303363;673;1 A;
40.5490388976235;-0.999755859375;-0.380645751953125;6.72999998300838;674;1 A;
40.5590388975983;-0.999755859375;-0.383941650390625;6.73999998298314;675;1 A;
40.569038897573;-0.99945068359375;-0.385498046875;6.74999998295789;676;1 A;
40.5790388975478;-0.999755859375;-0.3857421875;6.75999998293264;677;1 A;
40.5890388975225;-0.999755859375;-0.384063720703125;6.76999998290739;678;1 A;
40.5990388974973;-0.999755859375;-0.386444091796875;6.77999998288215;679;1 A;
40.609038897472;-1.00006103515625;-0.39178466796875;6.7899999828569;680;1 A;
40.6190388974468;-0.999755859375;-0.38763427734375;6.79999998283165;681;1 A;
40.6290388974215;-0.99945068359375;-0.38470458984375;6.8099999828064;682;1 A;
40.6390388973963;-0.99945068359375;-0.387237548828125;6.81999998278116;683;1 A;
40.649038897371;-1.00006103515625;-0.38946533203125;6.82999998275591;684;1 A;
40.6590388973458;-1.0003662109375;-0.388458251953125;6.83999998273066;685;1 A;
40.6690388973205;-0.999755859375;-0.391326904296875;6.84999998270541;686;1 A;
40.6790388972953;-1.0003662109375;-0.391357421875;6.85999998268016;687;1 A;
40.6890388972701;-0.999755859375;-0.3939208984375;6.86999998265492;688;1 A;
40.6990388972448;-0.999755859375;-0.390869140625;6.87999998262967;689;1 A;
40.7090388972196;-0.999755859375;-0.391571044921875;6.88999998260442;690;1 A;
40.7190388971943;-1.0003662109375;-0.392974853515625;6.89999998257917;691;1 A;
40.7290388971691;-0.999755859375;-0.396087646484375;6.90999998255393;692;1 A;
40.7390388971438;-0.999755859375;-0.395843505859375;6.91999998252868;693;1 A;
40.7490388971186;-1.00006103515625;-0.39593505859375;6.92999998250343;694;1 A;
40.7590388970933;-1.00006103515625;-0.396270751953125;6.93999998247818;695;1 A;
40.7690388970681;-0.99945068359375;-0.401641845703125;6.94999998245294;696;1 A;
40.7790388970428;-1.00006103515625;-0.3941650390625;6.95999998242769;697;1 A;
40.7890388970176;-0.99884033203125;-0.39208984375;6.96999998240244;698;1 A;
40.7990388969923;-1.00006103515625;-0.393157958984375;6.97999998237719;699;1 A;
40.8090388969671;-0.99945068359375;-0.397247314453125;6.98999998235195;700;1 A;
40.8190388969418;-0.999755859375;-0.393829345703125;6.9999999823267;701;1 A;
40.8290388969166;-1.00006103515625;-0.3973388671875;7.00999998230145;702;1 A;
40.8390388968913;-0.99945068359375;-0.395263671875;7.0199999822762;703;1 A;
40.8490388968661;-0.999755859375;-0.402801513671875;7.02999998225096;704;1 A;
40.8590388968408;-0.999755859375;-0.394195556640625;7.03999998222571;705;1 A;
40.8690388968156;-0.99945068359375;-0.39593505859375;7.04999998220046;706;1 A;
40.8790388967903;-1.00006103515625;-0.394012451171875;7.05999998217521;707;1 A;
40.8890388967651;-0.999755859375;-0.400360107421875;7.06999998214997;708;1 A;
40.8990388967399;-1.00006103515625;-0.39581298828125;7.07999998212472;709;1 A;
40.9090388967146;-0.99945068359375;-0.400115966796875;7.08999998209947;710;1 A;
40.9190388966894;-1.00006103515625;-0.397064208984375;7.09999998207422;711;1 A;
40.9290388966641;-0.999755859375;-0.404876708984375;7.10999998204898;712;1 A;
40.9390388966389;-0.99945068359375;-0.396575927734375;7.11999998202373;713;1 A;
40.9490388966136;-0.99945068359375;-0.39630126953125;7.12999998199848;714;1 A;
40.9590388965884;-0.99884033203125;-0.399139404296875;7.13999998197323;715;1 A;
40.9690388965631;-0.999755859375;-0.399017333984375;7.14999998194799;716;1 A;
40.9790388965379;-0.9991455078125;-0.398651123046875;7.15999998192274;717;1 A;
40.9890388965126;-0.999755859375;-0.395843505859375;7.16999998189749;718;1 A;
40.9990388964874;-0.9991455078125;-0.39874267578125;7.17999998187224;719;1 A;
41.0090388964621;-0.99945068359375;-0.403839111328125;7.189999981847;720;1 A;
41.0190388964369;-1.00006103515625;-0.399322509765625;7.19999998182175;721;1 A;
41.0290388964116;-1.00006103515625;-0.3958740234375;7.2099999817965;722;1 A;
41.0390388963864;-0.999755859375;-0.399688720703125;7.21999998177125;723;1 A;
41.0490388963611;-0.99945068359375;-0.4014892578125;7.229999981746;724;1 A;
41.0590388963359;-0.99945068359375;-0.399932861328125;7.23999998172076;725;1 A;
41.0690388963106;-0.99884033203125;-0.402374267578125;7.24999998169551;726;1 A;
41.0790388962854;-0.999755859375;-0.40155029296875;7.25999998167026;727;1 A;
41.0890388962601;-0.999755859375;-0.40289306640625;7.26999998164501;728;1 A;
41.0990388962349;-0.9991455078125;-0.400360107421875;7.27999998161977;729;1 A;
41.1090388962097;-0.999755859375;-0.400726318359375;7.28999998159452;730;1 A;
41.1190388961844;-0.999755859375;-0.400787353515625;7.29999998156927;731;1 A;
41.1290388961592;-0.99945068359375;-0.40386962890625;7.30999998154402;732;1 A;
41.1390388961339;-1.00006103515625;-0.40216064453125;7.31999998151878;733;1 A;
41.1490388961087;-0.999755859375;-0.40277099609375;7.32999998149353;734;1 A;
41.1590388960834;-0.99945068359375;-0.40106201171875;7.33999998146828;735;1 A;
41.1690388960582;-0.99945068359375;-0.407562255859375;7.34999998144303;736;1 A;
41.1790388960329;-0.99884033203125;-0.3995361328125;7.35999998141779;737;1 A;
41.1890388960077;-0.999755859375;-0.398468017578125;7.36999998139254;738;1 A;
41.1990388959824;-1.00006103515625;-0.399078369140625;7.37999998136729;739;1 A;
41.2090388959572;-0.99945068359375;-0.4053955078125;7.38999998134204;740;1 A;
41.2190388959319;-0.99945068359375;-0.4010009765625;7.3999999813168;741;1 A;
41.2290388959067;-0.9991455078125;-0.40460205078125;7.40999998129155;742;1 A;
41.2390388958814;-1.00006103515625;-0.40167236328125;7.4199999812663;743;1 A;
41.2490388958562;-0.999755859375;-0.411041259765625;7.42999998124105;744;1 A;
41.2590388958309;-1.00006103515625;-0.400115966796875;7.43999998121581;745;1 A;
41.2690388958057;-0.999755859375;-0.402191162109375;7.44999998119056;746;1 A;
41.2790388957804;-0.999755859375;-0.3994140625;7.45999998116531;747;1 A;
41.2890388957552;-0.99945068359375;-0.4068603515625;7.46999998114006;748;1 A;
41.29903889573;-0.99945068359375;-0.402374267578125;7.47999998111482;749;1 A;
41.3090388957047;-0.99945068359375;-0.406463623046875;7.48999998108957;750;1 A;
41.3190388956795;-1.0003662109375;-0.403717041015625;7.49999998106432;751;1 A;
41.3290388956542;-0.999755859375;-0.4100341796875;7.50999998103907;752;1 A;
41.339038895629;-0.999755859375;-0.40240478515625;7.51999998101383;753;1 A;
41.3490388956037;-0.999755859375;-0.401580810546875;7.52999998098858;754;1 A;
41.3590388955785;-0.99945068359375;-0.405670166015625;7.53999998096333;755;1 A;
41.3690388955532;-0.99945068359375;-0.404327392578125;7.54999998093808;756;1 A;
41.379038895528;-0.99945068359375;-0.405731201171875;7.55999998091283;757;1 A;
41.3890388955027;-1.00006103515625;-0.401702880859375;7.56999998088759;758;1 A;
41.3990388954775;-0.999755859375;-0.4036865234375;7.57999998086234;759;1 A;
41.4090388954522;-0.999755859375;-0.407196044921875;7.58999998083709;760;1 A;
41.419038895427;-1.00006103515625;-0.402679443359375;7.59999998081184;761;1 A;
41.4290388954017;-0.99945068359375;-0.397857666015625;7.6099999807866;762;1 A;
41.4390388953765;-0.999755859375;-0.40191650390625;7.61999998076135;763;1 A;
41.4490388953512;-0.99945068359375;-0.403656005859375;7.6299999807361;764;1 A;
41.459038895326;-1.00006103515625;-0.40228271484375;7.63999998071085;765;1 A;
41.4690388953007;-1.00006103515625;-0.404998779296875;7.64999998068561;766;1 A;
41.4790388952755;-1.00006103515625;-0.4027099609375;7.65999998066036;767;1 A;
41.4890388952502;-0.999755859375;-0.406463623046875;7.66999998063511;768;1 A;
41.499038895225;-0.999755859375;-0.401336669921875;7.67999998060986;769;1 A;
41.5090388951998;-0.9991455078125;-0.40362548828125;7.68999998058462;770;1 A;
41.5190388951745;-0.999755859375;-0.401092529296875;7.69999998055937;771;1 A;
41.5290388951493;-0.999755859375;-0.408935546875;7.70999998053412;772;1 A;
41.539038895124;-1.00006103515625;-0.404693603515625;7.71999998050887;773;1 A;
41.5490388950988;-1.00006103515625;-0.40716552734375;7.72999998048363;774;1 A;
41.5590388950735;-0.999755859375;-0.403839111328125;7.73999998045838;775;1 A;
41.5690388950483;-0.999755859375;-0.41302490234375;7.74999998043313;776;1 A;
41.579038895023;-0.999755859375;-0.402191162109375;7.75999998040788;777;1 A;
41.5890388949978;-0.999755859375;-0.40167236328125;7.76999998038264;778;1 A;
41.5990388949725;-1.00006103515625;-0.40362548828125;7.77999998035739;779;1 A;
41.6090388949473;-1.00006103515625;-0.40802001953125;7.78999998033214;780;1 A;
41.619038894922;-0.999755859375;-0.4052734375;7.79999998030689;781;1 A;
41.6290388948968;-0.999755859375;-0.405670166015625;7.80999998028165;782;1 A;
41.6390388948715;-0.99884033203125;-0.405303955078125;7.8199999802564;783;1 A;
41.6490388948463;-1.00006103515625;-0.4129638671875;7.82999998023115;784;1 A;
41.659038894821;-1.00006103515625;-0.403350830078125;7.8399999802059;785;1 A;
41.6690388947958;-0.99945068359375;-0.401275634765625;7.84999998018066;786;1 A;
41.6790388947705;-1.00006103515625;-0.40020751953125;7.85999998015541;787;1 A;
41.6890388947453;-0.999755859375;-0.404022216796875;7.86999998013016;788;1 A;
41.69903889472;-0.99945068359375;-0.399810791015625;7.87999998010491;789;1 A;
41.7090388946948;-0.999755859375;-0.4027099609375;7.88999998007966;790;1 A;
41.7190388946696;-0.99945068359375;-0.399688720703125;7.89999998005442;791;1 A;
41.7290388946443;-0.999755859375;-0.4031982421875;7.90999998002917;792;1 A;
41.7390388946191;-0.99945068359375;-0.39678955078125;7.91999998000392;793;1 A;
41.7490388945938;-0.999755859375;-0.39483642578125;7.92999997997867;794;1 A;
41.7590388945686;-0.99945068359375;-0.398162841796875;7.93999997995343;795;1 A;
41.7690388945433;-1.00006103515625;-0.39691162109375;7.94999997992818;796;1 A;
41.7790388945181;-0.99945068359375;-0.398193359375;7.95999997990293;797;1 A;
41.7890388944928;-0.999755859375;-0.39373779296875;7.96999997987768;798;1 A;
41.7990388944676;-0.99945068359375;-0.394927978515625;7.97999997985244;799;1 A;
41.8090388944423;-0.99945068359375;-0.400177001953125;7.98999997982719;800;1 A;
41.8190388944171;-0.999755859375;-0.393951416015625;7.99999997980194;801;1 A;
41.8290388943918;-0.999755859375;-0.389556884765625;8.00999997977669;802;1 A;
41.8390388943666;-0.99945068359375;-0.390899658203125;8.01999997975145;803;1 A;
41.8490388943413;-0.99945068359375;-0.3958740234375;8.0299999797262;804;1 A;
41.8590388943161;-0.9991455078125;-0.3907470703125;8.03999997970095;805;1 A;
41.8690388942908;-1.00006103515625;-0.3948974609375;8.0499999796757;806;1 A;
41.8790388942656;-1.00006103515625;-0.39111328125;8.05999997965046;807;1 A;
41.8890388942403;-0.99945068359375;-0.3970947265625;8.06999997962521;808;1 A;
41.8990388942151;-0.999755859375;-0.389190673828125;8.07999997959996;809;1 A;
41.9090388941898;-0.999755859375;-0.392913818359375;8.08999997957471;810;1 A;
41.9190388941646;-1.00006103515625;-0.389312744140625;8.09999997954947;811;1 A;
41.9290388941394;-0.999755859375;-0.397857666015625;8.10999997952422;812;1 A;
41.9390388941141;-0.999755859375;-0.391143798828125;8.11999997949897;813;1 A;
41.9490388940889;-0.999755859375;-0.395538330078125;8.12999997947372;814;1 A;
41.9590388940636;-0.999755859375;-0.391021728515625;8.13999997944848;815;1 A;
41.9690388940384;-0.99945068359375;-0.39996337890625;8.14999997942323;816;1 A;
41.9790388940131;-0.999755859375;-0.3883056640625;8.15999997939798;817;1 A;
41.9890388939879;-0.999755859375;-0.388580322265625;8.16999997937273;818;1 A;
41.9990388939626;-0.99945068359375;-0.391693115234375;8.17999997934749;819;1 A;
42.0090388939374;-0.999755859375;-0.393096923828125;8.18999997932224;820;1 A;
42.0190388939121;-0.999755859375;-0.39215087890625;8.19999997929699;821;1 A;
42.0290388938869;-0.99945068359375;-0.389984130859375;8.20999997927174;822;1 A;
42.0390388938616;-0.99945068359375;-0.3914794921875;8.2199999792465;823;1 A;
42.0490388938364;-0.9991455078125;-0.3974609375;8.22999997922125;824;1 A;
42.0590388938111;-1.00006103515625;-0.39239501953125;8.239999979196;825;1 A;
42.0690388937859;-1.00006103515625;-0.3870849609375;8.24999997917075;826;1 A;
42.0790388937606;-0.99945068359375;-0.38916015625;8.2599999791455;827;1 A;
42.0890388937354;-0.99945068359375;-0.39215087890625;8.26999997912026;828;1 A;
42.0990388937101;-0.99945068359375;-0.391021728515625;8.27999997909501;829;1 A;
42.1090388936849;-0.99945068359375;-0.393707275390625;8.28999997906976;830;1 A;
42.1190388936596;-0.999755859375;-0.392364501953125;8.29999997904451;831;1 A;
42.1290388936344;-0.999755859375;-0.39739990234375;8.30999997901927;832;1 A;
42.1390388936092;-0.99945068359375;-0.391082763671875;8.31999997899402;833;1 A;
42.1490388935839;-0.9991455078125;-0.390472412109375;8.32999997896877;834;1 A;
42.1590388935587;-1.0003662109375;-0.3916015625;8.33999997894352;835;1 A;
42.1690388935334;-0.99945068359375;-0.3941650390625;8.34999997891828;836;1 A;
42.1790388935082;-0.999755859375;-0.393280029296875;8.35999997889303;837;1 A;
42.1890388934829;-0.999755859375;-0.39263916015625;8.36999997886778;838;1 A;
42.1990388934577;-1.00006103515625;-0.393096923828125;8.37999997884253;839;1 A;
42.2090388934324;-1.0003662109375;-0.40252685546875;8.38999997881729;840;1 A;
42.2190388934072;-0.999755859375;-0.3914794921875;8.39999997879204;841;1 A;
42.2290388933819;-0.999755859375;-0.391265869140625;8.40999997876679;842;1 A;
42.2390388933567;-0.999755859375;-0.39312744140625;8.41999997874154;843;1 A;
42.2490388933314;-0.999755859375;-0.400177001953125;8.4299999787163;844;1 A;
42.2590388933062;-0.999755859375;-0.39617919921875;8.43999997869105;845;1 A;
42.2690388932809;-0.99945068359375;-0.401336669921875;8.4499999786658;846;1 A;
42.2790388932557;-0.99945068359375;-0.39739990234375;8.45999997864055;847;1 A;
42.2890388932304;-0.999755859375;-0.4039306640625;8.46999997861531;848;1 A;
42.2990388932052;-1.00006103515625;-0.394927978515625;8.47999997859006;849;1 A;
42.3090388931799;-0.99945068359375;-0.39849853515625;8.48999997856481;850;1 A;
42.3190388931547;-0.99945068359375;-0.3970947265625;8.49999997853956;851;1 A;
42.3290388931295;-0.99945068359375;-0.402587890625;8.50999997851432;852;1 A;
42.3390388931042;-0.999755859375;-0.39874267578125;8.51999997848907;853;1 A;
42.349038893079;-0.99945068359375;-0.401702880859375;8.52999997846382;854;1 A;
42.3590388930537;-0.999755859375;-0.39849853515625;8.53999997843857;855;1 A;
42.3690388930285;-0.99945068359375;-0.405670166015625;8.54999997841333;856;1 A;
42.3790388930032;-0.999755859375;-0.396514892578125;8.55999997838808;857;1 A;
42.389038892978;-0.99945068359375;-0.3936767578125;8.56999997836283;858;1 A;
42.3990388929527;-0.99945068359375;-0.398956298828125;8.57999997833758;859;1 A;
42.4090388929275;-0.999755859375;-0.399383544921875;8.58999997831233;860;1 A;
42.4190388929022;-0.99945068359375;-0.399993896484375;8.59999997828709;861;1 A;
42.429038892877;-0.999755859375;-0.396514892578125;8.60999997826184;862;1 A;
42.4390388928517;-1.00006103515625;-0.3980712890625;8.61999997823659;863;1 A;
42.4490388928265;-0.999755859375;-0.404998779296875;8.62999997821134;864;1 A;
42.4590388928012;-0.999755859375;-0.39703369140625;8.6399999781861;865;1 A;
42.469038892776;-0.99945068359375;-0.39276123046875;8.64999997816085;866;1 A;
42.4790388927507;-0.99945068359375;-0.3935546875;8.6599999781356;867;1 A;
42.4890388927255;-0.999755859375;-0.3992919921875;8.66999997811035;868;1 A;
42.4990388927002;-0.9991455078125;-0.396728515625;8.67999997808511;869;1 A;
42.509038892675;-0.99945068359375;-0.401580810546875;8.68999997805986;870;1 A;
42.5190388926497;-1.00006103515625;-0.400238037109375;8.69999997803461;871;1 A;
42.5290388926245;-0.999755859375;-0.404541015625;8.70999997800936;872;1 A;
42.5390388925993;-0.99945068359375;-0.39764404296875;8.71999997798412;873;1 A;
42.549038892574;-1.00006103515625;-0.398345947265625;8.72999997795887;874;1 A;
42.5590388925488;-0.99945068359375;-0.398101806640625;8.73999997793362;875;1 A;
42.5690388925235;-0.999755859375;-0.400115966796875;8.74999997790837;876;1 A;
42.5790388924983;-1.0003662109375;-0.400482177734375;8.75999997788313;877;1 A;
42.589038892473;-1.00006103515625;-0.39794921875;8.76999997785788;878;1 A;
42.5990388924478;-0.999755859375;-0.397674560546875;8.77999997783263;879;1 A;
42.6090388924225;-0.99945068359375;-0.405487060546875;8.78999997780738;880;1 A;
42.6190388923973;-0.99945068359375;-0.39459228515625;8.79999997778214;881;1 A;
42.629038892372;-0.999755859375;-0.3912353515625;8.80999997775689;882;1 A;
42.6390388923468;-0.999755859375;-0.3931884765625;8.81999997773164;883;1 A;
42.6490388923215;-0.99945068359375;-0.398529052734375;8.82999997770639;884;1 A;
42.6590388922963;-0.999755859375;-0.395233154296875;8.83999997768115;885;1 A;
42.669038892271;-1.00006103515625;-0.399017333984375;8.8499999776559;886;1 A;
42.6790388922458;-0.999755859375;-0.3956298828125;8.85999997763065;887;1 A;
42.6890388922205;-0.999755859375;-0.40521240234375;8.8699999776054;888;1 A;
42.6990388921953;-0.999755859375;-0.392486572265625;8.87999997758016;889;1 A;
42.70903889217;-0.99945068359375;-0.394927978515625;8.88999997755491;890;1 A;
42.7190388921448;-1.0003662109375;-0.38873291015625;8.89999997752966;891;1 A;
42.7290388921195;-0.9991455078125;-0.39886474609375;8.90999997750441;892;1 A;
42.7390388920943;-0.999755859375;-0.390289306640625;8.91999997747916;893;1 A;
42.7490388920691;-0.99945068359375;-0.396484375;8.92999997745392;894;1 A;
42.7590388920438;-0.99945068359375;-0.39031982421875;8.93999997742867;895;1 A;
42.7690388920186;-0.999755859375;-0.401947021484375;8.94999997740342;896;1 A;
42.7790388919933;-1.00006103515625;-0.38885498046875;8.95999997737817;897;1 A;
42.7890388919681;-0.99945068359375;-0.387603759765625;8.96999997735293;898;1 A;
42.7990388919428;-0.999755859375;-0.390594482421875;8.97999997732768;899;1 A;
42.8090388919176;-0.99945068359375;-0.392486572265625;8.98999997730243;900;1 A;
42.8190388918923;-0.999755859375;-0.391510009765625;8.99999997727718;901;1 A;
42.8290388918671;-0.999755859375;-0.38848876953125;9.00999997725194;902;1 A;
42.8390388918418;-1.00006103515625;-0.39105224609375;9.01999997722669;903;1 A;
42.8490388918166;-0.99945068359375;-0.39990234375;9.02999997720144;904;1 A;
42.8590388917913;-0.999755859375;-0.39154052734375;9.03999997717619;905;1 A;
42.8690388917661;-1.00006103515625;-0.3865966796875;9.04999997715095;906;1 A;
42.8790388917408;-0.99945068359375;-0.388824462890625;9.0599999771257;907;1 A;
42.8890388917156;-0.99945068359375;-0.39111328125;9.06999997710045;908;1 A;
42.8990388916903;-1.00006103515625;-0.3892822265625;9.0799999770752;909;1 A;
42.9090388916651;-0.9991455078125;-0.392547607421875;9.08999997704996;910;1 A;
42.9190388916398;-1.00006103515625;-0.391998291015625;9.09999997702471;911;1 A;
42.9290388916146;-0.999755859375;-0.393341064453125;9.10999997699946;912;1 A;
42.9390388915893;-0.99945068359375;-0.390106201171875;9.11999997697421;913;1 A;
42.9490388915641;-1.00006103515625;-0.388641357421875;9.12999997694897;914;1 A;
42.9590388915389;-0.999755859375;-0.389617919921875;9.13999997692372;915;1 A;
42.9690388915136;-0.999755859375;-0.3912353515625;9.14999997689847;916;1 A;
42.9790388914884;-0.999755859375;-0.390960693359375;9.15999997687322;917;1 A;
42.9890388914631;-0.99945068359375;-0.390838623046875;9.16999997684798;918;1 A;
42.9990388914379;-1.00067138671875;-0.390472412109375;9.17999997682273;919;1 A;
43.0090388914126;-0.999755859375;-0.402008056640625;9.18999997679748;920;1 A;
43.0190388913874;-0.999755859375;-0.390625;9.19999997677223;921;1 A;
43.0290388913621;-0.99945068359375;-0.389678955078125;9.20999997674699;922;1 A;
43.0390388913369;-0.99945068359375;-0.3883056640625;9.21999997672174;923;1 A;
43.0490388913116;-0.99945068359375;-0.398895263671875;9.22999997669649;924;1 A;
43.0590388912864;-0.999755859375;-0.3912353515625;9.23999997667124;925;1 A;
43.0690388912611;-1.00006103515625;-0.397186279296875;9.249999976646;926;1 A;
43.0790388912359;-0.9991455078125;-0.393585205078125;9.25999997662075;927;1 A;
43.0890388912106;-0.99945068359375;-0.40692138671875;9.2699999765955;928;1 A;
43.0990388911854;-1.00006103515625;-0.39227294921875;9.27999997657025;929;1 A;
43.1090388911601;-1.00006103515625;-0.39703369140625;9.289999976545;930;1 A;
43.1190388911349;-0.99945068359375;-0.391937255859375;9.29999997651976;931;1 A;
43.1290388911096;-0.9991455078125;-0.403778076171875;9.30999997649451;932;1 A;
43.1390388910844;-0.9991455078125;-0.393707275390625;9.31999997646926;933;1 A;
43.1490388910591;-0.999755859375;-0.401885986328125;9.32999997644401;934;1 A;
43.1590388910339;-1.00006103515625;-0.39630126953125;9.33999997641877;935;1 A;
43.1690388910087;-0.999755859375;-0.408294677734375;9.34999997639352;936;1 A;
43.1790388909834;-0.999755859375;-0.39501953125;9.35999997636827;937;1 A;
43.1890388909582;-0.99945068359375;-0.3975830078125;9.36999997634302;938;1 A;
43.1990388909329;-0.99945068359375;-0.401031494140625;9.37999997631778;939;1 A;
43.2090388909077;-0.999755859375;-0.40093994140625;9.38999997629253;940;1 A;
43.2190388908824;-0.999755859375;-0.400665283203125;9.39999997626728;941;1 A;
43.2290388908572;-0.999755859375;-0.397003173828125;9.40999997624203;942;1 A;
43.2390388908319;-0.999755859375;-0.40032958984375;9.41999997621679;943;1 A;
43.2490388908067;-0.999755859375;-0.407073974609375;9.42999997619154;944;1 A;
43.2590388907814;-1.00006103515625;-0.403839111328125;9.43999997616629;945;1 A;
43.2690388907562;-0.999755859375;-0.39642333984375;9.44999997614104;946;1 A;
43.2790388907309;-1.00006103515625;-0.403411865234375;9.4599999761158;947;1 A;
43.2890388907057;-0.999755859375;-0.40472412109375;9.46999997609055;948;1 A;
43.2990388906804;-0.999755859375;-0.40472412109375;9.4799999760653;949;1 A;
43.3090388906552;-0.99945068359375;-0.40625;9.48999997604005;950;1 A;
43.3190388906299;-0.999755859375;-0.4053955078125;9.49999997601481;951;1 A;
43.3290388906047;-0.99945068359375;-0.408050537109375;9.50999997598956;952;1 A;
43.3390388905794;-0.99945068359375;-0.405059814453125;9.51999997596431;953;1 A;
43.3490388905542;-0.999755859375;-0.40313720703125;9.52999997593906;954;1 A;
43.359038890529;-0.99945068359375;-0.40216064453125;9.53999997591382;955;1 A;
43.3690388905037;-1.00006103515625;-0.408966064453125;9.54999997588857;956;1 A;
43.3790388904785;-0.999755859375;-0.40264892578125;9.55999997586332;957;1 A;
43.3890388904532;-0.99945068359375;-0.406890869140625;9.56999997583807;958;1 A;
43.399038890428;-0.999755859375;-0.4031982421875;9.57999997581283;959;1 A;
43.4090388904027;-0.999755859375;-0.417449951171875;9.58999997578758;960;1 A;
43.4190388903775;-0.99945068359375;-0.400970458984375;9.59999997576233;961;1 A;
43.4290388903522;-0.9991455078125;-0.40435791015625;9.60999997573708;962;1 A;
43.439038890327;-0.999755859375;-0.40179443359375;9.61999997571183;963;1 A;
43.4490388903017;-0.999755859375;-0.41436767578125;9.62999997568659;964;1 A;
43.4590388902765;-0.99945068359375;-0.405517578125;9.63999997566134;965;1 A;
43.4690388902512;-0.99945068359375;-0.410888671875;9.64999997563609;966;1 A;
43.479038890226;-0.999755859375;-0.406402587890625;9.65999997561084;967;1 A;
43.4890388902007;-0.99945068359375;-0.419342041015625;9.6699999755856;968;1 A;
43.4990388901755;-0.999755859375;-0.404388427734375;9.67999997556035;969;1 A;
43.5090388901502;-0.99945068359375;-0.406463623046875;9.6899999755351;970;1 A;
43.519038890125;-1.00006103515625;-0.4049072265625;9.69999997550985;971;1 A;
43.5290388900997;-0.99945068359375;-0.411041259765625;9.70999997548461;972;1 A;
43.5390388900745;-0.999755859375;-0.4063720703125;9.71999997545936;973;1 A;
43.5490388900492;-0.999755859375;-0.410369873046875;9.72999997543411;974;1 A;
43.559038890024;-0.99945068359375;-0.407318115234375;9.73999997540886;975;1 A;
43.5690388899988;-1.00006103515625;-0.41265869140625;9.74999997538362;976;1 A;
43.5790388899735;-1.00006103515625;-0.40557861328125;9.75999997535837;977;1 A;
43.5890388899483;-0.999755859375;-0.40167236328125;9.76999997533312;978;1 A;
43.599038889923;-0.99945068359375;-0.40887451171875;9.77999997530787;979;1 A;
43.6090388898978;-0.99945068359375;-0.40692138671875;9.78999997528263;980;1 A;
43.6190388898725;-0.999755859375;-0.41064453125;9.79999997525738;981;1 A;
43.6290388898473;-0.99945068359375;-0.40411376953125;9.80999997523213;982;1 A;
43.639038889822;-1.00006103515625;-0.406341552734375;9.81999997520688;983;1 A;
43.6490388897968;-1.00006103515625;-0.41424560546875;9.82999997518164;984;1 A;
43.6590388897715;-1.00006103515625;-0.40679931640625;9.83999997515639;985;1 A;
43.6690388897463;-0.99945068359375;-0.4019775390625;9.84999997513114;986;1 A;
43.679038889721;-0.99945068359375;-0.40374755859375;9.85999997510589;987;1 A;
43.6890388896958;-0.99945068359375;-0.412139892578125;9.86999997508065;988;1 A;
43.6990388896705;-1.00006103515625;-0.4049072265625;9.8799999750554;989;1 A;
43.7090388896453;-0.9991455078125;-0.4111328125;9.88999997503015;990;1 A;
43.71903888962;-1.00006103515625;-0.406951904296875;9.8999999750049;991;1 A;
43.7290388895948;-0.999755859375;-0.41632080078125;9.90999997497966;992;1 A;
43.7390388895695;-0.999755859375;-0.4049072265625;9.91999997495441;993;1 A;
43.7490388895443;-0.999755859375;-0.4111328125;9.92999997492916;994;1 A;
43.759038889519;-1.0003662109375;-0.406402587890625;9.93999997490391;995;1 A;
43.7690388894938;-0.9991455078125;-0.417816162109375;9.94999997487866;996;1 A;
43.7790388894686;-0.99945068359375;-0.410186767578125;9.95999997485342;997;1 A;
43.7890388894433;-1.00006103515625;-0.414337158203125;9.96999997482817;998;1 A;
43.7990388894181;-1.00006103515625;-0.40753173828125;9.97999997480292;999;1 A;
43.8090388893928;-0.99945068359375;-0.42132568359375;9.98999997477767;1000;1 A;
