Time (s);WE(1).Potential (V);WE(1).Current (A);Corrected time (s);Index;Current range;Overload
66.2633428327011;-0.8953857421875;-2.34222412109375;0;1;1 A;Current overload
66.2733428326759;-0.966796875;-2.00927734375;0.00999999997475243;2;1 A;Current overload
66.2833428326506;-1.05072021484375;-1.4117431640625;0.0199999999495049;3;1 A;
66.2933428326254;-1.0504150390625;-1.1798095703125;0.0299999999242573;4;1 A;
66.3033428326002;-1.0498046875;-1.03851318359375;0.0399999998990097;5;1 A;
66.3133428325749;-1.04949951171875;-0.93994140625;0.0499999998737621;6;1 A;
66.3233428325497;-1.04949951171875;-0.865478515625;0.0599999998485146;7;1 A;
66.3333428325244;-1.0498046875;-0.8074951171875;0.069999999823267;8;1 A;
66.3433428324992;-1.0498046875;-0.760498046875;0.0799999997980194;9;1 A;
66.3533428324739;-1.0498046875;-0.72113037109375;0.0899999997727718;10;1 A;
66.3633428324487;-1.0498046875;-0.68817138671875;0.0999999997475243;11;1 A;
66.3733428324234;-1.04949951171875;-0.65948486328125;0.109999999722277;12;1 A;
66.3833428323982;-1.0498046875;-0.634765625;0.119999999697029;13;1 A;
66.3933428323729;-1.04949951171875;-0.6134033203125;0.129999999671782;14;1 A;
66.4033428323477;-1.0498046875;-0.5938720703125;0.139999999646534;15;1 A;
66.4133428323224;-1.05010986328125;-0.57708740234375;0.149999999621286;16;1 A;
66.4233428322972;-1.0498046875;-0.56182861328125;0.159999999596039;17;1 A;
66.4333428322719;-1.05010986328125;-0.548095703125;0.169999999570791;18;1 A;
66.4433428322467;-1.04949951171875;-0.535888671875;0.179999999545544;19;1 A;
66.4533428322214;-1.04949951171875;-0.52459716796875;0.189999999520296;20;1 A;
66.4633428321962;-1.05010986328125;-0.51422119140625;0.199999999495049;21;1 A;
66.4733428321709;-1.04949951171875;-0.50506591796875;0.209999999469801;22;1 A;
66.4833428321457;-1.04949951171875;-0.4962158203125;0.219999999444553;23;1 A;
66.4933428321204;-1.04949951171875;-0.488311767578125;0.229999999419306;24;1 A;
66.5033428320952;-1.05010986328125;-0.481048583984375;0.239999999394058;25;1 A;
66.51334283207;-1.04949951171875;-0.474395751953125;0.249999999368811;26;1 A;
66.5233428320447;-1.05010986328125;-0.46826171875;0.259999999343563;27;1 A;
66.5333428320195;-1.0491943359375;-0.462493896484375;0.269999999318316;28;1 A;
66.5433428319942;-1.04949951171875;-0.4571533203125;0.279999999293068;29;1 A;
66.553342831969;-1.0498046875;-0.45220947265625;0.28999999926782;30;1 A;
66.5633428319437;-1.0491943359375;-0.447479248046875;0.299999999242573;31;1 A;
66.5733428319185;-1.04949951171875;-0.443206787109375;0.309999999217325;32;1 A;
66.5833428318932;-1.04949951171875;-0.439239501953125;0.319999999192078;33;1 A;
66.593342831868;-1.05010986328125;-0.435333251953125;0.32999999916683;34;1 A;
66.6033428318427;-1.04949951171875;-0.431732177734375;0.339999999141583;35;1 A;
66.6133428318175;-1.05010986328125;-0.428619384765625;0.349999999116335;36;1 A;
66.6233428317922;-1.0491943359375;-0.425628662109375;0.359999999091087;37;1 A;
66.633342831767;-1.0498046875;-0.423095703125;0.36999999906584;38;1 A;
66.6433428317417;-1.04949951171875;-0.420623779296875;0.379999999040592;39;1 A;
66.6533428317165;-1.0491943359375;-0.41845703125;0.389999999015345;40;1 A;
66.6633428316912;-1.04949951171875;-0.416839599609375;0.399999998990097;41;1 A;
66.673342831666;-1.05010986328125;-0.415374755859375;0.40999999896485;42;1 A;
66.6833428316407;-1.0491943359375;-0.41387939453125;0.419999998939602;43;1 A;
66.6933428316155;-1.04949951171875;-0.4124755859375;0.429999998914354;44;1 A;
66.7033428315902;-1.04949951171875;-0.4107666015625;0.439999998889107;45;1 A;
66.713342831565;-1.0491943359375;-0.409423828125;0.449999998863859;46;1 A;
66.7233428315398;-1.04949951171875;-0.40753173828125;0.459999998838612;47;1 A;
66.7333428315145;-1.0498046875;-0.4061279296875;0.469999998813364;48;1 A;
66.7433428314893;-1.04949951171875;-0.404449462890625;0.479999998788116;49;1 A;
66.753342831464;-1.04949951171875;-0.403228759765625;0.489999998762869;50;1 A;
66.7633428314388;-1.0491943359375;-0.401763916015625;0.499999998737621;51;1 A;
66.7733428314135;-1.0491943359375;-0.400634765625;0.509999998712374;52;1 A;
66.7833428313883;-1.04949951171875;-0.398895263671875;0.519999998687126;53;1 A;
66.793342831363;-1.0491943359375;-0.39776611328125;0.529999998661879;54;1 A;
66.8033428313378;-1.04949951171875;-0.396026611328125;0.539999998636631;55;1 A;
66.8133428313125;-1.04949951171875;-0.3951416015625;0.549999998611383;56;1 A;
66.8233428312873;-1.0498046875;-0.394287109375;0.559999998586136;57;1 A;
66.833342831262;-1.0491943359375;-0.39373779296875;0.569999998560888;58;1 A;
66.8433428312368;-1.0498046875;-0.393096923828125;0.579999998535641;59;1 A;
66.8533428312115;-1.04949951171875;-0.3927001953125;0.589999998510393;60;1 A;
66.8633428311863;-1.0491943359375;-0.39208984375;0.599999998485146;61;1 A;
66.873342831161;-1.04949951171875;-0.391815185546875;0.609999998459898;62;1 A;
66.8833428311358;-1.04949951171875;-0.391082763671875;0.61999999843465;63;1 A;
66.8933428311105;-1.05010986328125;-0.390411376953125;0.629999998409403;64;1 A;
66.9033428310853;-1.0491943359375;-0.389984130859375;0.639999998384155;65;1 A;
66.91334283106;-1.04949951171875;-0.389617919921875;0.649999998358908;66;1 A;
66.9233428310348;-1.0491943359375;-0.389251708984375;0.65999999833366;67;1 A;
66.9333428310096;-1.0498046875;-0.3887939453125;0.669999998308413;68;1 A;
66.9433428309843;-1.04949951171875;-0.388092041015625;0.679999998283165;69;1 A;
66.9533428309591;-1.04949951171875;-0.387725830078125;0.689999998257917;70;1 A;
66.9633428309338;-1.0498046875;-0.387237548828125;0.69999999823267;71;1 A;
66.9733428309086;-1.04949951171875;-0.38720703125;0.709999998207422;72;1 A;
66.9833428308833;-1.0498046875;-0.3873291015625;0.719999998182175;73;1 A;
66.9933428308581;-1.0498046875;-0.387359619140625;0.729999998156927;74;1 A;
67.0033428308328;-1.04888916015625;-0.387420654296875;0.73999999813168;75;1 A;
67.0133428308076;-1.04949951171875;-0.387725830078125;0.749999998106432;76;1 A;
67.0233428307823;-1.04949951171875;-0.387481689453125;0.759999998081184;77;1 A;
67.0333428307571;-1.04949951171875;-0.3876953125;0.769999998055937;78;1 A;
67.0433428307318;-1.04949951171875;-0.38726806640625;0.779999998030689;79;1 A;
67.0533428307066;-1.04949951171875;-0.387237548828125;0.789999998005442;80;1 A;
67.0633428306813;-1.05010986328125;-0.387451171875;0.799999997980194;81;1 A;
67.0733428306561;-1.0498046875;-0.38763427734375;0.809999997954947;82;1 A;
67.0833428306308;-1.04949951171875;-0.387451171875;0.819999997929699;83;1 A;
67.0933428306056;-1.04949951171875;-0.387451171875;0.829999997904451;84;1 A;
67.1033428305803;-1.0491943359375;-0.387115478515625;0.839999997879204;85;1 A;
67.1133428305551;-1.0491943359375;-0.387298583984375;0.849999997853956;86;1 A;
67.1233428305299;-1.05010986328125;-0.386688232421875;0.859999997828709;87;1 A;
67.1333428305046;-1.0491943359375;-0.386474609375;0.869999997803461;88;1 A;
67.1433428304794;-1.04949951171875;-0.38580322265625;0.879999997778214;89;1 A;
67.1533428304541;-1.0498046875;-0.38531494140625;0.889999997752966;90;1 A;
67.1633428304289;-1.0498046875;-0.38446044921875;0.899999997727718;91;1 A;
67.1733428304036;-1.0498046875;-0.3836669921875;0.909999997702471;92;1 A;
67.1833428303784;-1.0498046875;-0.382110595703125;0.919999997677223;93;1 A;
67.1933428303531;-1.04949951171875;-0.381256103515625;0.929999997651976;94;1 A;
67.2033428303279;-1.0498046875;-0.37957763671875;0.939999997626728;95;1 A;
67.2133428303026;-1.0491943359375;-0.3787841796875;0.949999997601481;96;1 A;
67.2233428302774;-1.04949951171875;-0.377960205078125;0.959999997576233;97;1 A;
67.2333428302521;-1.04949951171875;-0.377044677734375;0.969999997550985;98;1 A;
67.2433428302269;-1.0498046875;-0.376007080078125;0.979999997525738;99;1 A;
67.2533428302016;-1.0498046875;-0.375274658203125;0.98999999750049;100;1 A;
67.2633428301764;-1.0498046875;-0.374053955078125;0.999999997475243;101;1 A;
67.2733428301511;-1.04949951171875;-0.37347412109375;1.00999999745;102;1 A;
67.2833428301259;-1.04949951171875;-0.372283935546875;1.01999999742475;103;1 A;
67.2933428301006;-1.0498046875;-0.371551513671875;1.0299999973995;104;1 A;
67.3033428300754;-1.04949951171875;-0.37115478515625;1.03999999737425;105;1 A;
67.3133428300501;-1.0491943359375;-0.370758056640625;1.049999997349;106;1 A;
67.3233428300249;-1.04949951171875;-0.370361328125;1.05999999732376;107;1 A;
67.3333428299997;-1.0498046875;-0.370208740234375;1.06999999729851;108;1 A;
67.3433428299744;-1.04949951171875;-0.369659423828125;1.07999999727326;109;1 A;
67.3533428299492;-1.05010986328125;-0.369659423828125;1.08999999724801;110;1 A;
67.3633428299239;-1.0498046875;-0.36920166015625;1.09999999722277;111;1 A;
67.3733428298987;-1.04949951171875;-0.369293212890625;1.10999999719752;112;1 A;
67.3833428298734;-1.04888916015625;-0.369354248046875;1.11999999717227;113;1 A;
67.3933428298482;-1.04949951171875;-0.368988037109375;1.12999999714702;114;1 A;
67.4033428298229;-1.04949951171875;-0.36846923828125;1.13999999712178;115;1 A;
67.4133428297977;-1.04949951171875;-0.36810302734375;1.14999999709653;116;1 A;
67.4233428297724;-1.04949951171875;-0.36700439453125;1.15999999707128;117;1 A;
67.4333428297472;-1.04949951171875;-0.36676025390625;1.16999999704603;118;1 A;
67.4433428297219;-1.0498046875;-0.365570068359375;1.17999999702079;119;1 A;
67.4533428296967;-1.04949951171875;-0.365264892578125;1.18999999699554;120;1 A;
67.4633428296714;-1.04949951171875;-0.3651123046875;1.19999999697029;121;1 A;
67.4733428296462;-1.0491943359375;-0.36468505859375;1.20999999694504;122;1 A;
67.4833428296209;-1.0498046875;-0.36419677734375;1.2199999969198;123;1 A;
67.4933428295957;-1.04949951171875;-0.36407470703125;1.22999999689455;124;1 A;
67.5033428295704;-1.04949951171875;-0.363616943359375;1.2399999968693;125;1 A;
67.5133428295452;-1.04949951171875;-0.36370849609375;1.24999999684405;126;1 A;
67.5233428295199;-1.0491943359375;-0.363006591796875;1.25999999681881;127;1 A;
67.5333428294947;-1.04949951171875;-0.362823486328125;1.26999999679356;128;1 A;
67.5433428294695;-1.05010986328125;-0.362518310546875;1.27999999676831;129;1 A;
67.5533428294442;-1.04949951171875;-0.362091064453125;1.28999999674306;130;1 A;
67.563342829419;-1.05010986328125;-0.361541748046875;1.29999999671782;131;1 A;
67.5733428293937;-1.0498046875;-0.360931396484375;1.30999999669257;132;1 A;
67.5833428293685;-1.04949951171875;-0.359710693359375;1.31999999666732;133;1 A;
67.5933428293432;-1.04949951171875;-0.359375;1.32999999664207;134;1 A;
67.603342829318;-1.04949951171875;-0.358062744140625;1.33999999661683;135;1 A;
67.6133428292927;-1.0491943359375;-0.357635498046875;1.34999999659158;136;1 A;
67.6233428292675;-1.04949951171875;-0.357391357421875;1.35999999656633;137;1 A;
67.6333428292422;-1.04949951171875;-0.356689453125;1.36999999654108;138;1 A;
67.643342829217;-1.0491943359375;-0.356292724609375;1.37999999651583;139;1 A;
67.6533428291917;-1.04949951171875;-0.35638427734375;1.38999999649059;140;1 A;
67.6633428291665;-1.05010986328125;-0.35601806640625;1.39999999646534;141;1 A;
67.6733428291412;-1.05010986328125;-0.356536865234375;1.40999999644009;142;1 A;
67.683342829116;-1.04949951171875;-0.356048583984375;1.41999999641484;143;1 A;
67.6933428290907;-1.04949951171875;-0.356231689453125;1.4299999963896;144;1 A;
67.7033428290655;-1.0491943359375;-0.35650634765625;1.43999999636435;145;1 A;
67.7133428290402;-1.0498046875;-0.356536865234375;1.4499999963391;146;1 A;
67.723342829015;-1.0498046875;-0.3563232421875;1.45999999631385;147;1 A;
67.7333428289897;-1.04949951171875;-0.35650634765625;1.46999999628861;148;1 A;
67.7433428289645;-1.0498046875;-0.356231689453125;1.47999999626336;149;1 A;
67.7533428289393;-1.0498046875;-0.35687255859375;1.48999999623811;150;1 A;
67.763342828914;-1.05010986328125;-0.356719970703125;1.49999999621286;151;1 A;
67.7733428288888;-1.0491943359375;-0.35748291015625;1.50999999618762;152;1 A;
67.7833428288635;-1.04949951171875;-0.3580322265625;1.51999999616237;153;1 A;
67.7933428288383;-1.04949951171875;-0.358306884765625;1.52999999613712;154;1 A;
67.803342828813;-1.0491943359375;-0.358642578125;1.53999999611187;155;1 A;
67.8133428287878;-1.04949951171875;-0.3590087890625;1.54999999608663;156;1 A;
67.8233428287625;-1.0498046875;-0.35858154296875;1.55999999606138;157;1 A;
67.8333428287373;-1.04888916015625;-0.358978271484375;1.56999999603613;158;1 A;
67.843342828712;-1.04949951171875;-0.3577880859375;1.57999999601088;159;1 A;
67.8533428286868;-1.0491943359375;-0.3575439453125;1.58999999598564;160;1 A;
67.8633428286615;-1.0491943359375;-0.357330322265625;1.59999999596039;161;1 A;
67.8733428286363;-1.05010986328125;-0.35638427734375;1.60999999593514;162;1 A;
67.883342828611;-1.0491943359375;-0.355499267578125;1.61999999590989;163;1 A;
67.8933428285858;-1.04949951171875;-0.354949951171875;1.62999999588465;164;1 A;
67.9033428285605;-1.0498046875;-0.3541259765625;1.6399999958594;165;1 A;
67.9133428285353;-1.05010986328125;-0.354217529296875;1.64999999583415;166;1 A;
67.92334282851;-1.04949951171875;-0.353363037109375;1.6599999958089;167;1 A;
67.9333428284848;-1.04888916015625;-0.353546142578125;1.66999999578366;168;1 A;
67.9433428284595;-1.04949951171875;-0.35400390625;1.67999999575841;169;1 A;
67.9533428284343;-1.0491943359375;-0.35443115234375;1.68999999573316;170;1 A;
67.9633428284091;-1.04949951171875;-0.35516357421875;1.69999999570791;171;1 A;
67.9733428283838;-1.04888916015625;-0.356109619140625;1.70999999568267;172;1 A;
67.9833428283586;-1.05010986328125;-0.35638427734375;1.71999999565742;173;1 A;
67.9933428283333;-1.0491943359375;-0.358001708984375;1.72999999563217;174;1 A;
68.0033428283081;-1.04949951171875;-0.358184814453125;1.73999999560692;175;1 A;
68.0133428282828;-1.04888916015625;-0.35943603515625;1.74999999558167;176;1 A;
68.0233428282576;-1.0491943359375;-0.36065673828125;1.75999999555643;177;1 A;
68.0333428282323;-1.0498046875;-0.360931396484375;1.76999999553118;178;1 A;
68.0433428282071;-1.0498046875;-0.36138916015625;1.77999999550593;179;1 A;
68.0533428281818;-1.04949951171875;-0.362060546875;1.78999999548068;180;1 A;
68.0633428281566;-1.0491943359375;-0.361785888671875;1.79999999545544;181;1 A;
68.0733428281313;-1.0491943359375;-0.362640380859375;1.80999999543019;182;1 A;
68.0833428281061;-1.04949951171875;-0.362091064453125;1.81999999540494;183;1 A;
68.0933428280808;-1.04949951171875;-0.362762451171875;1.82999999537969;184;1 A;
68.1033428280556;-1.0491943359375;-0.363800048828125;1.83999999535445;185;1 A;
68.1133428280303;-1.0491943359375;-0.364532470703125;1.8499999953292;186;1 A;
68.1233428280051;-1.04888916015625;-0.36517333984375;1.85999999530395;187;1 A;
68.1333428279798;-1.0491943359375;-0.366363525390625;1.8699999952787;188;1 A;
68.1433428279546;-1.04949951171875;-0.3668212890625;1.87999999525346;189;1 A;
68.1533428279294;-1.0498046875;-0.368194580078125;1.88999999522821;190;1 A;
68.1633428279041;-1.0498046875;-0.368072509765625;1.89999999520296;191;1 A;
68.1733428278789;-1.0491943359375;-0.369110107421875;1.90999999517771;192;1 A;
68.1833428278536;-1.04949951171875;-0.36956787109375;1.91999999515247;193;1 A;
68.1933428278284;-1.0498046875;-0.369873046875;1.92999999512722;194;1 A;
68.2033428278031;-1.0498046875;-0.37017822265625;1.93999999510197;195;1 A;
68.2133428277779;-1.04949951171875;-0.37054443359375;1.94999999507672;196;1 A;
68.2233428277526;-1.04949951171875;-0.369842529296875;1.95999999505148;197;1 A;
68.2333428277274;-1.04949951171875;-0.370635986328125;1.96999999502623;198;1 A;
68.2433428277021;-1.0498046875;-0.369171142578125;1.97999999500098;199;1 A;
68.2533428276769;-1.0491943359375;-0.36944580078125;1.98999999497573;200;1 A;
68.2633428276516;-1.0491943359375;-0.369537353515625;1.99999999495049;201;1 A;
68.2733428276264;-1.0498046875;-0.369354248046875;2.00999999492524;202;1 A;
68.2833428276011;-1.0491943359375;-0.36920166015625;2.01999999489999;203;1 A;
68.2933428275759;-1.04949951171875;-0.370025634765625;2.02999999487474;204;1 A;
68.3033428275506;-1.04949951171875;-0.370330810546875;2.0399999948495;205;1 A;
68.3133428275254;-1.05010986328125;-0.3720703125;2.04999999482425;206;1 A;
68.3233428275001;-1.0498046875;-0.37213134765625;2.059999994799;207;1 A;
68.3333428274749;-1.0491943359375;-0.373291015625;2.06999999477375;208;1 A;
68.3433428274496;-1.0498046875;-0.374481201171875;2.0799999947485;209;1 A;
68.3533428274244;-1.0498046875;-0.374298095703125;2.08999999472326;210;1 A;
68.3633428273992;-1.04949951171875;-0.3743896484375;2.09999999469801;211;1 A;
68.3733428273739;-1.04949951171875;-0.374298095703125;2.10999999467276;212;1 A;
68.3833428273487;-1.04949951171875;-0.37353515625;2.11999999464751;213;1 A;
68.3933428273234;-1.0491943359375;-0.373992919921875;2.12999999462227;214;1 A;
68.4033428272982;-1.0491943359375;-0.37310791015625;2.13999999459702;215;1 A;
68.4133428272729;-1.04949951171875;-0.373504638671875;2.14999999457177;216;1 A;
68.4233428272477;-1.04949951171875;-0.37457275390625;2.15999999454652;217;1 A;
68.4333428272224;-1.04949951171875;-0.3741455078125;2.16999999452128;218;1 A;
68.4433428271972;-1.0498046875;-0.374786376953125;2.17999999449603;219;1 A;
68.4533428271719;-1.0491943359375;-0.376007080078125;2.18999999447078;220;1 A;
68.4633428271467;-1.0491943359375;-0.376190185546875;2.19999999444553;221;1 A;
68.4733428271214;-1.0498046875;-0.377685546875;2.20999999442029;222;1 A;
68.4833428270962;-1.0491943359375;-0.37701416015625;2.21999999439504;223;1 A;
68.4933428270709;-1.04949951171875;-0.378082275390625;2.22999999436979;224;1 A;
68.5033428270457;-1.04949951171875;-0.37921142578125;2.23999999434454;225;1 A;
68.5133428270204;-1.0498046875;-0.37945556640625;2.2499999943193;226;1 A;
68.5233428269952;-1.0491943359375;-0.379974365234375;2.25999999429405;227;1 A;
68.5333428269699;-1.05010986328125;-0.380889892578125;2.2699999942688;228;1 A;
68.5433428269447;-1.0498046875;-0.38079833984375;2.27999999424355;229;1 A;
68.5533428269194;-1.04949951171875;-0.38201904296875;2.28999999421831;230;1 A;
68.5633428268942;-1.04949951171875;-0.381134033203125;2.29999999419306;231;1 A;
68.573342826869;-1.0498046875;-0.381744384765625;2.30999999416781;232;1 A;
68.5833428268437;-1.0498046875;-0.38177490234375;2.31999999414256;233;1 A;
68.5933428268185;-1.04949951171875;-0.381805419921875;2.32999999411732;234;1 A;
68.6033428267932;-1.0498046875;-0.38189697265625;2.33999999409207;235;1 A;
68.613342826768;-1.04949951171875;-0.382476806640625;2.34999999406682;236;1 A;
68.6233428267427;-1.05010986328125;-0.3819580078125;2.35999999404157;237;1 A;
68.6333428267175;-1.0498046875;-0.38385009765625;2.36999999401633;238;1 A;
68.6433428266922;-1.04949951171875;-0.382537841796875;2.37999999399108;239;1 A;
68.653342826667;-1.04949951171875;-0.383575439453125;2.38999999396583;240;1 A;
68.6633428266417;-1.0491943359375;-0.384185791015625;2.39999999394058;241;1 A;
68.6733428266165;-1.04949951171875;-0.384429931640625;2.40999999391533;242;1 A;
68.6833428265912;-1.0498046875;-0.384307861328125;2.41999999389009;243;1 A;
68.693342826566;-1.0491943359375;-0.38531494140625;2.42999999386484;244;1 A;
68.7033428265407;-1.04949951171875;-0.385009765625;2.43999999383959;245;1 A;
68.7133428265155;-1.0491943359375;-0.38641357421875;2.44999999381434;246;1 A;
68.7233428264902;-1.04949951171875;-0.38519287109375;2.4599999937891;247;1 A;
68.733342826465;-1.04949951171875;-0.385711669921875;2.46999999376385;248;1 A;
68.7433428264397;-1.04949951171875;-0.3868408203125;2.4799999937386;249;1 A;
68.7533428264145;-1.04949951171875;-0.38604736328125;2.48999999371335;250;1 A;
68.7633428263892;-1.0498046875;-0.386199951171875;2.49999999368811;251;1 A;
68.773342826364;-1.04949951171875;-0.386566162109375;2.50999999366286;252;1 A;
68.7833428263388;-1.0498046875;-0.386138916015625;2.51999999363761;253;1 A;
68.7933428263135;-1.05010986328125;-0.386962890625;2.52999999361236;254;1 A;
68.8033428262883;-1.0498046875;-0.3857421875;2.53999999358712;255;1 A;
68.813342826263;-1.04949951171875;-0.386077880859375;2.54999999356187;256;1 A;
68.8233428262378;-1.048583984375;-0.387054443359375;2.55999999353662;257;1 A;
68.8333428262125;-1.0491943359375;-0.38568115234375;2.56999999351137;258;1 A;
68.8433428261873;-1.0498046875;-0.386016845703125;2.57999999348613;259;1 A;
68.853342826162;-1.04949951171875;-0.38690185546875;2.58999999346088;260;1 A;
68.8633428261368;-1.04888916015625;-0.386383056640625;2.59999999343563;261;1 A;
68.8733428261115;-1.04949951171875;-0.38800048828125;2.60999999341038;262;1 A;
68.8833428260863;-1.04949951171875;-0.38604736328125;2.61999999338514;263;1 A;
68.893342826061;-1.0491943359375;-0.386993408203125;2.62999999335989;264;1 A;
68.9033428260358;-1.04949951171875;-0.387481689453125;2.63999999333464;265;1 A;
68.9133428260105;-1.04949951171875;-0.387298583984375;2.64999999330939;266;1 A;
68.9233428259853;-1.04949951171875;-0.3873291015625;2.65999999328415;267;1 A;
68.93334282596;-1.0498046875;-0.3880615234375;2.6699999932589;268;1 A;
68.9433428259348;-1.05010986328125;-0.3876953125;2.67999999323365;269;1 A;
68.9533428259095;-1.0491943359375;-0.389495849609375;2.6899999932084;270;1 A;
68.9633428258843;-1.04949951171875;-0.388153076171875;2.69999999318316;271;1 A;
68.973342825859;-1.05010986328125;-0.38922119140625;2.70999999315791;272;1 A;
68.9833428258338;-1.04949951171875;-0.389312744140625;2.71999999313266;273;1 A;
68.9933428258086;-1.0498046875;-0.389495849609375;2.72999999310741;274;1 A;
69.0033428257833;-1.0491943359375;-0.38983154296875;2.73999999308217;275;1 A;
69.0133428257581;-1.04949951171875;-0.39031982421875;2.74999999305692;276;1 A;
69.0233428257328;-1.0491943359375;-0.3896484375;2.75999999303167;277;1 A;
69.0333428257076;-1.04949951171875;-0.39154052734375;2.76999999300642;278;1 A;
69.0433428256823;-1.0498046875;-0.3896484375;2.77999999298117;279;1 A;
69.0533428256571;-1.0498046875;-0.39019775390625;2.78999999295593;280;1 A;
69.0633428256318;-1.0498046875;-0.390625;2.79999999293068;281;1 A;
69.0733428256066;-1.0498046875;-0.38946533203125;2.80999999290543;282;1 A;
69.0833428255813;-1.0491943359375;-0.388763427734375;2.81999999288018;283;1 A;
69.0933428255561;-1.04949951171875;-0.38861083984375;2.82999999285494;284;1 A;
69.1033428255308;-1.0498046875;-0.387054443359375;2.83999999282969;285;1 A;
69.1133428255056;-1.04949951171875;-0.3870849609375;2.84999999280444;286;1 A;
69.1233428254803;-1.0498046875;-0.384246826171875;2.85999999277919;287;1 A;
69.1333428254551;-1.04949951171875;-0.3836669921875;2.86999999275395;288;1 A;
69.1433428254298;-1.0498046875;-0.38421630859375;2.8799999927287;289;1 A;
69.1533428254046;-1.04949951171875;-0.382110595703125;2.88999999270345;290;1 A;
69.1633428253793;-1.0498046875;-0.3812255859375;2.8999999926782;291;1 A;
69.1733428253541;-1.0491943359375;-0.38079833984375;2.90999999265296;292;1 A;
69.1833428253289;-1.0491943359375;-0.3797607421875;2.91999999262771;293;1 A;
69.1933428253036;-1.04949951171875;-0.380157470703125;2.92999999260246;294;1 A;
69.2033428252784;-1.04949951171875;-0.377471923828125;2.93999999257721;295;1 A;
69.2133428252531;-1.0498046875;-0.37744140625;2.94999999255197;296;1 A;
69.2233428252279;-1.05010986328125;-0.376739501953125;2.95999999252672;297;1 A;
69.2333428252026;-1.04949951171875;-0.375030517578125;2.96999999250147;298;1 A;
69.2433428251774;-1.0491943359375;-0.374114990234375;2.97999999247622;299;1 A;
69.2533428251521;-1.05010986328125;-0.3743896484375;2.98999999245098;300;1 A;
69.2633428251269;-1.0498046875;-0.372894287109375;2.99999999242573;301;1 A;
69.2733428251016;-1.04888916015625;-0.374481201171875;3.00999999240048;302;1 A;
69.2833428250764;-1.0498046875;-0.371429443359375;3.01999999237523;303;1 A;
69.2933428250511;-1.04949951171875;-0.371978759765625;3.02999999234999;304;1 A;
69.3033428250259;-1.0491943359375;-0.372222900390625;3.03999999232474;305;1 A;
69.3133428250006;-1.0498046875;-0.37103271484375;3.04999999229949;306;1 A;
69.3233428249754;-1.05010986328125;-0.370574951171875;3.05999999227424;307;1 A;
69.3333428249501;-1.0498046875;-0.370574951171875;3.069999992249;308;1 A;
69.3433428249249;-1.04949951171875;-0.369842529296875;3.07999999222375;309;1 A;
69.3533428248996;-1.0491943359375;-0.371063232421875;3.0899999921985;310;1 A;
69.3633428248744;-1.0491943359375;-0.369171142578125;3.09999999217325;311;1 A;
69.3733428248491;-1.0498046875;-0.369171142578125;3.109999992148;312;1 A;
69.3833428248239;-1.0491943359375;-0.36981201171875;3.11999999212276;313;1 A;
69.3933428247987;-1.04949951171875;-0.36822509765625;3.12999999209751;314;1 A;
69.4033428247734;-1.0491943359375;-0.36859130859375;3.13999999207226;315;1 A;
69.4133428247482;-1.0498046875;-0.368408203125;3.14999999204701;316;1 A;
69.4233428247229;-1.0498046875;-0.367645263671875;3.15999999202177;317;1 A;
69.4333428246977;-1.0498046875;-0.36932373046875;3.16999999199652;318;1 A;
69.4433428246724;-1.04888916015625;-0.367584228515625;3.17999999197127;319;1 A;
69.4533428246472;-1.04949951171875;-0.368499755859375;3.18999999194602;320;1 A;
69.4633428246219;-1.0491943359375;-0.369415283203125;3.19999999192078;321;1 A;
69.4733428245967;-1.0498046875;-0.36859130859375;3.20999999189553;322;1 A;
69.4833428245714;-1.0491943359375;-0.3685302734375;3.21999999187028;323;1 A;
69.4933428245462;-1.0498046875;-0.37005615234375;3.22999999184503;324;1 A;
69.5033428245209;-1.05010986328125;-0.36920166015625;3.23999999181979;325;1 A;
69.5133428244957;-1.0498046875;-0.371429443359375;3.24999999179454;326;1 A;
69.5233428244704;-1.0498046875;-0.36895751953125;3.25999999176929;327;1 A;
69.5333428244452;-1.0498046875;-0.3702392578125;3.26999999174404;328;1 A;
69.5433428244199;-1.05010986328125;-0.37158203125;3.2799999917188;329;1 A;
69.5533428243947;-1.04949951171875;-0.37060546875;3.28999999169355;330;1 A;
69.5633428243694;-1.04949951171875;-0.37017822265625;3.2999999916683;331;1 A;
69.5733428243442;-1.0498046875;-0.37103271484375;3.30999999164305;332;1 A;
69.5833428243189;-1.04949951171875;-0.370880126953125;3.31999999161781;333;1 A;
69.5933428242937;-1.04949951171875;-0.37286376953125;3.32999999159256;334;1 A;
69.6033428242685;-1.04949951171875;-0.371063232421875;3.33999999156731;335;1 A;
69.6133428242432;-1.0491943359375;-0.372528076171875;3.34999999154206;336;1 A;
69.623342824218;-1.0498046875;-0.37347412109375;3.35999999151682;337;1 A;
69.6333428241927;-1.0498046875;-0.3729248046875;3.36999999149157;338;1 A;
69.6433428241675;-1.0491943359375;-0.373809814453125;3.37999999146632;339;1 A;
69.6533428241422;-1.04949951171875;-0.375091552734375;3.38999999144107;340;1 A;
69.663342824117;-1.0498046875;-0.375;3.39999999141583;341;1 A;
69.6733428240917;-1.04949951171875;-0.378448486328125;3.40999999139058;342;1 A;
69.6833428240665;-1.04949951171875;-0.37603759765625;3.41999999136533;343;1 A;
69.6933428240412;-1.0498046875;-0.378082275390625;3.42999999134008;344;1 A;
69.703342824016;-1.0498046875;-0.380096435546875;3.43999999131483;345;1 A;
69.7133428239907;-1.0498046875;-0.37957763671875;3.44999999128959;346;1 A;
69.7233428239655;-1.05010986328125;-0.380615234375;3.45999999126434;347;1 A;
69.7333428239402;-1.0498046875;-0.38201904296875;3.46999999123909;348;1 A;
69.743342823915;-1.0498046875;-0.38250732421875;3.47999999121384;349;1 A;
69.7533428238897;-1.0498046875;-0.385162353515625;3.4899999911886;350;1 A;
69.7633428238645;-1.04949951171875;-0.38348388671875;3.49999999116335;351;1 A;
69.7733428238392;-1.0491943359375;-0.3846435546875;3.5099999911381;352;1 A;
69.783342823814;-1.0504150390625;-0.38690185546875;3.51999999111285;353;1 A;
69.7933428237887;-1.05010986328125;-0.38555908203125;3.52999999108761;354;1 A;
69.8033428237635;-1.04949951171875;-0.386444091796875;3.53999999106236;355;1 A;
69.8133428237383;-1.04949951171875;-0.3868408203125;3.54999999103711;356;1 A;
69.823342823713;-1.0491943359375;-0.38592529296875;3.55999999101186;357;1 A;
69.8333428236878;-1.0498046875;-0.387908935546875;3.56999999098662;358;1 A;
69.8433428236625;-1.0498046875;-0.38543701171875;3.57999999096137;359;1 A;
69.8533428236373;-1.04888916015625;-0.386199951171875;3.58999999093612;360;1 A;
69.863342823612;-1.04949951171875;-0.387664794921875;3.59999999091087;361;1 A;
69.8733428235868;-1.0498046875;-0.3857421875;3.60999999088563;362;1 A;
69.8833428235615;-1.0498046875;-0.385650634765625;3.61999999086038;363;1 A;
69.8933428235363;-1.04949951171875;-0.387237548828125;3.62999999083513;364;1 A;
69.903342823511;-1.0491943359375;-0.385955810546875;3.63999999080988;365;1 A;
69.9133428234858;-1.04949951171875;-0.388397216796875;3.64999999078464;366;1 A;
69.9233428234605;-1.04949951171875;-0.384979248046875;3.65999999075939;367;1 A;
69.9333428234353;-1.0498046875;-0.386627197265625;3.66999999073414;368;1 A;
69.94334282341;-1.04949951171875;-0.38836669921875;3.67999999070889;369;1 A;
69.9533428233848;-1.0498046875;-0.387451171875;3.68999999068365;370;1 A;
69.9633428233595;-1.04949951171875;-0.387054443359375;3.6999999906584;371;1 A;
69.9733428233343;-1.0498046875;-0.3885498046875;3.70999999063315;372;1 A;
69.983342823309;-1.04949951171875;-0.3887939453125;3.7199999906079;373;1 A;
69.9933428232838;-1.04949951171875;-0.3909912109375;3.72999999058266;374;1 A;
70.0033428232585;-1.04949951171875;-0.387939453125;3.73999999055741;375;1 A;
70.0133428232333;-1.0491943359375;-0.38934326171875;3.74999999053216;376;1 A;
70.0233428232081;-1.04949951171875;-0.3892822265625;3.75999999050691;377;1 A;
70.0333428231828;-1.0491943359375;-0.38812255859375;3.76999999048167;378;1 A;
70.0433428231576;-1.04949951171875;-0.38836669921875;3.77999999045642;379;1 A;
70.0533428231323;-1.05010986328125;-0.38818359375;3.78999999043117;380;1 A;
70.0633428231071;-1.0498046875;-0.386962890625;3.79999999040592;381;1 A;
70.0733428230818;-1.04949951171875;-0.389617919921875;3.80999999038067;382;1 A;
70.0833428230566;-1.04949951171875;-0.385894775390625;3.81999999035543;383;1 A;
70.0933428230313;-1.05010986328125;-0.386505126953125;3.82999999033018;384;1 A;
70.1033428230061;-1.0498046875;-0.388214111328125;3.83999999030493;385;1 A;
70.1133428229808;-1.04949951171875;-0.3863525390625;3.84999999027968;386;1 A;
70.1233428229556;-1.0498046875;-0.386505126953125;3.85999999025444;387;1 A;
70.1333428229303;-1.04949951171875;-0.386505126953125;3.86999999022919;388;1 A;
70.1433428229051;-1.04949951171875;-0.385711669921875;3.87999999020394;389;1 A;
70.1533428228798;-1.0498046875;-0.387664794921875;3.88999999017869;390;1 A;
70.1633428228546;-1.0498046875;-0.383880615234375;3.89999999015345;391;1 A;
70.1733428228293;-1.04949951171875;-0.3839111328125;3.9099999901282;392;1 A;
70.1833428228041;-1.04949951171875;-0.3853759765625;3.91999999010295;393;1 A;
70.1933428227788;-1.04949951171875;-0.382568359375;3.9299999900777;394;1 A;
70.2033428227536;-1.0498046875;-0.382293701171875;3.93999999005246;395;1 A;
70.2133428227284;-1.05010986328125;-0.3819580078125;3.94999999002721;396;1 A;
70.2233428227031;-1.04949951171875;-0.380706787109375;3.95999999000196;397;1 A;
70.2333428226779;-1.04949951171875;-0.38250732421875;3.96999998997671;398;1 A;
70.2433428226526;-1.04888916015625;-0.379180908203125;3.97999998995147;399;1 A;
70.2533428226274;-1.0491943359375;-0.379852294921875;3.98999998992622;400;1 A;
70.2633428226021;-1.0491943359375;-0.3812255859375;3.99999998990097;401;1 A;
70.2733428225769;-1.0498046875;-0.378387451171875;4.00999998987572;402;1 A;
70.2833428225516;-1.04949951171875;-0.37799072265625;4.01999998985048;403;1 A;
70.2933428225264;-1.04949951171875;-0.37908935546875;4.02999998982523;404;1 A;
70.3033428225011;-1.04949951171875;-0.37799072265625;4.03999998979998;405;1 A;
70.3133428224759;-1.04949951171875;-0.379791259765625;4.04999998977473;406;1 A;
70.3233428224506;-1.0491943359375;-0.375152587890625;4.05999998974949;407;1 A;
70.3333428224254;-1.04949951171875;-0.376708984375;4.06999998972424;408;1 A;
70.3433428224001;-1.0498046875;-0.3779296875;4.07999998969899;409;1 A;
70.3533428223749;-1.0498046875;-0.37481689453125;4.08999998967374;410;1 A;
70.3633428223496;-1.04949951171875;-0.3739013671875;4.0999999896485;411;1 A;
70.3733428223244;-1.0504150390625;-0.373626708984375;4.10999998962325;412;1 A;
70.3833428222991;-1.0491943359375;-0.37347412109375;4.119999989598;413;1 A;
70.3933428222739;-1.0498046875;-0.374267578125;4.12999998957275;414;1 A;
70.4033428222486;-1.04888916015625;-0.371124267578125;4.1399999895475;415;1 A;
70.4133428222234;-1.0498046875;-0.372100830078125;4.14999998952226;416;1 A;
70.4233428221982;-1.0491943359375;-0.37213134765625;4.15999998949701;417;1 A;
70.4333428221729;-1.0498046875;-0.37164306640625;4.16999998947176;418;1 A;
70.4433428221477;-1.0498046875;-0.37225341796875;4.17999998944651;419;1 A;
70.4533428221224;-1.0491943359375;-0.37200927734375;4.18999998942127;420;1 A;
70.4633428220972;-1.0498046875;-0.370880126953125;4.19999998939602;421;1 A;
70.4733428220719;-1.0491943359375;-0.374969482421875;4.20999998937077;422;1 A;
70.4833428220467;-1.0491943359375;-0.37066650390625;4.21999998934552;423;1 A;
70.4933428220214;-1.0491943359375;-0.371826171875;4.22999998932028;424;1 A;
70.5033428219962;-1.0491943359375;-0.372344970703125;4.23999998929503;425;1 A;
70.5133428219709;-1.04949951171875;-0.37139892578125;4.24999998926978;426;1 A;
70.5233428219457;-1.0491943359375;-0.36968994140625;4.25999998924453;427;1 A;
70.5333428219204;-1.0498046875;-0.370758056640625;4.26999998921929;428;1 A;
70.5433428218952;-1.0498046875;-0.36907958984375;4.27999998919404;429;1 A;
70.5533428218699;-1.04949951171875;-0.3714599609375;4.28999998916879;430;1 A;
70.5633428218447;-1.04949951171875;-0.366424560546875;4.29999998914354;431;1 A;
70.5733428218194;-1.04949951171875;-0.367645263671875;4.3099999891183;432;1 A;
70.5833428217942;-1.0498046875;-0.369598388671875;4.31999998909305;433;1 A;
70.5933428217689;-1.0498046875;-0.367523193359375;4.3299999890678;434;1 A;
70.6033428217437;-1.04949951171875;-0.367218017578125;4.33999998904255;435;1 A;
70.6133428217184;-1.04949951171875;-0.36737060546875;4.34999998901731;436;1 A;
70.6233428216932;-1.04949951171875;-0.3677978515625;4.35999998899206;437;1 A;
70.633342821668;-1.0491943359375;-0.36895751953125;4.36999998896681;438;1 A;
70.6433428216427;-1.0498046875;-0.366912841796875;4.37999998894156;439;1 A;
70.6533428216175;-1.0498046875;-0.367095947265625;4.38999998891632;440;1 A;
70.6633428215922;-1.0491943359375;-0.370269775390625;4.39999998889107;441;1 A;
70.673342821567;-1.0498046875;-0.365325927734375;4.40999998886582;442;1 A;
70.6833428215417;-1.0491943359375;-0.366363525390625;4.41999998884057;443;1 A;
70.6933428215165;-1.0498046875;-0.366668701171875;4.42999998881533;444;1 A;
70.7033428214912;-1.04949951171875;-0.365509033203125;4.43999998879008;445;1 A;
70.713342821466;-1.04949951171875;-0.36810302734375;4.44999998876483;446;1 A;
70.7233428214407;-1.05010986328125;-0.363037109375;4.45999998873958;447;1 A;
70.7333428214155;-1.0498046875;-0.365447998046875;4.46999998871433;448;1 A;
70.7433428213902;-1.04949951171875;-0.366943359375;4.47999998868909;449;1 A;
70.753342821365;-1.04949951171875;-0.36566162109375;4.48999998866384;450;1 A;
70.7633428213397;-1.04949951171875;-0.364898681640625;4.49999998863859;451;1 A;
70.7733428213145;-1.0498046875;-0.36590576171875;4.50999998861334;452;1 A;
70.7833428212892;-1.04949951171875;-0.365692138671875;4.5199999885881;453;1 A;
70.793342821264;-1.04949951171875;-0.368560791015625;4.52999998856285;454;1 A;
70.8033428212387;-1.04949951171875;-0.364715576171875;4.5399999885376;455;1 A;
70.8133428212135;-1.04949951171875;-0.36663818359375;4.54999998851235;456;1 A;
70.8233428211882;-1.04949951171875;-0.36627197265625;4.55999998848711;457;1 A;
70.833342821163;-1.0498046875;-0.3665771484375;4.56999998846186;458;1 A;
70.8433428211378;-1.0498046875;-0.36590576171875;4.57999998843661;459;1 A;
70.8533428211125;-1.04949951171875;-0.36602783203125;4.58999998841136;460;1 A;
70.8633428210873;-1.04949951171875;-0.36407470703125;4.59999998838612;461;1 A;
70.873342821062;-1.0491943359375;-0.368804931640625;4.60999998836087;462;1 A;
70.8833428210368;-1.04949951171875;-0.363189697265625;4.61999998833562;463;1 A;
70.8933428210115;-1.04949951171875;-0.365447998046875;4.62999998831037;464;1 A;
70.9033428209863;-1.0491943359375;-0.36669921875;4.63999998828513;465;1 A;
70.913342820961;-1.04888916015625;-0.36578369140625;4.64999998825988;466;1 A;
70.9233428209358;-1.0498046875;-0.365325927734375;4.65999998823463;467;1 A;
70.9333428209105;-1.0498046875;-0.366851806640625;4.66999998820938;468;1 A;
70.9433428208853;-1.0498046875;-0.36669921875;4.67999998818414;469;1 A;
70.95334282086;-1.04949951171875;-0.36920166015625;4.68999998815889;470;1 A;
70.9633428208348;-1.04888916015625;-0.365203857421875;4.69999998813364;471;1 A;
70.9733428208095;-1.0498046875;-0.366943359375;4.70999998810839;472;1 A;
70.9833428207843;-1.0498046875;-0.37030029296875;4.71999998808315;473;1 A;
70.993342820759;-1.0491943359375;-0.36749267578125;4.7299999880579;474;1 A;
71.0033428207338;-1.0491943359375;-0.36767578125;4.73999998803265;475;1 A;
71.0133428207085;-1.0498046875;-0.36761474609375;4.7499999880074;476;1 A;
71.0233428206833;-1.0491943359375;-0.367919921875;4.75999998798216;477;1 A;
71.033342820658;-1.05010986328125;-0.369720458984375;4.76999998795691;478;1 A;
71.0433428206328;-1.05010986328125;-0.36651611328125;4.77999998793166;479;1 A;
71.0533428206076;-1.04949951171875;-0.36724853515625;4.78999998790641;480;1 A;
71.0633428205823;-1.04949951171875;-0.370147705078125;4.79999998788116;481;1 A;
71.0733428205571;-1.0498046875;-0.36651611328125;4.80999998785592;482;1 A;
71.0833428205318;-1.04949951171875;-0.3677978515625;4.81999998783067;483;1 A;
71.0933428205066;-1.04949951171875;-0.368804931640625;4.82999998780542;484;1 A;
71.1033428204813;-1.0498046875;-0.36737060546875;4.83999998778017;485;1 A;
71.1133428204561;-1.04949951171875;-0.372039794921875;4.84999998775493;486;1 A;
71.1233428204308;-1.0498046875;-0.365753173828125;4.85999998772968;487;1 A;
71.1333428204056;-1.04949951171875;-0.3690185546875;4.86999998770443;488;1 A;
71.1433428203803;-1.0498046875;-0.36968994140625;4.87999998767918;489;1 A;
71.1533428203551;-1.04949951171875;-0.36968994140625;4.88999998765394;490;1 A;
71.1633428203298;-1.0498046875;-0.3677978515625;4.89999998762869;491;1 A;
71.1733428203046;-1.04949951171875;-0.3690185546875;4.90999998760344;492;1 A;
71.1833428202793;-1.0498046875;-0.368408203125;4.91999998757819;493;1 A;
71.1933428202541;-1.04949951171875;-0.37164306640625;4.92999998755295;494;1 A;
71.2033428202288;-1.0498046875;-0.367431640625;4.9399999875277;495;1 A;
71.2133428202036;-1.0498046875;-0.368927001953125;4.94999998750245;496;1 A;
71.2233428201783;-1.04949951171875;-0.37078857421875;4.9599999874772;497;1 A;
71.2333428201531;-1.04949951171875;-0.368927001953125;4.96999998745196;498;1 A;
71.2433428201279;-1.04949951171875;-0.369354248046875;4.97999998742671;499;1 A;
71.2533428201026;-1.0491943359375;-0.368408203125;4.98999998740146;500;1 A;
71.2633428200774;-1.0491943359375;-0.36724853515625;4.99999998737621;501;1 A;
71.2733428200521;-1.05010986328125;-0.3709716796875;5.00999998735097;502;1 A;
71.2833428200269;-1.0498046875;-0.366058349609375;5.01999998732572;503;1 A;
71.2933428200016;-1.04949951171875;-0.36767578125;5.02999998730047;504;1 A;
71.3033428199764;-1.0491943359375;-0.36981201171875;5.03999998727522;505;1 A;
71.3133428199511;-1.0491943359375;-0.36688232421875;5.04999998724998;506;1 A;
71.3233428199259;-1.0498046875;-0.36676025390625;5.05999998722473;507;1 A;
71.3333428199006;-1.04949951171875;-0.36767578125;5.06999998719948;508;1 A;
71.3433428198754;-1.04949951171875;-0.36663818359375;5.07999998717423;509;1 A;
71.3533428198501;-1.04949951171875;-0.369049072265625;5.08999998714899;510;1 A;
71.3633428198249;-1.04949951171875;-0.364166259765625;5.09999998712374;511;1 A;
71.3733428197996;-1.0491943359375;-0.365936279296875;5.10999998709849;512;1 A;
71.3833428197744;-1.0498046875;-0.3687744140625;5.11999998707324;513;1 A;
71.3933428197491;-1.05010986328125;-0.36712646484375;5.129999987048;514;1 A;
71.4033428197239;-1.04949951171875;-0.36572265625;5.13999998702275;515;1 A;
71.4133428196986;-1.0491943359375;-0.366912841796875;5.1499999869975;516;1 A;
71.4233428196734;-1.0491943359375;-0.36773681640625;5.15999998697225;517;1 A;
71.4333428196481;-1.0491943359375;-0.37152099609375;5.169999986947;518;1 A;
71.4433428196229;-1.04949951171875;-0.367156982421875;5.17999998692176;519;1 A;
71.4533428195977;-1.0491943359375;-0.37054443359375;5.18999998689651;520;1 A;
71.4633428195724;-1.04949951171875;-0.37164306640625;5.19999998687126;521;1 A;
71.4733428195472;-1.04949951171875;-0.37017822265625;5.20999998684601;522;1 A;
71.4833428195219;-1.04949951171875;-0.370086669921875;5.21999998682077;523;1 A;
71.4933428194967;-1.0498046875;-0.37237548828125;5.22999998679552;524;1 A;
71.5033428194714;-1.0498046875;-0.371734619140625;5.23999998677027;525;1 A;
71.5133428194462;-1.0491943359375;-0.376739501953125;5.24999998674502;526;1 A;
71.5233428194209;-1.04888916015625;-0.369781494140625;5.25999998671978;527;1 A;
71.5333428193957;-1.0498046875;-0.373443603515625;5.26999998669453;528;1 A;
71.5433428193704;-1.04949951171875;-0.375030517578125;5.27999998666928;529;1 A;
71.5533428193452;-1.04949951171875;-0.373260498046875;5.28999998664403;530;1 A;
71.5633428193199;-1.05010986328125;-0.37286376953125;5.29999998661879;531;1 A;
71.5733428192947;-1.0498046875;-0.373382568359375;5.30999998659354;532;1 A;
71.5833428192694;-1.0491943359375;-0.3739013671875;5.31999998656829;533;1 A;
71.5933428192442;-1.0498046875;-0.37628173828125;5.32999998654304;534;1 A;
71.6033428192189;-1.04888916015625;-0.373077392578125;5.3399999865178;535;1 A;
71.6133428191937;-1.04949951171875;-0.373504638671875;5.34999998649255;536;1 A;
71.6233428191684;-1.04949951171875;-0.37713623046875;5.3599999864673;537;1 A;
71.6333428191432;-1.04888916015625;-0.37335205078125;5.36999998644205;538;1 A;
71.6433428191179;-1.0498046875;-0.3748779296875;5.37999998641681;539;1 A;
71.6533428190927;-1.04949951171875;-0.3731689453125;5.38999998639156;540;1 A;
71.6633428190675;-1.0498046875;-0.371978759765625;5.39999998636631;541;1 A;
71.6733428190422;-1.0498046875;-0.375885009765625;5.40999998634106;542;1 A;
71.683342819017;-1.0498046875;-0.371124267578125;5.41999998631582;543;1 A;
71.6933428189917;-1.0498046875;-0.37286376953125;5.42999998629057;544;1 A;
71.7033428189665;-1.0498046875;-0.374359130859375;5.43999998626532;545;1 A;
71.7133428189412;-1.0491943359375;-0.37237548828125;5.44999998624007;546;1 A;
71.723342818916;-1.04949951171875;-0.37164306640625;5.45999998621483;547;1 A;
71.7333428188907;-1.04949951171875;-0.373992919921875;5.46999998618958;548;1 A;
71.7433428188655;-1.0498046875;-0.37286376953125;5.47999998616433;549;1 A;
71.7533428188402;-1.04949951171875;-0.377105712890625;5.48999998613908;550;1 A;
71.763342818815;-1.0498046875;-0.370452880859375;5.49999998611383;551;1 A;
71.7733428187897;-1.0498046875;-0.37469482421875;5.50999998608859;552;1 A;
71.7833428187645;-1.04949951171875;-0.3756103515625;5.51999998606334;553;1 A;
71.7933428187392;-1.0498046875;-0.37603759765625;5.52999998603809;554;1 A;
71.803342818714;-1.04949951171875;-0.372528076171875;5.53999998601284;555;1 A;
71.8133428186887;-1.0491943359375;-0.374420166015625;5.5499999859876;556;1 A;
71.8233428186635;-1.04949951171875;-0.3753662109375;5.55999998596235;557;1 A;
71.8333428186382;-1.04949951171875;-0.37786865234375;5.5699999859371;558;1 A;
71.843342818613;-1.0498046875;-0.37255859375;5.57999998591185;559;1 A;
71.8533428185877;-1.04888916015625;-0.375885009765625;5.58999998588661;560;1 A;
71.8633428185625;-1.04949951171875;-0.376922607421875;5.59999998586136;561;1 A;
71.8733428185373;-1.04949951171875;-0.374755859375;5.60999998583611;562;1 A;
71.883342818512;-1.0491943359375;-0.376068115234375;5.61999998581086;563;1 A;
71.8933428184868;-1.05010986328125;-0.375885009765625;5.62999998578562;564;1 A;
71.9033428184615;-1.05010986328125;-0.375457763671875;5.63999998576037;565;1 A;
71.9133428184363;-1.0491943359375;-0.3795166015625;5.64999998573512;566;1 A;
71.923342818411;-1.0498046875;-0.373260498046875;5.65999998570987;567;1 A;
71.9333428183858;-1.04949951171875;-0.375244140625;5.66999998568463;568;1 A;
71.9433428183605;-1.04949951171875;-0.37786865234375;5.67999998565938;569;1 A;
71.9533428183353;-1.04888916015625;-0.375762939453125;5.68999998563413;570;1 A;
71.96334281831;-1.04949951171875;-0.375579833984375;5.69999998560888;571;1 A;
71.9733428182848;-1.04949951171875;-0.375518798828125;5.70999998558364;572;1 A;
71.9833428182595;-1.05010986328125;-0.37493896484375;5.71999998555839;573;1 A;
71.9933428182343;-1.05010986328125;-0.378631591796875;5.72999998553314;574;1 A;
72.003342818209;-1.0491943359375;-0.374298095703125;5.73999998550789;575;1 A;
72.0133428181838;-1.0498046875;-0.374237060546875;5.74999998548265;576;1 A;
72.0233428181585;-1.04949951171875;-0.37884521484375;5.7599999854574;577;1 A;
72.0333428181333;-1.0498046875;-0.374847412109375;5.76999998543215;578;1 A;
72.043342818108;-1.04949951171875;-0.374481201171875;5.7799999854069;579;1 A;
72.0533428180828;-1.04949951171875;-0.373748779296875;5.78999998538166;580;1 A;
72.0633428180575;-1.0491943359375;-0.3724365234375;5.79999998535641;581;1 A;
72.0733428180323;-1.0498046875;-0.3768310546875;5.80999998533116;582;1 A;
72.0833428180071;-1.0498046875;-0.370147705078125;5.81999998530591;583;1 A;
72.0933428179818;-1.0498046875;-0.372833251953125;5.82999998528066;584;1 A;
72.1033428179566;-1.04949951171875;-0.373565673828125;5.83999998525542;585;1 A;
72.1133428179313;-1.04949951171875;-0.371063232421875;5.84999998523017;586;1 A;
72.1233428179061;-1.04949951171875;-0.369720458984375;5.85999998520492;587;1 A;
72.1333428178808;-1.0498046875;-0.3724365234375;5.86999998517967;588;1 A;
72.1433428178556;-1.04949951171875;-0.370758056640625;5.87999998515443;589;1 A;
72.1533428178303;-1.0491943359375;-0.374176025390625;5.88999998512918;590;1 A;
72.1633428178051;-1.0491943359375;-0.36749267578125;5.89999998510393;591;1 A;
72.1733428177798;-1.04949951171875;-0.37158203125;5.90999998507868;592;1 A;
72.1833428177546;-1.0491943359375;-0.372467041015625;5.91999998505344;593;1 A;
72.1933428177293;-1.0498046875;-0.371124267578125;5.92999998502819;594;1 A;
72.2033428177041;-1.0498046875;-0.369293212890625;5.93999998500294;595;1 A;
72.2133428176788;-1.0491943359375;-0.37066650390625;5.94999998497769;596;1 A;
72.2233428176536;-1.04949951171875;-0.371551513671875;5.95999998495245;597;1 A;
72.2333428176283;-1.0498046875;-0.374847412109375;5.9699999849272;598;1 A;
72.2433428176031;-1.0498046875;-0.3697509765625;5.97999998490195;599;1 A;
72.2533428175778;-1.04949951171875;-0.372955322265625;5.9899999848767;600;1 A;
72.2633428175526;-1.0491943359375;-0.37420654296875;5.99999998485146;601;1 A;
72.2733428175274;-1.04949951171875;-0.373382568359375;6.00999998482621;602;1 A;
72.2833428175021;-1.04949951171875;-0.37530517578125;6.01999998480096;603;1 A;
72.2933428174769;-1.04949951171875;-0.374237060546875;6.02999998477571;604;1 A;
72.3033428174516;-1.0491943359375;-0.3734130859375;6.03999998475047;605;1 A;
72.3133428174264;-1.04949951171875;-0.380584716796875;6.04999998472522;606;1 A;
72.3233428174011;-1.04888916015625;-0.373443603515625;6.05999998469997;607;1 A;
72.3333428173759;-1.0498046875;-0.375762939453125;6.06999998467472;608;1 A;
72.3433428173506;-1.04949951171875;-0.376617431640625;6.07999998464948;609;1 A;
72.3533428173254;-1.04949951171875;-0.3770751953125;6.08999998462423;610;1 A;
72.3633428173001;-1.04949951171875;-0.373809814453125;6.09999998459898;611;1 A;
72.3733428172749;-1.0491943359375;-0.376495361328125;6.10999998457373;612;1 A;
72.3833428172496;-1.04949951171875;-0.375640869140625;6.11999998454849;613;1 A;
72.3933428172244;-1.0498046875;-0.3809814453125;6.12999998452324;614;1 A;
72.4033428171991;-1.05010986328125;-0.373870849609375;6.13999998449799;615;1 A;
72.4133428171739;-1.0504150390625;-0.376068115234375;6.14999998447274;616;1 A;
72.4233428171486;-1.0491943359375;-0.379638671875;6.1599999844475;617;1 A;
72.4333428171234;-1.0498046875;-0.3773193359375;6.16999998442225;618;1 A;
72.4433428170981;-1.04949951171875;-0.376495361328125;6.179999984397;619;1 A;
72.4533428170729;-1.04949951171875;-0.37677001953125;6.18999998437175;620;1 A;
72.4633428170476;-1.04949951171875;-0.376800537109375;6.1999999843465;621;1 A;
72.4733428170224;-1.04949951171875;-0.3797607421875;6.20999998432126;622;1 A;
72.4833428169972;-1.04949951171875;-0.373931884765625;6.21999998429601;623;1 A;
72.4933428169719;-1.0491943359375;-0.376190185546875;6.22999998427076;624;1 A;
72.5033428169467;-1.0491943359375;-0.37872314453125;6.23999998424551;625;1 A;
72.5133428169214;-1.04949951171875;-0.3729248046875;6.24999998422027;626;1 A;
72.5233428168962;-1.0491943359375;-0.37298583984375;6.25999998419502;627;1 A;
72.5333428168709;-1.0498046875;-0.374114990234375;6.26999998416977;628;1 A;
72.5433428168457;-1.04949951171875;-0.372894287109375;6.27999998414452;629;1 A;
72.5533428168204;-1.04949951171875;-0.376007080078125;6.28999998411928;630;1 A;
72.5633428167952;-1.05010986328125;-0.368408203125;6.29999998409403;631;1 A;
72.5733428167699;-1.04949951171875;-0.371612548828125;6.30999998406878;632;1 A;
72.5833428167447;-1.04949951171875;-0.373260498046875;6.31999998404353;633;1 A;
72.5933428167194;-1.04949951171875;-0.37066650390625;6.32999998401829;634;1 A;
72.6033428166942;-1.0491943359375;-0.36883544921875;6.33999998399304;635;1 A;
72.6133428166689;-1.0491943359375;-0.369293212890625;6.34999998396779;636;1 A;
72.6233428166437;-1.04949951171875;-0.36956787109375;6.35999998394254;637;1 A;
72.6333428166184;-1.04949951171875;-0.374114990234375;6.3699999839173;638;1 A;
72.6433428165932;-1.04949951171875;-0.366912841796875;6.37999998389205;639;1 A;
72.6533428165679;-1.04949951171875;-0.371337890625;6.3899999838668;640;1 A;
72.6633428165427;-1.05010986328125;-0.370513916015625;6.39999998384155;641;1 A;
72.6733428165174;-1.04949951171875;-0.371734619140625;6.40999998381631;642;1 A;
72.6833428164922;-1.0498046875;-0.370849609375;6.41999998379106;643;1 A;
72.693342816467;-1.0498046875;-0.371429443359375;6.42999998376581;644;1 A;
72.7033428164417;-1.04949951171875;-0.369659423828125;6.43999998374056;645;1 A;
72.7133428164165;-1.0491943359375;-0.37689208984375;6.44999998371532;646;1 A;
72.7233428163912;-1.05010986328125;-0.36785888671875;6.45999998369007;647;1 A;
72.733342816366;-1.04949951171875;-0.3717041015625;6.46999998366482;648;1 A;
72.7433428163407;-1.04949951171875;-0.371734619140625;6.47999998363957;649;1 A;
72.7533428163155;-1.04949951171875;-0.37115478515625;6.48999998361433;650;1 A;
72.7633428162902;-1.0498046875;-0.368621826171875;6.49999998358908;651;1 A;
72.773342816265;-1.04949951171875;-0.370635986328125;6.50999998356383;652;1 A;
72.7833428162397;-1.0498046875;-0.3697509765625;6.51999998353858;653;1 A;
72.7933428162145;-1.0491943359375;-0.372894287109375;6.52999998351333;654;1 A;
72.8033428161892;-1.0498046875;-0.36663818359375;6.53999998348809;655;1 A;
72.813342816164;-1.0498046875;-0.368408203125;6.54999998346284;656;1 A;
72.8233428161387;-1.04888916015625;-0.373809814453125;6.55999998343759;657;1 A;
72.8333428161135;-1.0491943359375;-0.368743896484375;6.56999998341234;658;1 A;
72.8433428160882;-1.0498046875;-0.368927001953125;6.5799999833871;659;1 A;
72.853342816063;-1.0498046875;-0.36749267578125;6.58999998336185;660;1 A;
72.8633428160377;-1.0491943359375;-0.36846923828125;6.5999999833366;661;1 A;
72.8733428160125;-1.0498046875;-0.370819091796875;6.60999998331135;662;1 A;
72.8833428159872;-1.04949951171875;-0.365264892578125;6.61999998328611;663;1 A;
72.893342815962;-1.04949951171875;-0.367767333984375;6.62999998326086;664;1 A;
72.9033428159368;-1.04949951171875;-0.369781494140625;6.63999998323561;665;1 A;
72.9133428159115;-1.04949951171875;-0.365692138671875;6.64999998321036;666;1 A;
72.9233428158863;-1.05010986328125;-0.36553955078125;6.65999998318512;667;1 A;
72.933342815861;-1.0498046875;-0.367156982421875;6.66999998315987;668;1 A;
72.9433428158358;-1.04949951171875;-0.36553955078125;6.67999998313462;669;1 A;
72.9533428158105;-1.04949951171875;-0.37109375;6.68999998310937;670;1 A;
72.9633428157853;-1.0498046875;-0.36212158203125;6.69999998308413;671;1 A;
72.97334281576;-1.0498046875;-0.36724853515625;6.70999998305888;672;1 A;
72.9833428157348;-1.05010986328125;-0.36810302734375;6.71999998303363;673;1 A;
72.9933428157095;-1.0498046875;-0.3680419921875;6.72999998300838;674;1 A;
73.0033428156843;-1.0498046875;-0.365142822265625;6.73999998298314;675;1 A;
73.013342815659;-1.04888916015625;-0.36700439453125;6.74999998295789;676;1 A;
73.0233428156338;-1.04949951171875;-0.36749267578125;6.75999998293264;677;1 A;
73.0333428156085;-1.04949951171875;-0.37274169921875;6.76999998290739;678;1 A;
73.0433428155833;-1.0498046875;-0.365631103515625;6.77999998288215;679;1 A;
73.053342815558;-1.04949951171875;-0.36944580078125;6.7899999828569;680;1 A;
73.0633428155328;-1.0498046875;-0.370819091796875;6.79999998283165;681;1 A;
73.0733428155075;-1.0498046875;-0.37005615234375;6.8099999828064;682;1 A;
73.0833428154823;-1.0498046875;-0.370574951171875;6.81999998278116;683;1 A;
73.093342815457;-1.04949951171875;-0.369354248046875;6.82999998275591;684;1 A;
73.1033428154318;-1.0498046875;-0.368194580078125;6.83999998273066;685;1 A;
73.1133428154066;-1.0491943359375;-0.374786376953125;6.84999998270541;686;1 A;
73.1233428153813;-1.0498046875;-0.366912841796875;6.85999998268016;687;1 A;
73.1333428153561;-1.0491943359375;-0.370391845703125;6.86999998265492;688;1 A;
73.1433428153308;-1.04949951171875;-0.37188720703125;6.87999998262967;689;1 A;
73.1533428153056;-1.04949951171875;-0.37030029296875;6.88999998260442;690;1 A;
73.1633428152803;-1.05010986328125;-0.369049072265625;6.89999998257917;691;1 A;
73.1733428152551;-1.04949951171875;-0.37115478515625;6.90999998255393;692;1 A;
73.1833428152298;-1.0498046875;-0.370574951171875;6.91999998252868;693;1 A;
73.1933428152046;-1.0491943359375;-0.3753662109375;6.92999998250343;694;1 A;
73.2033428151793;-1.0498046875;-0.367950439453125;6.93999998247818;695;1 A;
73.2133428151541;-1.0498046875;-0.37078857421875;6.94999998245294;696;1 A;
73.2233428151288;-1.04949951171875;-0.3756103515625;6.95999998242769;697;1 A;
73.2333428151036;-1.05010986328125;-0.373138427734375;6.96999998240244;698;1 A;
73.2433428150783;-1.0498046875;-0.370819091796875;6.97999998237719;699;1 A;
73.2533428150531;-1.04949951171875;-0.371368408203125;6.98999998235195;700;1 A;
73.2633428150278;-1.04949951171875;-0.37255859375;6.9999999823267;701;1 A;
73.2733428150026;-1.04949951171875;-0.37646484375;7.00999998230145;702;1 A;
73.2833428149773;-1.0491943359375;-0.368560791015625;7.0199999822762;703;1 A;
73.2933428149521;-1.04949951171875;-0.3736572265625;7.02999998225096;704;1 A;
73.3033428149269;-1.04888916015625;-0.37353515625;7.03999998222571;705;1 A;
73.3133428149016;-1.0491943359375;-0.371246337890625;7.04999998220046;706;1 A;
73.3233428148764;-1.04949951171875;-0.370208740234375;7.05999998217521;707;1 A;
73.3333428148511;-1.0498046875;-0.372802734375;7.06999998214997;708;1 A;
73.3433428148259;-1.0498046875;-0.371734619140625;7.07999998212472;709;1 A;
73.3533428148006;-1.0498046875;-0.377532958984375;7.08999998209947;710;1 A;
73.3633428147754;-1.0498046875;-0.36834716796875;7.09999998207422;711;1 A;
73.3733428147501;-1.0498046875;-0.373382568359375;7.10999998204898;712;1 A;
73.3833428147249;-1.04888916015625;-0.376678466796875;7.11999998202373;713;1 A;
73.3933428146996;-1.0491943359375;-0.373291015625;7.12999998199848;714;1 A;
73.4033428146744;-1.04949951171875;-0.373626708984375;7.13999998197323;715;1 A;
73.4133428146491;-1.04949951171875;-0.3731689453125;7.14999998194799;716;1 A;
73.4233428146239;-1.04949951171875;-0.37371826171875;7.15999998192274;717;1 A;
73.4333428145986;-1.0498046875;-0.37774658203125;7.16999998189749;718;1 A;
73.4433428145734;-1.0498046875;-0.3724365234375;7.17999998187224;719;1 A;
73.4533428145481;-1.0498046875;-0.373382568359375;7.189999981847;720;1 A;
73.4633428145229;-1.04949951171875;-0.3782958984375;7.19999998182175;721;1 A;
73.4733428144976;-1.04949951171875;-0.37469482421875;7.2099999817965;722;1 A;
73.4833428144724;-1.04949951171875;-0.375732421875;7.21999998177125;723;1 A;
73.4933428144471;-1.04949951171875;-0.374481201171875;7.229999981746;724;1 A;
73.5033428144219;-1.04949951171875;-0.3739013671875;7.23999998172076;725;1 A;
73.5133428143967;-1.0498046875;-0.38043212890625;7.24999998169551;726;1 A;
73.5233428143714;-1.0498046875;-0.37432861328125;7.25999998167026;727;1 A;
73.5333428143462;-1.0491943359375;-0.376708984375;7.26999998164501;728;1 A;
73.5433428143209;-1.04949951171875;-0.378570556640625;7.27999998161977;729;1 A;
73.5533428142957;-1.04949951171875;-0.377227783203125;7.28999998159452;730;1 A;
73.5633428142704;-1.05010986328125;-0.37420654296875;7.29999998156927;731;1 A;
73.5733428142452;-1.04888916015625;-0.37835693359375;7.30999998154402;732;1 A;
73.5833428142199;-1.0498046875;-0.376190185546875;7.31999998151878;733;1 A;
73.5933428141947;-1.04949951171875;-0.382781982421875;7.32999998149353;734;1 A;
73.6033428141694;-1.0491943359375;-0.37237548828125;7.33999998146828;735;1 A;
73.6133428141442;-1.0498046875;-0.377899169921875;7.34999998144303;736;1 A;
73.6233428141189;-1.0491943359375;-0.37933349609375;7.35999998141779;737;1 A;
73.6333428140937;-1.04949951171875;-0.378662109375;7.36999998139254;738;1 A;
73.6433428140684;-1.04949951171875;-0.374542236328125;7.37999998136729;739;1 A;
73.6533428140432;-1.0498046875;-0.37646484375;7.38999998134204;740;1 A;
73.6633428140179;-1.04949951171875;-0.3785400390625;7.3999999813168;741;1 A;
73.6733428139927;-1.0491943359375;-0.382904052734375;7.40999998129155;742;1 A;
73.6833428139674;-1.0498046875;-0.375823974609375;7.4199999812663;743;1 A;
73.6933428139422;-1.04949951171875;-0.38079833984375;7.42999998124105;744;1 A;
73.7033428139169;-1.04888916015625;-0.3814697265625;7.43999998121581;745;1 A;
73.7133428138917;-1.04949951171875;-0.379058837890625;7.44999998119056;746;1 A;
73.7233428138665;-1.04949951171875;-0.379486083984375;7.45999998116531;747;1 A;
73.7333428138412;-1.04949951171875;-0.380706787109375;7.46999998114006;748;1 A;
73.743342813816;-1.04949951171875;-0.380767822265625;7.47999998111482;749;1 A;
73.7533428137907;-1.04888916015625;-0.386932373046875;7.48999998108957;750;1 A;
73.7633428137655;-1.04949951171875;-0.378570556640625;7.49999998106432;751;1 A;
73.7733428137402;-1.05010986328125;-0.381805419921875;7.50999998103907;752;1 A;
73.783342813715;-1.04949951171875;-0.385589599609375;7.51999998101383;753;1 A;
73.7933428136897;-1.04949951171875;-0.381103515625;7.52999998098858;754;1 A;
73.8033428136645;-1.0498046875;-0.38018798828125;7.53999998096333;755;1 A;
73.8133428136392;-1.0491943359375;-0.378875732421875;7.54999998093808;756;1 A;
73.823342813614;-1.04949951171875;-0.378204345703125;7.55999998091283;757;1 A;
73.8333428135887;-1.0491943359375;-0.3836669921875;7.56999998088759;758;1 A;
73.8433428135635;-1.04949951171875;-0.376983642578125;7.57999998086234;759;1 A;
73.8533428135382;-1.05010986328125;-0.37774658203125;7.58999998083709;760;1 A;
73.863342813513;-1.04949951171875;-0.382415771484375;7.59999998081184;761;1 A;
73.8733428134877;-1.04949951171875;-0.380096435546875;7.6099999807866;762;1 A;
73.8833428134625;-1.04949951171875;-0.378875732421875;7.61999998076135;763;1 A;
73.8933428134372;-1.0498046875;-0.37957763671875;7.6299999807361;764;1 A;
73.903342813412;-1.04949951171875;-0.378936767578125;7.63999998071085;765;1 A;
73.9133428133867;-1.0498046875;-0.38629150390625;7.64999998068561;766;1 A;
73.9233428133615;-1.04949951171875;-0.37896728515625;7.65999998066036;767;1 A;
73.9333428133363;-1.04949951171875;-0.3828125;7.66999998063511;768;1 A;
73.943342813311;-1.04949951171875;-0.384765625;7.67999998060986;769;1 A;
73.9533428132858;-1.04949951171875;-0.380950927734375;7.68999998058462;770;1 A;
73.9633428132605;-1.04949951171875;-0.37921142578125;7.69999998055937;771;1 A;
73.9733428132353;-1.0491943359375;-0.38232421875;7.70999998053412;772;1 A;
73.98334281321;-1.0498046875;-0.381195068359375;7.71999998050887;773;1 A;
73.9933428131848;-1.0498046875;-0.386962890625;7.72999998048363;774;1 A;
74.0033428131595;-1.0498046875;-0.378143310546875;7.73999998045838;775;1 A;
74.0133428131343;-1.0491943359375;-0.383697509765625;7.74999998043313;776;1 A;
74.023342813109;-1.0491943359375;-0.386962890625;7.75999998040788;777;1 A;
74.0333428130838;-1.0498046875;-0.385040283203125;7.76999998038264;778;1 A;
74.0433428130585;-1.0491943359375;-0.3822021484375;7.77999998035739;779;1 A;
74.0533428130333;-1.04949951171875;-0.382781982421875;7.78999998033214;780;1 A;
74.063342813008;-1.04949951171875;-0.3848876953125;7.79999998030689;781;1 A;
74.0733428129828;-1.0491943359375;-0.389007568359375;7.80999998028165;782;1 A;
74.0833428129575;-1.0491943359375;-0.38037109375;7.8199999802564;783;1 A;
74.0933428129323;-1.04949951171875;-0.384857177734375;7.82999998023115;784;1 A;
74.103342812907;-1.0491943359375;-0.3829345703125;7.8399999802059;785;1 A;
74.1133428128818;-1.04949951171875;-0.381439208984375;7.84999998018066;786;1 A;
74.1233428128565;-1.0491943359375;-0.38153076171875;7.85999998015541;787;1 A;
74.1333428128313;-1.04949951171875;-0.38037109375;7.86999998013016;788;1 A;
74.1433428128061;-1.04949951171875;-0.3770751953125;7.87999998010491;789;1 A;
74.1533428127808;-1.0491943359375;-0.38580322265625;7.88999998007966;790;1 A;
74.1633428127556;-1.04949951171875;-0.374603271484375;7.89999998005442;791;1 A;
74.1733428127303;-1.0491943359375;-0.377227783203125;7.90999998002917;792;1 A;
74.1833428127051;-1.0491943359375;-0.37890625;7.91999998000392;793;1 A;
74.1933428126798;-1.05010986328125;-0.376220703125;7.92999997997867;794;1 A;
74.2033428126546;-1.0491943359375;-0.372772216796875;7.93999997995343;795;1 A;
74.2133428126293;-1.0498046875;-0.37237548828125;7.94999997992818;796;1 A;
74.2233428126041;-1.0498046875;-0.372528076171875;7.95999997990293;797;1 A;
74.2333428125788;-1.04949951171875;-0.378265380859375;7.96999997987768;798;1 A;
74.2433428125536;-1.05010986328125;-0.369964599609375;7.97999997985244;799;1 A;
74.2533428125283;-1.05010986328125;-0.37109375;7.98999997982719;800;1 A;
74.2633428125031;-1.04949951171875;-0.37603759765625;7.99999997980194;801;1 A;
74.2733428124778;-1.0498046875;-0.373291015625;8.00999997977669;802;1 A;
74.2833428124526;-1.0491943359375;-0.371063232421875;8.01999997975145;803;1 A;
74.2933428124273;-1.0498046875;-0.370574951171875;8.0299999797262;804;1 A;
74.3033428124021;-1.04949951171875;-0.370208740234375;8.03999997970095;805;1 A;
74.3133428123768;-1.0491943359375;-0.375823974609375;8.0499999796757;806;1 A;
74.3233428123516;-1.04949951171875;-0.36932373046875;8.05999997965046;807;1 A;
74.3333428123264;-1.04949951171875;-0.372772216796875;8.06999997962521;808;1 A;
74.3433428123011;-1.0491943359375;-0.37603759765625;8.07999997959996;809;1 A;
74.3533428122759;-1.05010986328125;-0.370574951171875;8.08999997957471;810;1 A;
74.3633428122506;-1.0491943359375;-0.370025634765625;8.09999997954947;811;1 A;
74.3733428122254;-1.0498046875;-0.37255859375;8.10999997952422;812;1 A;
74.3833428122001;-1.0491943359375;-0.371337890625;8.11999997949897;813;1 A;
74.3933428121749;-1.05010986328125;-0.37664794921875;8.12999997947372;814;1 A;
74.4033428121496;-1.0491943359375;-0.368255615234375;8.13999997944848;815;1 A;
74.4133428121244;-1.0491943359375;-0.373443603515625;8.14999997942323;816;1 A;
74.4233428120991;-1.05010986328125;-0.37689208984375;8.15999997939798;817;1 A;
74.4333428120739;-1.04949951171875;-0.374725341796875;8.16999997937273;818;1 A;
74.4433428120486;-1.04888916015625;-0.371429443359375;8.17999997934749;819;1 A;
74.4533428120234;-1.04949951171875;-0.372161865234375;8.18999997932224;820;1 A;
74.4633428119981;-1.0498046875;-0.37322998046875;8.19999997929699;821;1 A;
74.4733428119729;-1.0498046875;-0.37921142578125;8.20999997927174;822;1 A;
74.4833428119476;-1.04949951171875;-0.37030029296875;8.2199999792465;823;1 A;
74.4933428119224;-1.0491943359375;-0.375732421875;8.22999997922125;824;1 A;
74.5033428118971;-1.04949951171875;-0.374420166015625;8.239999979196;825;1 A;
74.5133428118719;-1.0498046875;-0.375091552734375;8.24999997917075;826;1 A;
74.5233428118466;-1.04949951171875;-0.375;8.2599999791455;827;1 A;
74.5333428118214;-1.04949951171875;-0.374664306640625;8.26999997912026;828;1 A;
74.5433428117962;-1.04888916015625;-0.373870849609375;8.27999997909501;829;1 A;
74.5533428117709;-1.04949951171875;-0.38299560546875;8.28999997906976;830;1 A;
74.5633428117457;-1.04949951171875;-0.373046875;8.29999997904451;831;1 A;
74.5733428117204;-1.05010986328125;-0.3775634765625;8.30999997901927;832;1 A;
74.5833428116952;-1.04949951171875;-0.381195068359375;8.31999997899402;833;1 A;
74.5933428116699;-1.04949951171875;-0.37945556640625;8.32999997896877;834;1 A;
74.6033428116447;-1.0498046875;-0.377044677734375;8.33999997894352;835;1 A;
74.6133428116194;-1.0491943359375;-0.379302978515625;8.34999997891828;836;1 A;
74.6233428115942;-1.0498046875;-0.379608154296875;8.35999997889303;837;1 A;
74.6333428115689;-1.04949951171875;-0.386566162109375;8.36999997886778;838;1 A;
74.6433428115437;-1.0498046875;-0.378936767578125;8.37999997884253;839;1 A;
74.6533428115184;-1.0491943359375;-0.381439208984375;8.38999997881729;840;1 A;
74.6633428114932;-1.04949951171875;-0.38824462890625;8.39999997879204;841;1 A;
74.6733428114679;-1.04949951171875;-0.38494873046875;8.40999997876679;842;1 A;
74.6833428114427;-1.048583984375;-0.385040283203125;8.41999997874154;843;1 A;
74.6933428114174;-1.0491943359375;-0.384490966796875;8.4299999787163;844;1 A;
74.7033428113922;-1.04949951171875;-0.38623046875;8.43999997869105;845;1 A;
74.7133428113669;-1.04949951171875;-0.39129638671875;8.4499999786658;846;1 A;
74.7233428113417;-1.04949951171875;-0.38714599609375;8.45999997864055;847;1 A;
74.7333428113164;-1.0498046875;-0.3895263671875;8.46999997861531;848;1 A;
74.7433428112912;-1.04949951171875;-0.39447021484375;8.47999997859006;849;1 A;
74.753342811266;-1.0498046875;-0.388885498046875;8.48999997856481;850;1 A;
74.7633428112407;-1.04949951171875;-0.38946533203125;8.49999997853956;851;1 A;
74.7733428112155;-1.04949951171875;-0.39166259765625;8.50999997851432;852;1 A;
74.7833428111902;-1.0498046875;-0.390716552734375;8.51999997848907;853;1 A;
74.793342811165;-1.04949951171875;-0.39892578125;8.52999997846382;854;1 A;
74.8033428111397;-1.0498046875;-0.38787841796875;8.53999997843857;855;1 A;
74.8133428111145;-1.04949951171875;-0.394439697265625;8.54999997841333;856;1 A;
74.8233428110892;-1.0498046875;-0.3955078125;8.55999997838808;857;1 A;
74.833342811064;-1.05010986328125;-0.39501953125;8.56999997836283;858;1 A;
74.8433428110387;-1.04949951171875;-0.39007568359375;8.57999997833758;859;1 A;
74.8533428110135;-1.04949951171875;-0.39178466796875;8.58999997831233;860;1 A;
74.8633428109882;-1.04949951171875;-0.39306640625;8.59999997828709;861;1 A;
74.873342810963;-1.0491943359375;-0.399078369140625;8.60999997826184;862;1 A;
74.8833428109377;-1.0498046875;-0.39007568359375;8.61999997823659;863;1 A;
74.8933428109125;-1.05010986328125;-0.393951416015625;8.62999997821134;864;1 A;
74.9033428108872;-1.0491943359375;-0.3934326171875;8.6399999781861;865;1 A;
74.913342810862;-1.0491943359375;-0.3935546875;8.64999997816085;866;1 A;
74.9233428108367;-1.05010986328125;-0.39227294921875;8.6599999781356;867;1 A;
74.9333428108115;-1.04888916015625;-0.3905029296875;8.66999997811035;868;1 A;
74.9433428107862;-1.0498046875;-0.388885498046875;8.67999997808511;869;1 A;
74.953342810761;-1.0498046875;-0.397857666015625;8.68999997805986;870;1 A;
74.9633428107358;-1.04949951171875;-0.3873291015625;8.69999997803461;871;1 A;
74.9733428107105;-1.04949951171875;-0.39080810546875;8.70999997800936;872;1 A;
74.9833428106853;-1.0498046875;-0.39306640625;8.71999997798412;873;1 A;
74.99334281066;-1.0491943359375;-0.38958740234375;8.72999997795887;874;1 A;
75.0033428106348;-1.04949951171875;-0.38677978515625;8.73999997793362;875;1 A;
75.0133428106095;-1.0498046875;-0.38824462890625;8.74999997790837;876;1 A;
75.0233428105843;-1.04949951171875;-0.388336181640625;8.75999997788313;877;1 A;
75.033342810559;-1.0491943359375;-0.394927978515625;8.76999997785788;878;1 A;
75.0433428105338;-1.0491943359375;-0.38470458984375;8.77999997783263;879;1 A;
75.0533428105085;-1.04949951171875;-0.38751220703125;8.78999997780738;880;1 A;
75.0633428104833;-1.0491943359375;-0.391326904296875;8.79999997778214;881;1 A;
75.073342810458;-1.0491943359375;-0.3902587890625;8.80999997775689;882;1 A;
75.0833428104328;-1.0498046875;-0.385101318359375;8.81999997773164;883;1 A;
75.0933428104075;-1.04949951171875;-0.384796142578125;8.82999997770639;884;1 A;
75.1033428103823;-1.05010986328125;-0.38580322265625;8.83999997768115;885;1 A;
75.113342810357;-1.0491943359375;-0.39129638671875;8.8499999776559;886;1 A;
75.1233428103318;-1.0491943359375;-0.381988525390625;8.85999997763065;887;1 A;
75.1333428103065;-1.05010986328125;-0.386444091796875;8.8699999776054;888;1 A;
75.1433428102813;-1.0498046875;-0.388092041015625;8.87999997758016;889;1 A;
75.153342810256;-1.04949951171875;-0.383148193359375;8.88999997755491;890;1 A;
75.1633428102308;-1.04949951171875;-0.38165283203125;8.89999997752966;891;1 A;
75.1733428102056;-1.0498046875;-0.383270263671875;8.90999997750441;892;1 A;
75.1833428101803;-1.0498046875;-0.381378173828125;8.91999997747916;893;1 A;
75.1933428101551;-1.0498046875;-0.38909912109375;8.92999997745392;894;1 A;
75.2033428101298;-1.0498046875;-0.377044677734375;8.93999997742867;895;1 A;
75.2133428101046;-1.04949951171875;-0.382568359375;8.94999997740342;896;1 A;
75.2233428100793;-1.04949951171875;-0.385040283203125;8.95999997737817;897;1 A;
75.2333428100541;-1.0491943359375;-0.381378173828125;8.96999997735293;898;1 A;
75.2433428100288;-1.0498046875;-0.37847900390625;8.97999997732768;899;1 A;
75.2533428100036;-1.0498046875;-0.37890625;8.98999997730243;900;1 A;
75.2633428099783;-1.0491943359375;-0.3812255859375;8.99999997727718;901;1 A;
75.2733428099531;-1.0491943359375;-0.386932373046875;9.00999997725194;902;1 A;
75.2833428099278;-1.04949951171875;-0.380615234375;9.01999997722669;903;1 A;
75.2933428099026;-1.0491943359375;-0.3831787109375;9.02999997720144;904;1 A;
75.3033428098773;-1.0498046875;-0.38726806640625;9.03999997717619;905;1 A;
75.3133428098521;-1.0498046875;-0.383697509765625;9.04999997715095;906;1 A;
75.3233428098268;-1.04949951171875;-0.38287353515625;9.0599999771257;907;1 A;
75.3333428098016;-1.04949951171875;-0.380950927734375;9.06999997710045;908;1 A;
75.3433428097763;-1.05010986328125;-0.378570556640625;9.0799999770752;909;1 A;
75.3533428097511;-1.04949951171875;-0.3887939453125;9.08999997704996;910;1 A;
75.3633428097259;-1.0498046875;-0.378082275390625;9.09999997702471;911;1 A;
75.3733428097006;-1.04949951171875;-0.382598876953125;9.10999997699946;912;1 A;
75.3833428096754;-1.0491943359375;-0.383636474609375;9.11999997697421;913;1 A;
75.3933428096501;-1.0498046875;-0.381866455078125;9.12999997694897;914;1 A;
75.4033428096249;-1.04949951171875;-0.377410888671875;9.13999997692372;915;1 A;
75.4133428095996;-1.04949951171875;-0.380340576171875;9.14999997689847;916;1 A;
75.4233428095744;-1.04949951171875;-0.379638671875;9.15999997687322;917;1 A;
75.4333428095491;-1.04949951171875;-0.387420654296875;9.16999997684798;918;1 A;
75.4433428095239;-1.0491943359375;-0.37646484375;9.17999997682273;919;1 A;
75.4533428094986;-1.0491943359375;-0.381011962890625;9.18999997679748;920;1 A;
75.4633428094734;-1.05010986328125;-0.3846435546875;9.19999997677223;921;1 A;
75.4733428094481;-1.04888916015625;-0.38287353515625;9.20999997674699;922;1 A;
75.4833428094229;-1.05010986328125;-0.3773193359375;9.21999997672174;923;1 A;
75.4933428093976;-1.0491943359375;-0.377777099609375;9.22999997669649;924;1 A;
75.5033428093724;-1.0498046875;-0.380889892578125;9.23999997667124;925;1 A;
75.5133428093471;-1.04949951171875;-0.38623046875;9.249999976646;926;1 A;
75.5233428093219;-1.04949951171875;-0.37823486328125;9.25999997662075;927;1 A;
75.5333428092966;-1.0491943359375;-0.382781982421875;9.2699999765955;928;1 A;
75.5433428092714;-1.0498046875;-0.385009765625;9.27999997657025;929;1 A;
75.5533428092461;-1.05010986328125;-0.379791259765625;9.289999976545;930;1 A;
75.5633428092209;-1.05010986328125;-0.380340576171875;9.29999997651976;931;1 A;
75.5733428091957;-1.0498046875;-0.381072998046875;9.30999997649451;932;1 A;
75.5833428091704;-1.0498046875;-0.379791259765625;9.31999997646926;933;1 A;
75.5933428091452;-1.04949951171875;-0.3895263671875;9.32999997644401;934;1 A;
75.6033428091199;-1.05010986328125;-0.377227783203125;9.33999997641877;935;1 A;
75.6133428090947;-1.04949951171875;-0.383514404296875;9.34999997639352;936;1 A;
75.6233428090694;-1.0491943359375;-0.386383056640625;9.35999997636827;937;1 A;
75.6333428090442;-1.04949951171875;-0.384674072265625;9.36999997634302;938;1 A;
75.6433428090189;-1.0491943359375;-0.382049560546875;9.37999997631778;939;1 A;
75.6533428089937;-1.0498046875;-0.38262939453125;9.38999997629253;940;1 A;
75.6633428089684;-1.0491943359375;-0.383697509765625;9.39999997626728;941;1 A;
75.6733428089432;-1.0498046875;-0.39263916015625;9.40999997624203;942;1 A;
75.6833428089179;-1.04949951171875;-0.38494873046875;9.41999997621679;943;1 A;
75.6933428088927;-1.0491943359375;-0.3885498046875;9.42999997619154;944;1 A;
75.7033428088674;-1.0491943359375;-0.39251708984375;9.43999997616629;945;1 A;
75.7133428088422;-1.0491943359375;-0.392059326171875;9.44999997614104;946;1 A;
75.7233428088169;-1.04949951171875;-0.388214111328125;9.4599999761158;947;1 A;
75.7333428087917;-1.0491943359375;-0.388458251953125;9.46999997609055;948;1 A;
75.7433428087664;-1.04949951171875;-0.386474609375;9.4799999760653;949;1 A;
75.7533428087412;-1.04949951171875;-0.397125244140625;9.48999997604005;950;1 A;
75.7633428087159;-1.0498046875;-0.386962890625;9.49999997601481;951;1 A;
75.7733428086907;-1.0498046875;-0.393157958984375;9.50999997598956;952;1 A;
75.7833428086655;-1.04949951171875;-0.395355224609375;9.51999997596431;953;1 A;
75.7933428086402;-1.0491943359375;-0.390838623046875;9.52999997593906;954;1 A;
75.803342808615;-1.0498046875;-0.387603759765625;9.53999997591382;955;1 A;
75.8133428085897;-1.04949951171875;-0.391387939453125;9.54999997588857;956;1 A;
75.8233428085645;-1.04949951171875;-0.390380859375;9.55999997586332;957;1 A;
75.8333428085392;-1.04949951171875;-0.397247314453125;9.56999997583807;958;1 A;
75.843342808514;-1.0498046875;-0.386810302734375;9.57999997581283;959;1 A;
75.8533428084887;-1.04949951171875;-0.39208984375;9.58999997578758;960;1 A;
75.8633428084635;-1.04949951171875;-0.395721435546875;9.59999997576233;961;1 A;
75.8733428084382;-1.0504150390625;-0.39349365234375;9.60999997573708;962;1 A;
75.883342808413;-1.0498046875;-0.388031005859375;9.61999997571183;963;1 A;
75.8933428083877;-1.0491943359375;-0.3883056640625;9.62999997568659;964;1 A;
75.9033428083625;-1.0491943359375;-0.391082763671875;9.63999997566134;965;1 A;
75.9133428083372;-1.0498046875;-0.396453857421875;9.64999997563609;966;1 A;
75.923342808312;-1.04949951171875;-0.388458251953125;9.65999997561084;967;1 A;
75.9333428082867;-1.0491943359375;-0.393585205078125;9.6699999755856;968;1 A;
75.9433428082615;-1.0491943359375;-0.394622802734375;9.67999997556035;969;1 A;
75.9533428082362;-1.04949951171875;-0.391326904296875;9.6899999755351;970;1 A;
75.963342808211;-1.0491943359375;-0.39215087890625;9.69999997550985;971;1 A;
75.9733428081857;-1.0491943359375;-0.390869140625;9.70999997548461;972;1 A;
75.9833428081605;-1.04949951171875;-0.388092041015625;9.71999997545936;973;1 A;
75.9933428081353;-1.04949951171875;-0.3994140625;9.72999997543411;974;1 A;
76.00334280811;-1.04949951171875;-0.384735107421875;9.73999997540886;975;1 A;
76.0133428080848;-1.04949951171875;-0.390869140625;9.74999997538362;976;1 A;
76.0233428080595;-1.04949951171875;-0.392242431640625;9.75999997535837;977;1 A;
76.0333428080343;-1.04949951171875;-0.391021728515625;9.76999997533312;978;1 A;
76.043342808009;-1.0498046875;-0.38623046875;9.77999997530787;979;1 A;
76.0533428079838;-1.04949951171875;-0.386138916015625;9.78999997528263;980;1 A;
76.0633428079585;-1.0498046875;-0.386871337890625;9.79999997525738;981;1 A;
76.0733428079333;-1.0498046875;-0.39483642578125;9.80999997523213;982;1 A;
76.083342807908;-1.0491943359375;-0.385650634765625;9.81999997520688;983;1 A;
76.0933428078828;-1.04949951171875;-0.388153076171875;9.82999997518164;984;1 A;
76.1033428078575;-1.04949951171875;-0.39263916015625;9.83999997515639;985;1 A;
76.1133428078323;-1.0498046875;-0.3914794921875;9.84999997513114;986;1 A;
76.123342807807;-1.05010986328125;-0.38726806640625;9.85999997510589;987;1 A;
76.1333428077818;-1.0498046875;-0.38641357421875;9.86999997508065;988;1 A;
76.1433428077565;-1.0498046875;-0.385498046875;9.8799999750554;989;1 A;
76.1533428077313;-1.04949951171875;-0.393890380859375;9.88999997503015;990;1 A;
76.163342807706;-1.0491943359375;-0.3851318359375;9.8999999750049;991;1 A;
76.1733428076808;-1.04949951171875;-0.390625;9.90999997497966;992;1 A;
76.1833428076555;-1.0491943359375;-0.394927978515625;9.91999997495441;993;1 A;
76.1933428076303;-1.05010986328125;-0.388916015625;9.92999997492916;994;1 A;
76.2033428076051;-1.04949951171875;-0.38720703125;9.93999997490391;995;1 A;
76.2133428075798;-1.04888916015625;-0.390472412109375;9.94999997487866;996;1 A;
76.2233428075546;-1.0498046875;-0.389556884765625;9.95999997485342;997;1 A;
76.2333428075293;-1.04949951171875;-0.39691162109375;9.96999997482817;998;1 A;
76.2433428075041;-1.04949951171875;-0.3868408203125;9.97999997480292;999;1 A;
76.2533428074788;-1.05010986328125;-0.393402099609375;9.98999997477767;1000;1 A;
