Time (s);WE(1).Potential (V);WE(1).Current (A);Corrected time (s);Index;Current range;Overload
97.3851027541263;-0.8953857421875;-2.342529296875;0;1;1 A;Current overload
97.395102754101;-0.96099853515625;-2.0843505859375;0.00999999997475243;2;1 A;Current overload
97.4051027540758;-1.10015869140625;-1.44378662109375;0.0199999999495049;3;1 A;
97.4151027540505;-1.10015869140625;-1.20391845703125;0.0299999999242573;4;1 A;
97.4251027540253;-1.10015869140625;-1.058349609375;0.0399999998990097;5;1 A;
97.435102754;-1.09954833984375;-0.95703125;0.0499999998737621;6;1 A;
97.4451027539748;-1.10015869140625;-0.88134765625;0.0599999998485146;7;1 A;
97.4551027539495;-1.09954833984375;-0.821533203125;0.069999999823267;8;1 A;
97.4651027539243;-1.099853515625;-0.77301025390625;0.0799999997980194;9;1 A;
97.475102753899;-1.09954833984375;-0.732421875;0.0899999997727718;10;1 A;
97.4851027538738;-1.09954833984375;-0.69854736328125;0.0999999997475243;11;1 A;
97.4951027538485;-1.09893798828125;-0.66925048828125;0.109999999722277;12;1 A;
97.5051027538233;-1.09954833984375;-0.643310546875;0.119999999697029;13;1 A;
97.515102753798;-1.0992431640625;-0.6207275390625;0.129999999671782;14;1 A;
97.5251027537728;-1.09954833984375;-0.60089111328125;0.139999999646534;15;1 A;
97.5351027537475;-1.09954833984375;-0.58319091796875;0.149999999621286;16;1 A;
97.5451027537223;-1.09954833984375;-0.56732177734375;0.159999999596039;17;1 A;
97.555102753697;-1.09954833984375;-0.55328369140625;0.169999999570791;18;1 A;
97.5651027536718;-1.099853515625;-0.540771484375;0.179999999545544;19;1 A;
97.5751027536465;-1.09954833984375;-0.52947998046875;0.189999999520296;20;1 A;
97.5851027536213;-1.0986328125;-0.51849365234375;0.199999999495049;21;1 A;
97.5951027535961;-1.09954833984375;-0.50872802734375;0.209999999469801;22;1 A;
97.6051027535708;-1.09954833984375;-0.4998779296875;0.219999999444553;23;1 A;
97.6151027535456;-1.09954833984375;-0.491424560546875;0.229999999419306;24;1 A;
97.6251027535203;-1.09954833984375;-0.4837646484375;0.239999999394058;25;1 A;
97.6351027534951;-1.0992431640625;-0.47674560546875;0.249999999368811;26;1 A;
97.6451027534698;-1.09954833984375;-0.4700927734375;0.259999999343563;27;1 A;
97.6551027534446;-1.0992431640625;-0.46405029296875;0.269999999318316;28;1 A;
97.6651027534193;-1.09954833984375;-0.45794677734375;0.279999999293068;29;1 A;
97.6751027533941;-1.09954833984375;-0.452545166015625;0.28999999926782;30;1 A;
97.6851027533688;-1.099853515625;-0.447723388671875;0.299999999242573;31;1 A;
97.6951027533436;-1.0992431640625;-0.443023681640625;0.309999999217325;32;1 A;
97.7051027533183;-1.0992431640625;-0.4388427734375;0.319999999192078;33;1 A;
97.7151027532931;-1.10015869140625;-0.43487548828125;0.32999999916683;34;1 A;
97.7251027532678;-1.099853515625;-0.43133544921875;0.339999999141583;35;1 A;
97.7351027532426;-1.0992431640625;-0.42816162109375;0.349999999116335;36;1 A;
97.7451027532173;-1.1004638671875;-0.4248046875;0.359999999091087;37;1 A;
97.7551027531921;-1.09954833984375;-0.42205810546875;0.36999999906584;38;1 A;
97.7651027531668;-1.09893798828125;-0.41937255859375;0.379999999040592;39;1 A;
97.7751027531416;-1.0992431640625;-0.416839599609375;0.389999999015345;40;1 A;
97.7851027531163;-1.099853515625;-0.414398193359375;0.399999998990097;41;1 A;
97.7951027530911;-1.0992431640625;-0.41217041015625;0.40999999896485;42;1 A;
97.8051027530659;-1.09954833984375;-0.409698486328125;0.419999998939602;43;1 A;
97.8151027530406;-1.0992431640625;-0.40771484375;0.429999998914354;44;1 A;
97.8251027530154;-1.10015869140625;-0.40478515625;0.439999998889107;45;1 A;
97.8351027529901;-1.0992431640625;-0.402587890625;0.449999998863859;46;1 A;
97.8451027529649;-1.0992431640625;-0.400390625;0.459999998838612;47;1 A;
97.8551027529396;-1.09954833984375;-0.39813232421875;0.469999998813364;48;1 A;
97.8651027529144;-1.0992431640625;-0.39593505859375;0.479999998788116;49;1 A;
97.8751027528891;-1.0992431640625;-0.394256591796875;0.489999998762869;50;1 A;
97.8851027528639;-1.09954833984375;-0.392547607421875;0.499999998737621;51;1 A;
97.8951027528386;-1.099853515625;-0.391326904296875;0.509999998712374;52;1 A;
97.9051027528134;-1.09954833984375;-0.389556884765625;0.519999998687126;53;1 A;
97.9151027527881;-1.099853515625;-0.38787841796875;0.529999998661879;54;1 A;
97.9251027527629;-1.0992431640625;-0.386444091796875;0.539999998636631;55;1 A;
97.9351027527376;-1.099853515625;-0.384674072265625;0.549999998611383;56;1 A;
97.9451027527124;-1.09893798828125;-0.3829345703125;0.559999998586136;57;1 A;
97.9551027526871;-1.09954833984375;-0.3812255859375;0.569999998560888;58;1 A;
97.9651027526619;-1.09954833984375;-0.379547119140625;0.579999998535641;59;1 A;
97.9751027526366;-1.09954833984375;-0.378082275390625;0.589999998510393;60;1 A;
97.9851027526114;-1.099853515625;-0.3763427734375;0.599999998485146;61;1 A;
97.9951027525861;-1.099853515625;-0.37506103515625;0.609999998459898;62;1 A;
98.0051027525609;-1.09954833984375;-0.374176025390625;0.61999999843465;63;1 A;
98.0151027525357;-1.099853515625;-0.37274169921875;0.629999998409403;64;1 A;
98.0251027525104;-1.09954833984375;-0.37200927734375;0.639999998384155;65;1 A;
98.0351027524852;-1.09954833984375;-0.3714599609375;0.649999998358908;66;1 A;
98.0451027524599;-1.099853515625;-0.370758056640625;0.65999999833366;67;1 A;
98.0551027524347;-1.09954833984375;-0.37060546875;0.669999998308413;68;1 A;
98.0651027524094;-1.09954833984375;-0.36968994140625;0.679999998283165;69;1 A;
98.0751027523842;-1.09954833984375;-0.3692626953125;0.689999998257917;70;1 A;
98.0851027523589;-1.0992431640625;-0.369140625;0.69999999823267;71;1 A;
98.0951027523337;-1.0992431640625;-0.368377685546875;0.709999998207422;72;1 A;
98.1051027523084;-1.0992431640625;-0.367706298828125;0.719999998182175;73;1 A;
98.1151027522832;-1.099853515625;-0.367095947265625;0.729999998156927;74;1 A;
98.1251027522579;-1.0992431640625;-0.3663330078125;0.73999999813168;75;1 A;
98.1351027522327;-1.09954833984375;-0.365966796875;0.749999998106432;76;1 A;
98.1451027522074;-1.09954833984375;-0.364715576171875;0.759999998081184;77;1 A;
98.1551027521822;-1.099853515625;-0.364044189453125;0.769999998055937;78;1 A;
98.1651027521569;-1.09954833984375;-0.363433837890625;0.779999998030689;79;1 A;
98.1751027521317;-1.09954833984375;-0.36273193359375;0.789999998005442;80;1 A;
98.1851027521064;-1.09954833984375;-0.362335205078125;0.799999997980194;81;1 A;
98.1951027520812;-1.0992431640625;-0.361907958984375;0.809999997954947;82;1 A;
98.205102752056;-1.09954833984375;-0.361175537109375;0.819999997929699;83;1 A;
98.2151027520307;-1.09954833984375;-0.361114501953125;0.829999997904451;84;1 A;
98.2251027520055;-1.10015869140625;-0.360198974609375;0.839999997879204;85;1 A;
98.2351027519802;-1.09954833984375;-0.360076904296875;0.849999997853956;86;1 A;
98.245102751955;-1.09954833984375;-0.36016845703125;0.859999997828709;87;1 A;
98.2551027519297;-1.0992431640625;-0.359619140625;0.869999997803461;88;1 A;
98.2651027519045;-1.0992431640625;-0.35943603515625;0.879999997778214;89;1 A;
98.2751027518792;-1.0992431640625;-0.359588623046875;0.889999997752966;90;1 A;
98.285102751854;-1.0992431640625;-0.359588623046875;0.899999997727718;91;1 A;
98.2951027518287;-1.0992431640625;-0.360198974609375;0.909999997702471;92;1 A;
98.3051027518035;-1.099853515625;-0.36029052734375;0.919999997677223;93;1 A;
98.3151027517782;-1.099853515625;-0.36102294921875;0.929999997651976;94;1 A;
98.325102751753;-1.09954833984375;-0.36248779296875;0.939999997626728;95;1 A;
98.3351027517277;-1.09954833984375;-0.363433837890625;0.949999997601481;96;1 A;
98.3451027517025;-1.0992431640625;-0.364593505859375;0.959999997576233;97;1 A;
98.3551027516772;-1.0992431640625;-0.365966796875;0.969999997550985;98;1 A;
98.365102751652;-1.09954833984375;-0.366943359375;0.979999997525738;99;1 A;
98.3751027516267;-1.09954833984375;-0.368072509765625;0.98999999750049;100;1 A;
98.3851027516015;-1.09954833984375;-0.368316650390625;0.999999997475243;101;1 A;
98.3951027515762;-1.0992431640625;-0.368804931640625;1.00999999745;102;1 A;
98.405102751551;-1.0992431640625;-0.369140625;1.01999999742475;103;1 A;
98.4151027515258;-1.09954833984375;-0.368865966796875;1.0299999973995;104;1 A;
98.4251027515005;-1.0992431640625;-0.368927001953125;1.03999999737425;105;1 A;
98.4351027514753;-1.0992431640625;-0.369110107421875;1.049999997349;106;1 A;
98.44510275145;-1.09954833984375;-0.368621826171875;1.05999999732376;107;1 A;
98.4551027514248;-1.099853515625;-0.36895751953125;1.06999999729851;108;1 A;
98.4651027513995;-1.09954833984375;-0.367828369140625;1.07999999727326;109;1 A;
98.4751027513743;-1.09954833984375;-0.367645263671875;1.08999999724801;110;1 A;
98.485102751349;-1.0992431640625;-0.367767333984375;1.09999999722277;111;1 A;
98.4951027513238;-1.09954833984375;-0.36688232421875;1.10999999719752;112;1 A;
98.5051027512985;-1.09954833984375;-0.36639404296875;1.11999999717227;113;1 A;
98.5151027512733;-1.10015869140625;-0.36590576171875;1.12999999714702;114;1 A;
98.525102751248;-1.09893798828125;-0.3656005859375;1.13999999712178;115;1 A;
98.5351027512228;-1.09954833984375;-0.366363525390625;1.14999999709653;116;1 A;
98.5451027511975;-1.09954833984375;-0.364898681640625;1.15999999707128;117;1 A;
98.5551027511723;-1.09954833984375;-0.3642578125;1.16999999704603;118;1 A;
98.565102751147;-1.09954833984375;-0.36456298828125;1.17999999702079;119;1 A;
98.5751027511218;-1.099853515625;-0.36383056640625;1.18999999699554;120;1 A;
98.5851027510965;-1.099853515625;-0.364105224609375;1.19999999697029;121;1 A;
98.5951027510713;-1.099853515625;-0.3641357421875;1.20999999694504;122;1 A;
98.605102751046;-1.09954833984375;-0.364044189453125;1.2199999969198;123;1 A;
98.6151027510208;-1.0992431640625;-0.364471435546875;1.22999999689455;124;1 A;
98.6251027509956;-1.0992431640625;-0.364227294921875;1.2399999968693;125;1 A;
98.6351027509703;-1.09954833984375;-0.364532470703125;1.24999999684405;126;1 A;
98.6451027509451;-1.09893798828125;-0.365509033203125;1.25999999681881;127;1 A;
98.6551027509198;-1.0992431640625;-0.36505126953125;1.26999999679356;128;1 A;
98.6651027508946;-1.0992431640625;-0.36541748046875;1.27999999676831;129;1 A;
98.6751027508693;-1.0992431640625;-0.366119384765625;1.28999999674306;130;1 A;
98.6851027508441;-1.09954833984375;-0.366119384765625;1.29999999671782;131;1 A;
98.6951027508188;-1.09954833984375;-0.366912841796875;1.30999999669257;132;1 A;
98.7051027507936;-1.09954833984375;-0.36651611328125;1.31999999666732;133;1 A;
98.7151027507683;-1.0992431640625;-0.367095947265625;1.32999999664207;134;1 A;
98.7251027507431;-1.09954833984375;-0.3677978515625;1.33999999661683;135;1 A;
98.7351027507178;-1.09954833984375;-0.36798095703125;1.34999999659158;136;1 A;
98.7451027506926;-1.09954833984375;-0.367767333984375;1.35999999656633;137;1 A;
98.7551027506673;-1.09954833984375;-0.368255615234375;1.36999999654108;138;1 A;
98.7651027506421;-1.09954833984375;-0.367950439453125;1.37999999651583;139;1 A;
98.7751027506168;-1.0992431640625;-0.368316650390625;1.38999999649059;140;1 A;
98.7851027505916;-1.09954833984375;-0.367645263671875;1.39999999646534;141;1 A;
98.7951027505663;-1.099853515625;-0.367706298828125;1.40999999644009;142;1 A;
98.8051027505411;-1.099853515625;-0.367828369140625;1.41999999641484;143;1 A;
98.8151027505158;-1.09954833984375;-0.36749267578125;1.4299999963896;144;1 A;
98.8251027504906;-1.09954833984375;-0.367767333984375;1.43999999636435;145;1 A;
98.8351027504654;-1.09954833984375;-0.3681640625;1.4499999963391;146;1 A;
98.8451027504401;-1.09954833984375;-0.36810302734375;1.45999999631385;147;1 A;
98.8551027504149;-1.099853515625;-0.36895751953125;1.46999999628861;148;1 A;
98.8651027503896;-1.09954833984375;-0.3682861328125;1.47999999626336;149;1 A;
98.8751027503644;-1.09954833984375;-0.368682861328125;1.48999999623811;150;1 A;
98.8851027503391;-1.10015869140625;-0.369873046875;1.49999999621286;151;1 A;
98.8951027503139;-1.0992431640625;-0.3692626953125;1.50999999618762;152;1 A;
98.9051027502886;-1.0992431640625;-0.369781494140625;1.51999999616237;153;1 A;
98.9151027502634;-1.0992431640625;-0.369964599609375;1.52999999613712;154;1 A;
98.9251027502381;-1.09954833984375;-0.370513916015625;1.53999999611187;155;1 A;
98.9351027502129;-1.0992431640625;-0.3709716796875;1.54999999608663;156;1 A;
98.9451027501876;-1.0992431640625;-0.371185302734375;1.55999999606138;157;1 A;
98.9551027501624;-1.09954833984375;-0.3712158203125;1.56999999603613;158;1 A;
98.9651027501371;-1.09954833984375;-0.372894287109375;1.57999999601088;159;1 A;
98.9751027501119;-1.09954833984375;-0.3724365234375;1.58999999598564;160;1 A;
98.9851027500866;-1.0992431640625;-0.37384033203125;1.59999999596039;161;1 A;
98.9951027500614;-1.09954833984375;-0.374664306640625;1.60999999593514;162;1 A;
99.0051027500361;-1.09954833984375;-0.375244140625;1.61999999590989;163;1 A;
99.0151027500109;-1.09954833984375;-0.376190185546875;1.62999999588465;164;1 A;
99.0251027499856;-1.09954833984375;-0.37628173828125;1.6399999958594;165;1 A;
99.0351027499604;-1.09954833984375;-0.37677001953125;1.64999999583415;166;1 A;
99.0451027499352;-1.09954833984375;-0.37762451171875;1.6599999958089;167;1 A;
99.0551027499099;-1.09893798828125;-0.376983642578125;1.66999999578366;168;1 A;
99.0651027498847;-1.0992431640625;-0.376983642578125;1.67999999575841;169;1 A;
99.0751027498594;-1.0992431640625;-0.37774658203125;1.68999999573316;170;1 A;
99.0851027498342;-1.099853515625;-0.377166748046875;1.69999999570791;171;1 A;
99.0951027498089;-1.09954833984375;-0.3779296875;1.70999999568267;172;1 A;
99.1051027497837;-1.09954833984375;-0.376800537109375;1.71999999565742;173;1 A;
99.1151027497584;-1.0992431640625;-0.377410888671875;1.72999999563217;174;1 A;
99.1251027497332;-1.09954833984375;-0.37774658203125;1.73999999560692;175;1 A;
99.1351027497079;-1.0992431640625;-0.377960205078125;1.74999999558167;176;1 A;
99.1451027496827;-1.09954833984375;-0.377685546875;1.75999999555643;177;1 A;
99.1551027496574;-1.0992431640625;-0.378509521484375;1.76999999553118;178;1 A;
99.1651027496322;-1.1004638671875;-0.378448486328125;1.77999999550593;179;1 A;
99.1751027496069;-1.09954833984375;-0.378753662109375;1.78999999548068;180;1 A;
99.1851027495817;-1.0992431640625;-0.37786865234375;1.79999999545544;181;1 A;
99.1951027495564;-1.0992431640625;-0.377288818359375;1.80999999543019;182;1 A;
99.2051027495312;-1.09954833984375;-0.37725830078125;1.81999999540494;183;1 A;
99.2151027495059;-1.09893798828125;-0.37615966796875;1.82999999537969;184;1 A;
99.2251027494807;-1.099853515625;-0.37640380859375;1.83999999535445;185;1 A;
99.2351027494555;-1.099853515625;-0.375946044921875;1.8499999953292;186;1 A;
99.2451027494302;-1.09893798828125;-0.37591552734375;1.85999999530395;187;1 A;
99.255102749405;-1.0992431640625;-0.37646484375;1.8699999952787;188;1 A;
99.2651027493797;-1.09954833984375;-0.375823974609375;1.87999999525346;189;1 A;
99.2751027493545;-1.09954833984375;-0.37567138671875;1.88999999522821;190;1 A;
99.2851027493292;-1.0992431640625;-0.377349853515625;1.89999999520296;191;1 A;
99.295102749304;-1.09954833984375;-0.376373291015625;1.90999999517771;192;1 A;
99.3051027492787;-1.09954833984375;-0.377227783203125;1.91999999515247;193;1 A;
99.3151027492535;-1.0992431640625;-0.377777099609375;1.92999999512722;194;1 A;
99.3251027492282;-1.099853515625;-0.378387451171875;1.93999999510197;195;1 A;
99.335102749203;-1.09954833984375;-0.378814697265625;1.94999999507672;196;1 A;
99.3451027491777;-1.0992431640625;-0.3785400390625;1.95999999505148;197;1 A;
99.3551027491525;-1.09954833984375;-0.378265380859375;1.96999999502623;198;1 A;
99.3651027491272;-1.09954833984375;-0.379730224609375;1.97999999500098;199;1 A;
99.375102749102;-1.099853515625;-0.3785400390625;1.98999999497573;200;1 A;
99.3851027490767;-1.099853515625;-0.379180908203125;1.99999999495049;201;1 A;
99.3951027490515;-1.0992431640625;-0.3795166015625;2.00999999492524;202;1 A;
99.4051027490262;-1.09954833984375;-0.37982177734375;2.01999999489999;203;1 A;
99.415102749001;-1.09893798828125;-0.38067626953125;2.02999999487474;204;1 A;
99.4251027489757;-1.09954833984375;-0.3807373046875;2.0399999948495;205;1 A;
99.4351027489505;-1.09954833984375;-0.381591796875;2.04999999482425;206;1 A;
99.4451027489253;-1.09954833984375;-0.38330078125;2.059999994799;207;1 A;
99.4551027489;-1.0992431640625;-0.38311767578125;2.06999999477375;208;1 A;
99.4651027488748;-1.09954833984375;-0.38372802734375;2.0799999947485;209;1 A;
99.4751027488495;-1.099853515625;-0.3851318359375;2.08999999472326;210;1 A;
99.4851027488243;-1.099853515625;-0.385162353515625;2.09999999469801;211;1 A;
99.495102748799;-1.099853515625;-0.385711669921875;2.10999999467276;212;1 A;
99.5051027487738;-1.09954833984375;-0.3839111328125;2.11999999464751;213;1 A;
99.5151027487485;-1.09954833984375;-0.383880615234375;2.12999999462227;214;1 A;
99.5251027487233;-1.0992431640625;-0.3837890625;2.13999999459702;215;1 A;
99.535102748698;-1.0992431640625;-0.382354736328125;2.14999999457177;216;1 A;
99.5451027486728;-1.09893798828125;-0.381256103515625;2.15999999454652;217;1 A;
99.5551027486475;-1.09893798828125;-0.3809814453125;2.16999999452128;218;1 A;
99.5651027486223;-1.0992431640625;-0.38067626953125;2.17999999449603;219;1 A;
99.575102748597;-1.099853515625;-0.380340576171875;2.18999999447078;220;1 A;
99.5851027485718;-1.099853515625;-0.380126953125;2.19999999444553;221;1 A;
99.5951027485465;-1.099853515625;-0.3795166015625;2.20999999442029;222;1 A;
99.6051027485213;-1.0992431640625;-0.380889892578125;2.21999999439504;223;1 A;
99.615102748496;-1.0992431640625;-0.3797607421875;2.22999999436979;224;1 A;
99.6251027484708;-1.099853515625;-0.3812255859375;2.23999999434454;225;1 A;
99.6351027484455;-1.09954833984375;-0.381103515625;2.2499999943193;226;1 A;
99.6451027484203;-1.099853515625;-0.381927490234375;2.25999999429405;227;1 A;
99.6551027483951;-1.09893798828125;-0.382904052734375;2.2699999942688;228;1 A;
99.6651027483698;-1.0992431640625;-0.3829345703125;2.27999999424355;229;1 A;
99.6751027483446;-1.0992431640625;-0.382965087890625;2.28999999421831;230;1 A;
99.6851027483193;-1.09954833984375;-0.38525390625;2.29999999419306;231;1 A;
99.6951027482941;-1.09954833984375;-0.38427734375;2.30999999416781;232;1 A;
99.7051027482688;-1.09954833984375;-0.384979248046875;2.31999999414256;233;1 A;
99.7151027482436;-1.099853515625;-0.386016845703125;2.32999999411732;234;1 A;
99.7251027482183;-1.09954833984375;-0.38641357421875;2.33999999409207;235;1 A;
99.7351027481931;-1.0992431640625;-0.387237548828125;2.34999999406682;236;1 A;
99.7451027481678;-1.09893798828125;-0.38665771484375;2.35999999404157;237;1 A;
99.7551027481426;-1.099853515625;-0.38714599609375;2.36999999401633;238;1 A;
99.7651027481173;-1.09954833984375;-0.388916015625;2.37999999399108;239;1 A;
99.7751027480921;-1.09954833984375;-0.388336181640625;2.38999999396583;240;1 A;
99.7851027480668;-1.09954833984375;-0.38873291015625;2.39999999394058;241;1 A;
99.7951027480416;-1.0992431640625;-0.3896484375;2.40999999391533;242;1 A;
99.8051027480163;-1.09954833984375;-0.390380859375;2.41999999389009;243;1 A;
99.8151027479911;-1.09954833984375;-0.390899658203125;2.42999999386484;244;1 A;
99.8251027479658;-1.0992431640625;-0.390594482421875;2.43999999383959;245;1 A;
99.8351027479406;-1.0992431640625;-0.390869140625;2.44999999381434;246;1 A;
99.8451027479153;-1.09954833984375;-0.391937255859375;2.4599999937891;247;1 A;
99.8551027478901;-1.0992431640625;-0.390472412109375;2.46999999376385;248;1 A;
99.8651027478649;-1.09954833984375;-0.390625;2.4799999937386;249;1 A;
99.8751027478396;-1.099853515625;-0.39093017578125;2.48999999371335;250;1 A;
99.8851027478144;-1.09954833984375;-0.390960693359375;2.49999999368811;251;1 A;
99.8951027477891;-1.0992431640625;-0.391265869140625;2.50999999366286;252;1 A;
99.9051027477639;-1.09954833984375;-0.389739990234375;2.51999999363761;253;1 A;
99.9151027477386;-1.09893798828125;-0.390167236328125;2.52999999361236;254;1 A;
99.9251027477134;-1.0992431640625;-0.391204833984375;2.53999999358712;255;1 A;
99.9351027476881;-1.099853515625;-0.390472412109375;2.54999999356187;256;1 A;
99.9451027476629;-1.10015869140625;-0.39080810546875;2.55999999353662;257;1 A;
99.9551027476376;-1.099853515625;-0.39154052734375;2.56999999351137;258;1 A;
99.9651027476124;-1.0992431640625;-0.392425537109375;2.57999999348613;259;1 A;
99.9751027475871;-1.09954833984375;-0.392913818359375;2.58999999346088;260;1 A;
99.9851027475619;-1.0986328125;-0.393157958984375;2.59999999343563;261;1 A;
99.9951027475366;-1.0992431640625;-0.392303466796875;2.60999999341038;262;1 A;
100.005102747511;-1.0992431640625;-0.39434814453125;2.61999999338514;263;1 A;
100.015102747486;-1.0992431640625;-0.3927001953125;2.62999999335989;264;1 A;
100.025102747461;-1.09954833984375;-0.394256591796875;2.63999999333464;265;1 A;
100.035102747436;-1.0992431640625;-0.3939208984375;2.64999999330939;266;1 A;
100.04510274741;-1.09954833984375;-0.39471435546875;2.65999999328415;267;1 A;
100.055102747385;-1.10015869140625;-0.395172119140625;2.6699999932589;268;1 A;
100.06510274736;-1.09954833984375;-0.394927978515625;2.67999999323365;269;1 A;
100.075102747335;-1.09954833984375;-0.394622802734375;2.6899999932084;270;1 A;
100.085102747309;-1.0992431640625;-0.3968505859375;2.69999999318316;271;1 A;
100.095102747284;-1.09954833984375;-0.395263671875;2.70999999315791;272;1 A;
100.105102747259;-1.09954833984375;-0.395904541015625;2.71999999313266;273;1 A;
100.115102747234;-1.09954833984375;-0.396575927734375;2.72999999310741;274;1 A;
100.125102747208;-1.0992431640625;-0.396759033203125;2.73999999308217;275;1 A;
100.135102747183;-1.099853515625;-0.396697998046875;2.74999999305692;276;1 A;
100.145102747158;-1.09954833984375;-0.395599365234375;2.75999999303167;277;1 A;
100.155102747133;-1.099853515625;-0.395843505859375;2.76999999300642;278;1 A;
100.165102747107;-1.0992431640625;-0.39715576171875;2.77999999298117;279;1 A;
100.175102747082;-1.0992431640625;-0.395660400390625;2.78999999295593;280;1 A;
100.185102747057;-1.0992431640625;-0.39569091796875;2.79999999293068;281;1 A;
100.195102747032;-1.09954833984375;-0.3958740234375;2.80999999290543;282;1 A;
100.205102747006;-1.09954833984375;-0.396575927734375;2.81999999288018;283;1 A;
100.215102746981;-1.099853515625;-0.3966064453125;2.82999999285494;284;1 A;
100.225102746956;-1.099853515625;-0.395843505859375;2.83999999282969;285;1 A;
100.235102746931;-1.099853515625;-0.396240234375;2.84999999280444;286;1 A;
100.245102746905;-1.09954833984375;-0.396942138671875;2.85999999277919;287;1 A;
100.25510274688;-1.099853515625;-0.396270751953125;2.86999999275395;288;1 A;
100.265102746855;-1.10015869140625;-0.396484375;2.8799999927287;289;1 A;
100.27510274683;-1.09954833984375;-0.396759033203125;2.88999999270345;290;1 A;
100.285102746804;-1.099853515625;-0.39691162109375;2.8999999926782;291;1 A;
100.295102746779;-1.09954833984375;-0.39715576171875;2.90999999265296;292;1 A;
100.305102746754;-1.0992431640625;-0.395050048828125;2.91999999262771;293;1 A;
100.315102746729;-1.09954833984375;-0.394622802734375;2.92999999260246;294;1 A;
100.325102746703;-1.09954833984375;-0.39520263671875;2.93999999257721;295;1 A;
100.335102746678;-1.09893798828125;-0.393524169921875;2.94999999255197;296;1 A;
100.345102746653;-1.0992431640625;-0.392730712890625;2.95999999252672;297;1 A;
100.355102746628;-1.09954833984375;-0.392303466796875;2.96999999250147;298;1 A;
100.365102746602;-1.09954833984375;-0.39208984375;2.97999999247622;299;1 A;
100.375102746577;-1.099853515625;-0.391448974609375;2.98999999245098;300;1 A;
100.385102746552;-1.09893798828125;-0.390594482421875;2.99999999242573;301;1 A;
100.395102746527;-1.09954833984375;-0.38861083984375;3.00999999240048;302;1 A;
100.405102746501;-1.09954833984375;-0.390838623046875;3.01999999237523;303;1 A;
100.415102746476;-1.09954833984375;-0.387786865234375;3.02999999234999;304;1 A;
100.425102746451;-1.09893798828125;-0.389190673828125;3.03999999232474;305;1 A;
100.435102746426;-1.09954833984375;-0.388427734375;3.04999999229949;306;1 A;
100.4451027464;-1.10015869140625;-0.38916015625;3.05999999227424;307;1 A;
100.455102746375;-1.0992431640625;-0.38885498046875;3.069999992249;308;1 A;
100.46510274635;-1.09954833984375;-0.3883056640625;3.07999999222375;309;1 A;
100.475102746325;-1.0992431640625;-0.387603759765625;3.0899999921985;310;1 A;
100.4851027463;-1.09954833984375;-0.3895263671875;3.09999999217325;311;1 A;
100.495102746274;-1.09954833984375;-0.387298583984375;3.109999992148;312;1 A;
100.505102746249;-1.09954833984375;-0.387603759765625;3.11999999212276;313;1 A;
100.515102746224;-1.09954833984375;-0.388519287109375;3.12999999209751;314;1 A;
100.525102746199;-1.09954833984375;-0.3883056640625;3.13999999207226;315;1 A;
100.535102746173;-1.0992431640625;-0.388336181640625;3.14999999204701;316;1 A;
100.545102746148;-1.0992431640625;-0.38623046875;3.15999999202177;317;1 A;
100.555102746123;-1.09954833984375;-0.38623046875;3.16999999199652;318;1 A;
100.565102746098;-1.09954833984375;-0.38690185546875;3.17999999197127;319;1 A;
100.575102746072;-1.09954833984375;-0.384857177734375;3.18999999194602;320;1 A;
100.585102746047;-1.09954833984375;-0.384124755859375;3.19999999192078;321;1 A;
100.595102746022;-1.09893798828125;-0.383758544921875;3.20999999189553;322;1 A;
100.605102745997;-1.0992431640625;-0.383880615234375;3.21999999187028;323;1 A;
100.615102745971;-1.0992431640625;-0.3836669921875;3.22999999184503;324;1 A;
100.625102745946;-1.0992431640625;-0.381927490234375;3.23999999181979;325;1 A;
100.635102745921;-1.09954833984375;-0.382080078125;3.24999999179454;326;1 A;
100.645102745896;-1.0992431640625;-0.382171630859375;3.25999999176929;327;1 A;
100.65510274587;-1.0992431640625;-0.381561279296875;3.26999999174404;328;1 A;
100.665102745845;-1.0992431640625;-0.38116455078125;3.2799999917188;329;1 A;
100.67510274582;-1.099853515625;-0.381622314453125;3.28999999169355;330;1 A;
100.685102745795;-1.099853515625;-0.381683349609375;3.2999999916683;331;1 A;
100.695102745769;-1.09954833984375;-0.382476806640625;3.30999999164305;332;1 A;
100.705102745744;-1.09954833984375;-0.3800048828125;3.31999999161781;333;1 A;
100.715102745719;-1.0992431640625;-0.37969970703125;3.32999999159256;334;1 A;
100.725102745694;-1.099853515625;-0.381256103515625;3.33999999156731;335;1 A;
100.735102745668;-1.10015869140625;-0.378814697265625;3.34999999154206;336;1 A;
100.745102745643;-1.0992431640625;-0.37884521484375;3.35999999151682;337;1 A;
100.755102745618;-1.09893798828125;-0.378448486328125;3.36999999149157;338;1 A;
100.765102745593;-1.09954833984375;-0.378997802734375;3.37999999146632;339;1 A;
100.775102745567;-1.099853515625;-0.37847900390625;3.38999999144107;340;1 A;
100.785102745542;-1.099853515625;-0.37786865234375;3.39999999141583;341;1 A;
100.795102745517;-1.0992431640625;-0.376068115234375;3.40999999139058;342;1 A;
100.805102745492;-1.0992431640625;-0.379150390625;3.41999999136533;343;1 A;
100.815102745466;-1.10015869140625;-0.374725341796875;3.42999999134008;344;1 A;
100.825102745441;-1.09893798828125;-0.376312255859375;3.43999999131483;345;1 A;
100.835102745416;-1.0992431640625;-0.375091552734375;3.44999999128959;346;1 A;
100.845102745391;-1.0992431640625;-0.376007080078125;3.45999999126434;347;1 A;
100.855102745365;-1.09954833984375;-0.37554931640625;3.46999999123909;348;1 A;
100.86510274534;-1.099853515625;-0.37554931640625;3.47999999121384;349;1 A;
100.875102745315;-1.099853515625;-0.374725341796875;3.4899999911886;350;1 A;
100.88510274529;-1.0992431640625;-0.37762451171875;3.49999999116335;351;1 A;
100.895102745264;-1.09954833984375;-0.375030517578125;3.5099999911381;352;1 A;
100.905102745239;-1.09954833984375;-0.376220703125;3.51999999111285;353;1 A;
100.915102745214;-1.0992431640625;-0.37750244140625;3.52999999108761;354;1 A;
100.925102745189;-1.09954833984375;-0.377899169921875;3.53999999106236;355;1 A;
100.935102745163;-1.09893798828125;-0.37921142578125;3.54999999103711;356;1 A;
100.945102745138;-1.09954833984375;-0.377105712890625;3.55999999101186;357;1 A;
100.955102745113;-1.0992431640625;-0.378692626953125;3.56999999098662;358;1 A;
100.965102745088;-1.0992431640625;-0.379791259765625;3.57999999096137;359;1 A;
100.975102745062;-1.09954833984375;-0.3790283203125;3.58999999093612;360;1 A;
100.985102745037;-1.0992431640625;-0.377960205078125;3.59999999091087;361;1 A;
100.995102745012;-1.099853515625;-0.3790283203125;3.60999999088563;362;1 A;
101.005102744987;-1.09954833984375;-0.380035400390625;3.61999999086038;363;1 A;
101.015102744961;-1.0992431640625;-0.380706787109375;3.62999999083513;364;1 A;
101.025102744936;-1.09954833984375;-0.3797607421875;3.63999999080988;365;1 A;
101.035102744911;-1.09954833984375;-0.380828857421875;3.64999999078464;366;1 A;
101.045102744886;-1.09954833984375;-0.38201904296875;3.65999999075939;367;1 A;
101.05510274486;-1.099853515625;-0.381866455078125;3.66999999073414;368;1 A;
101.065102744835;-1.09954833984375;-0.382659912109375;3.67999999070889;369;1 A;
101.07510274481;-1.09893798828125;-0.383087158203125;3.68999999068365;370;1 A;
101.085102744785;-1.099853515625;-0.38409423828125;3.6999999906584;371;1 A;
101.095102744759;-1.09954833984375;-0.3853759765625;3.70999999063315;372;1 A;
101.105102744734;-1.0992431640625;-0.384033203125;3.7199999906079;373;1 A;
101.115102744709;-1.09954833984375;-0.383697509765625;3.72999999058266;374;1 A;
101.125102744684;-1.099853515625;-0.386962890625;3.73999999055741;375;1 A;
101.135102744658;-1.099853515625;-0.38372802734375;3.74999999053216;376;1 A;
101.145102744633;-1.099853515625;-0.38482666015625;3.75999999050691;377;1 A;
101.155102744608;-1.09954833984375;-0.384735107421875;3.76999999048167;378;1 A;
101.165102744583;-1.0992431640625;-0.3861083984375;3.77999999045642;379;1 A;
101.175102744557;-1.0992431640625;-0.386474609375;3.78999999043117;380;1 A;
101.185102744532;-1.0992431640625;-0.386505126953125;3.79999999040592;381;1 A;
101.195102744507;-1.0992431640625;-0.385223388671875;3.80999999038067;382;1 A;
101.205102744482;-1.09954833984375;-0.389312744140625;3.81999999035543;383;1 A;
101.215102744456;-1.099853515625;-0.38592529296875;3.82999999033018;384;1 A;
101.225102744431;-1.09954833984375;-0.387939453125;3.83999999030493;385;1 A;
101.235102744406;-1.0992431640625;-0.38848876953125;3.84999999027968;386;1 A;
101.245102744381;-1.09954833984375;-0.38995361328125;3.85999999025444;387;1 A;
101.255102744355;-1.09954833984375;-0.3909912109375;3.86999999022919;388;1 A;
101.26510274433;-1.099853515625;-0.389923095703125;3.87999999020394;389;1 A;
101.275102744305;-1.0992431640625;-0.390350341796875;3.88999999017869;390;1 A;
101.28510274428;-1.0992431640625;-0.39215087890625;3.89999999015345;391;1 A;
101.295102744254;-1.0992431640625;-0.390289306640625;3.9099999901282;392;1 A;
101.305102744229;-1.09954833984375;-0.389739990234375;3.91999999010295;393;1 A;
101.315102744204;-1.099853515625;-0.39141845703125;3.9299999900777;394;1 A;
101.325102744179;-1.0992431640625;-0.390960693359375;3.93999999005246;395;1 A;
101.335102744153;-1.0992431640625;-0.392730712890625;3.94999999002721;396;1 A;
101.345102744128;-1.09954833984375;-0.38946533203125;3.95999999000196;397;1 A;
101.355102744103;-1.09954833984375;-0.391632080078125;3.96999998997671;398;1 A;
101.365102744078;-1.0992431640625;-0.39337158203125;3.97999998995147;399;1 A;
101.375102744052;-1.0992431640625;-0.391937255859375;3.98999998992622;400;1 A;
101.385102744027;-1.0992431640625;-0.391632080078125;3.99999998990097;401;1 A;
101.395102744002;-1.09954833984375;-0.39166259765625;4.00999998987572;402;1 A;
101.405102743977;-1.09954833984375;-0.392547607421875;4.01999998985048;403;1 A;
101.415102743951;-1.0992431640625;-0.3922119140625;4.02999998982523;404;1 A;
101.425102743926;-1.09893798828125;-0.39117431640625;4.03999998979998;405;1 A;
101.435102743901;-1.09954833984375;-0.389923095703125;4.04999998977473;406;1 A;
101.445102743876;-1.09954833984375;-0.3916015625;4.05999998974949;407;1 A;
101.45510274385;-1.09893798828125;-0.389190673828125;4.06999998972424;408;1 A;
101.465102743825;-1.0992431640625;-0.390899658203125;4.07999998969899;409;1 A;
101.4751027438;-1.10015869140625;-0.38922119140625;4.08999998967374;410;1 A;
101.485102743775;-1.09954833984375;-0.390167236328125;4.0999999896485;411;1 A;
101.495102743749;-1.09893798828125;-0.390899658203125;4.10999998962325;412;1 A;
101.505102743724;-1.09954833984375;-0.3892822265625;4.119999989598;413;1 A;
101.515102743699;-1.09954833984375;-0.388519287109375;4.12999998957275;414;1 A;
101.525102743674;-1.09954833984375;-0.39215087890625;4.1399999895475;415;1 A;
101.535102743649;-1.09893798828125;-0.38946533203125;4.14999998952226;416;1 A;
101.545102743623;-1.09954833984375;-0.3897705078125;4.15999998949701;417;1 A;
101.555102743598;-1.0992431640625;-0.390533447265625;4.16999998947176;418;1 A;
101.565102743573;-1.099853515625;-0.390838623046875;4.17999998944651;419;1 A;
101.575102743548;-1.0992431640625;-0.39178466796875;4.18999998942127;420;1 A;
101.585102743522;-1.0992431640625;-0.388946533203125;4.19999998939602;421;1 A;
101.595102743497;-1.099853515625;-0.38946533203125;4.20999998937077;422;1 A;
101.605102743472;-1.0992431640625;-0.391754150390625;4.21999998934552;423;1 A;
101.615102743447;-1.0992431640625;-0.3896484375;4.22999998932028;424;1 A;
101.625102743421;-1.099853515625;-0.38836669921875;4.23999998929503;425;1 A;
101.635102743396;-1.09954833984375;-0.389129638671875;4.24999998926978;426;1 A;
101.645102743371;-1.099853515625;-0.39007568359375;4.25999998924453;427;1 A;
101.655102743346;-1.09954833984375;-0.390716552734375;4.26999998921929;428;1 A;
101.66510274332;-1.099853515625;-0.389617919921875;4.27999998919404;429;1 A;
101.675102743295;-1.0992431640625;-0.390838623046875;4.28999998916879;430;1 A;
101.68510274327;-1.099853515625;-0.39288330078125;4.29999998914354;431;1 A;
101.695102743245;-1.099853515625;-0.3907470703125;4.3099999891183;432;1 A;
101.705102743219;-1.0992431640625;-0.390899658203125;4.31999998909305;433;1 A;
101.715102743194;-1.09893798828125;-0.3919677734375;4.3299999890678;434;1 A;
101.725102743169;-1.09954833984375;-0.39208984375;4.33999998904255;435;1 A;
101.735102743144;-1.09954833984375;-0.3935546875;4.34999998901731;436;1 A;
101.745102743118;-1.09954833984375;-0.39019775390625;4.35999998899206;437;1 A;
101.755102743093;-1.09954833984375;-0.391448974609375;4.36999998896681;438;1 A;
101.765102743068;-1.0992431640625;-0.39361572265625;4.37999998894156;439;1 A;
101.775102743043;-1.09954833984375;-0.389984130859375;4.38999998891632;440;1 A;
101.785102743017;-1.0992431640625;-0.390228271484375;4.39999998889107;441;1 A;
101.795102742992;-1.10015869140625;-0.389923095703125;4.40999998886582;442;1 A;
101.805102742967;-1.099853515625;-0.391265869140625;4.41999998884057;443;1 A;
101.815102742942;-1.09893798828125;-0.39154052734375;4.42999998881533;444;1 A;
101.825102742916;-1.099853515625;-0.3907470703125;4.43999998879008;445;1 A;
101.835102742891;-1.099853515625;-0.389739990234375;4.44999998876483;446;1 A;
101.845102742866;-1.09954833984375;-0.393096923828125;4.45999998873958;447;1 A;
101.855102742841;-1.09954833984375;-0.391387939453125;4.46999998871433;448;1 A;
101.865102742815;-1.099853515625;-0.393280029296875;4.47999998868909;449;1 A;
101.87510274279;-1.099853515625;-0.393280029296875;4.48999998866384;450;1 A;
101.885102742765;-1.099853515625;-0.39410400390625;4.49999998863859;451;1 A;
101.89510274274;-1.099853515625;-0.396270751953125;4.50999998861334;452;1 A;
101.905102742714;-1.0992431640625;-0.394866943359375;4.5199999885881;453;1 A;
101.915102742689;-1.09954833984375;-0.395416259765625;4.52999998856285;454;1 A;
101.925102742664;-1.09954833984375;-0.399139404296875;4.5399999885376;455;1 A;
101.935102742639;-1.09954833984375;-0.396820068359375;4.54999998851235;456;1 A;
101.945102742613;-1.09954833984375;-0.39715576171875;4.55999998848711;457;1 A;
101.955102742588;-1.09893798828125;-0.398895263671875;4.56999998846186;458;1 A;
101.965102742563;-1.0992431640625;-0.399078369140625;4.57999998843661;459;1 A;
101.975102742538;-1.099853515625;-0.400726318359375;4.58999998841136;460;1 A;
101.985102742512;-1.0992431640625;-0.397979736328125;4.59999998838612;461;1 A;
101.995102742487;-1.099853515625;-0.39996337890625;4.60999998836087;462;1 A;
102.005102742462;-1.0992431640625;-0.402679443359375;4.61999998833562;463;1 A;
102.015102742437;-1.09893798828125;-0.401031494140625;4.62999998831037;464;1 A;
102.025102742411;-1.099853515625;-0.400390625;4.63999998828513;465;1 A;
102.035102742386;-1.09954833984375;-0.401580810546875;4.64999998825988;466;1 A;
102.045102742361;-1.09893798828125;-0.40301513671875;4.65999998823463;467;1 A;
102.055102742336;-1.09954833984375;-0.4041748046875;4.66999998820938;468;1 A;
102.06510274231;-1.0992431640625;-0.402099609375;4.67999998818414;469;1 A;
102.075102742285;-1.0992431640625;-0.403533935546875;4.68999998815889;470;1 A;
102.08510274226;-1.099853515625;-0.404632568359375;4.69999998813364;471;1 A;
102.095102742235;-1.09954833984375;-0.402984619140625;4.70999998810839;472;1 A;
102.105102742209;-1.09893798828125;-0.402618408203125;4.71999998808315;473;1 A;
102.115102742184;-1.0992431640625;-0.40301513671875;4.7299999880579;474;1 A;
102.125102742159;-1.099853515625;-0.4027099609375;4.73999998803265;475;1 A;
102.135102742134;-1.0992431640625;-0.405426025390625;4.7499999880074;476;1 A;
102.145102742108;-1.09893798828125;-0.401214599609375;4.75999998798216;477;1 A;
102.155102742083;-1.0992431640625;-0.403045654296875;4.76999998795691;478;1 A;
102.165102742058;-1.099853515625;-0.40625;4.77999998793166;479;1 A;
102.175102742033;-1.09954833984375;-0.404052734375;4.78999998790641;480;1 A;
102.185102742007;-1.099853515625;-0.40411376953125;4.79999998788116;481;1 A;
102.195102741982;-1.099853515625;-0.40472412109375;4.80999998785592;482;1 A;
102.205102741957;-1.09954833984375;-0.406402587890625;4.81999998783067;483;1 A;
102.215102741932;-1.099853515625;-0.4073486328125;4.82999998780542;484;1 A;
102.225102741906;-1.09954833984375;-0.406219482421875;4.83999998778017;485;1 A;
102.235102741881;-1.099853515625;-0.405029296875;4.84999998775493;486;1 A;
102.245102741856;-1.0992431640625;-0.4095458984375;4.85999998772968;487;1 A;
102.255102741831;-1.09954833984375;-0.405303955078125;4.86999998770443;488;1 A;
102.265102741805;-1.09954833984375;-0.407379150390625;4.87999998767918;489;1 A;
102.27510274178;-1.0992431640625;-0.4063720703125;4.88999998765394;490;1 A;
102.285102741755;-1.09954833984375;-0.407012939453125;4.89999998762869;491;1 A;
102.29510274173;-1.09893798828125;-0.408203125;4.90999998760344;492;1 A;
102.305102741704;-1.0992431640625;-0.407012939453125;4.91999998757819;493;1 A;
102.315102741679;-1.099853515625;-0.406982421875;4.92999998755295;494;1 A;
102.325102741654;-1.09954833984375;-0.41162109375;4.9399999875277;495;1 A;
102.335102741629;-1.09954833984375;-0.40765380859375;4.94999998750245;496;1 A;
102.345102741603;-1.0992431640625;-0.4088134765625;4.9599999874772;497;1 A;
102.355102741578;-1.0992431640625;-0.410736083984375;4.96999998745196;498;1 A;
102.365102741553;-1.09954833984375;-0.4112548828125;4.97999998742671;499;1 A;
102.375102741528;-1.0992431640625;-0.4140625;4.98999998740146;500;1 A;
102.385102741502;-1.09954833984375;-0.41070556640625;4.99999998737621;501;1 A;
102.395102741477;-1.09954833984375;-0.4132080078125;5.00999998735097;502;1 A;
102.405102741452;-1.0992431640625;-0.415740966796875;5.01999998732572;503;1 A;
102.415102741427;-1.09954833984375;-0.41461181640625;5.02999998730047;504;1 A;
102.425102741401;-1.0992431640625;-0.412384033203125;5.03999998727522;505;1 A;
102.435102741376;-1.099853515625;-0.413421630859375;5.04999998724998;506;1 A;
102.445102741351;-1.09954833984375;-0.413360595703125;5.05999998722473;507;1 A;
102.455102741326;-1.0992431640625;-0.414886474609375;5.06999998719948;508;1 A;
102.4651027413;-1.09954833984375;-0.410736083984375;5.07999998717423;509;1 A;
102.475102741275;-1.0992431640625;-0.411865234375;5.08999998714899;510;1 A;
102.48510274125;-1.0992431640625;-0.41204833984375;5.09999998712374;511;1 A;
102.495102741225;-1.099853515625;-0.41143798828125;5.10999998709849;512;1 A;
102.505102741199;-1.099853515625;-0.41021728515625;5.11999998707324;513;1 A;
102.515102741174;-1.0992431640625;-0.41094970703125;5.129999987048;514;1 A;
102.525102741149;-1.0992431640625;-0.41058349609375;5.13999998702275;515;1 A;
102.535102741124;-1.09954833984375;-0.41357421875;5.1499999869975;516;1 A;
102.545102741099;-1.09954833984375;-0.407867431640625;5.15999998697225;517;1 A;
102.555102741073;-1.09954833984375;-0.408966064453125;5.169999986947;518;1 A;
102.565102741048;-1.099853515625;-0.412750244140625;5.17999998692176;519;1 A;
102.575102741023;-1.09954833984375;-0.408538818359375;5.18999998689651;520;1 A;
102.585102740998;-1.099853515625;-0.40911865234375;5.19999998687126;521;1 A;
102.595102740972;-1.09954833984375;-0.409149169921875;5.20999998684601;522;1 A;
102.605102740947;-1.09954833984375;-0.41021728515625;5.21999998682077;523;1 A;
102.615102740922;-1.099853515625;-0.410369873046875;5.22999998679552;524;1 A;
102.625102740897;-1.09954833984375;-0.408233642578125;5.23999998677027;525;1 A;
102.635102740871;-1.0992431640625;-0.406097412109375;5.24999998674502;526;1 A;
102.645102740846;-1.09954833984375;-0.410736083984375;5.25999998671978;527;1 A;
102.655102740821;-1.09954833984375;-0.40618896484375;5.26999998669453;528;1 A;
102.665102740796;-1.0992431640625;-0.407989501953125;5.27999998666928;529;1 A;
102.67510274077;-1.0992431640625;-0.407623291015625;5.28999998664403;530;1 A;
102.685102740745;-1.0992431640625;-0.407440185546875;5.29999998661879;531;1 A;
102.69510274072;-1.09954833984375;-0.40966796875;5.30999998659354;532;1 A;
102.705102740695;-1.09954833984375;-0.4072265625;5.31999998656829;533;1 A;
102.715102740669;-1.0992431640625;-0.40673828125;5.32999998654304;534;1 A;
102.725102740644;-1.1004638671875;-0.41021728515625;5.3399999865178;535;1 A;
102.735102740619;-1.099853515625;-0.406005859375;5.34999998649255;536;1 A;
102.745102740594;-1.09954833984375;-0.40576171875;5.3599999864673;537;1 A;
102.755102740568;-1.099853515625;-0.407958984375;5.36999998644205;538;1 A;
102.765102740543;-1.09954833984375;-0.40533447265625;5.37999998641681;539;1 A;
102.775102740518;-1.09954833984375;-0.40850830078125;5.38999998639156;540;1 A;
102.785102740493;-1.099853515625;-0.40167236328125;5.39999998636631;541;1 A;
102.795102740467;-1.09954833984375;-0.40447998046875;5.40999998634106;542;1 A;
102.805102740442;-1.09893798828125;-0.405487060546875;5.41999998631582;543;1 A;
102.815102740417;-1.099853515625;-0.404693603515625;5.42999998629057;544;1 A;
102.825102740392;-1.0992431640625;-0.401275634765625;5.43999998626532;545;1 A;
102.835102740366;-1.09954833984375;-0.402740478515625;5.44999998624007;546;1 A;
102.845102740341;-1.09954833984375;-0.40313720703125;5.45999998621483;547;1 A;
102.855102740316;-1.09954833984375;-0.405029296875;5.46999998618958;548;1 A;
102.865102740291;-1.09954833984375;-0.401275634765625;5.47999998616433;549;1 A;
102.875102740265;-1.09954833984375;-0.40203857421875;5.48999998613908;550;1 A;
102.88510274024;-1.09893798828125;-0.4036865234375;5.49999998611383;551;1 A;
102.895102740215;-1.099853515625;-0.402252197265625;5.50999998608859;552;1 A;
102.90510274019;-1.09954833984375;-0.403472900390625;5.51999998606334;553;1 A;
102.915102740164;-1.09954833984375;-0.40301513671875;5.52999998603809;554;1 A;
102.925102740139;-1.10015869140625;-0.402984619140625;5.53999998601284;555;1 A;
102.935102740114;-1.09954833984375;-0.405914306640625;5.5499999859876;556;1 A;
102.945102740089;-1.0992431640625;-0.40008544921875;5.55999998596235;557;1 A;
102.955102740063;-1.09954833984375;-0.400299072265625;5.5699999859371;558;1 A;
102.965102740038;-1.099853515625;-0.40447998046875;5.57999998591185;559;1 A;
102.975102740013;-1.0992431640625;-0.399627685546875;5.58999998588661;560;1 A;
102.985102739988;-1.09954833984375;-0.4002685546875;5.59999998586136;561;1 A;
102.995102739962;-1.0992431640625;-0.401123046875;5.60999998583611;562;1 A;
103.005102739937;-1.0986328125;-0.402496337890625;5.61999998581086;563;1 A;
103.015102739912;-1.0992431640625;-0.4049072265625;5.62999998578562;564;1 A;
103.025102739887;-1.0992431640625;-0.402435302734375;5.63999998576037;565;1 A;
103.035102739861;-1.0992431640625;-0.402313232421875;5.64999998573512;566;1 A;
103.045102739836;-1.09954833984375;-0.406768798828125;5.65999998570987;567;1 A;
103.055102739811;-1.09954833984375;-0.404022216796875;5.66999998568463;568;1 A;
103.065102739786;-1.09954833984375;-0.40472412109375;5.67999998565938;569;1 A;
103.07510273976;-1.09954833984375;-0.405364990234375;5.68999998563413;570;1 A;
103.085102739735;-1.09954833984375;-0.405548095703125;5.69999998560888;571;1 A;
103.09510273971;-1.09954833984375;-0.407989501953125;5.70999998558364;572;1 A;
103.105102739685;-1.09893798828125;-0.404571533203125;5.71999998555839;573;1 A;
103.115102739659;-1.099853515625;-0.404388427734375;5.72999998553314;574;1 A;
103.125102739634;-1.09954833984375;-0.40814208984375;5.73999998550789;575;1 A;
103.135102739609;-1.099853515625;-0.402252197265625;5.74999998548265;576;1 A;
103.145102739584;-1.09893798828125;-0.40179443359375;5.7599999854574;577;1 A;
103.155102739558;-1.0992431640625;-0.403961181640625;5.76999998543215;578;1 A;
103.165102739533;-1.0986328125;-0.4033203125;5.7799999854069;579;1 A;
103.175102739508;-1.099853515625;-0.40673828125;5.78999998538166;580;1 A;
103.185102739483;-1.09954833984375;-0.4005126953125;5.79999998535641;581;1 A;
103.195102739457;-1.09954833984375;-0.403472900390625;5.80999998533116;582;1 A;
103.205102739432;-1.09954833984375;-0.4061279296875;5.81999998530591;583;1 A;
103.215102739407;-1.09954833984375;-0.404388427734375;5.82999998528066;584;1 A;
103.225102739382;-1.099853515625;-0.402984619140625;5.83999998525542;585;1 A;
103.235102739356;-1.09954833984375;-0.40533447265625;5.84999998523017;586;1 A;
103.245102739331;-1.09954833984375;-0.406707763671875;5.85999998520492;587;1 A;
103.255102739306;-1.09954833984375;-0.40985107421875;5.86999998517967;588;1 A;
103.265102739281;-1.0992431640625;-0.40667724609375;5.87999998515443;589;1 A;
103.275102739255;-1.09954833984375;-0.40716552734375;5.88999998512918;590;1 A;
103.28510273923;-1.09954833984375;-0.408721923828125;5.89999998510393;591;1 A;
103.295102739205;-1.09893798828125;-0.407012939453125;5.90999998507868;592;1 A;
103.30510273918;-1.0992431640625;-0.408416748046875;5.91999998505344;593;1 A;
103.315102739154;-1.099853515625;-0.407440185546875;5.92999998502819;594;1 A;
103.325102739129;-1.09893798828125;-0.406341552734375;5.93999998500294;595;1 A;
103.335102739104;-1.0992431640625;-0.4111328125;5.94999998497769;596;1 A;
103.345102739079;-1.099853515625;-0.4049072265625;5.95999998495245;597;1 A;
103.355102739053;-1.0992431640625;-0.40667724609375;5.9699999849272;598;1 A;
103.365102739028;-1.099853515625;-0.410919189453125;5.97999998490195;599;1 A;
103.375102739003;-1.09954833984375;-0.407623291015625;5.9899999848767;600;1 A;
103.385102738978;-1.0992431640625;-0.40673828125;5.99999998485146;601;1 A;
103.395102738952;-1.09954833984375;-0.4093017578125;6.00999998482621;602;1 A;
103.405102738927;-1.09954833984375;-0.409881591796875;6.01999998480096;603;1 A;
103.415102738902;-1.0992431640625;-0.412811279296875;6.02999998477571;604;1 A;
103.425102738877;-1.0992431640625;-0.408111572265625;6.03999998475047;605;1 A;
103.435102738851;-1.09893798828125;-0.408966064453125;6.04999998472522;606;1 A;
103.445102738826;-1.0992431640625;-0.413238525390625;6.05999998469997;607;1 A;
103.455102738801;-1.0992431640625;-0.409393310546875;6.06999998467472;608;1 A;
103.465102738776;-1.099853515625;-0.408782958984375;6.07999998464948;609;1 A;
103.47510273875;-1.0986328125;-0.409027099609375;6.08999998462423;610;1 A;
103.485102738725;-1.09893798828125;-0.410125732421875;6.09999998459898;611;1 A;
103.4951027387;-1.10015869140625;-0.412445068359375;6.10999998457373;612;1 A;
103.505102738675;-1.0992431640625;-0.4095458984375;6.11999998454849;613;1 A;
103.515102738649;-1.099853515625;-0.40985107421875;6.12999998452324;614;1 A;
103.525102738624;-1.09954833984375;-0.414581298828125;6.13999998449799;615;1 A;
103.535102738599;-1.09954833984375;-0.409149169921875;6.14999998447274;616;1 A;
103.545102738574;-1.0992431640625;-0.409332275390625;6.1599999844475;617;1 A;
103.555102738548;-1.0992431640625;-0.412109375;6.16999998442225;618;1 A;
103.565102738523;-1.09954833984375;-0.41119384765625;6.179999984397;619;1 A;
103.575102738498;-1.09954833984375;-0.415924072265625;6.18999998437175;620;1 A;
103.585102738473;-1.0992431640625;-0.40887451171875;6.1999999843465;621;1 A;
103.595102738448;-1.09954833984375;-0.413055419921875;6.20999998432126;622;1 A;
103.605102738422;-1.0992431640625;-0.416595458984375;6.21999998429601;623;1 A;
103.615102738397;-1.0992431640625;-0.414306640625;6.22999998427076;624;1 A;
103.625102738372;-1.09954833984375;-0.412200927734375;6.23999998424551;625;1 A;
103.635102738347;-1.09893798828125;-0.413177490234375;6.24999998422027;626;1 A;
103.645102738321;-1.09954833984375;-0.413360595703125;6.25999998419502;627;1 A;
103.655102738296;-1.09954833984375;-0.41680908203125;6.26999998416977;628;1 A;
103.665102738271;-1.09954833984375;-0.41339111328125;6.27999998414452;629;1 A;
103.675102738246;-1.09954833984375;-0.413177490234375;6.28999998411928;630;1 A;
103.68510273822;-1.0992431640625;-0.416046142578125;6.29999998409403;631;1 A;
103.695102738195;-1.09954833984375;-0.413238525390625;6.30999998406878;632;1 A;
103.70510273817;-1.09954833984375;-0.415130615234375;6.31999998404353;633;1 A;
103.715102738145;-1.09954833984375;-0.414642333984375;6.32999998401829;634;1 A;
103.725102738119;-1.0992431640625;-0.41326904296875;6.33999998399304;635;1 A;
103.735102738094;-1.0986328125;-0.41925048828125;6.34999998396779;636;1 A;
103.745102738069;-1.09954833984375;-0.4124755859375;6.35999998394254;637;1 A;
103.755102738044;-1.09893798828125;-0.41546630859375;6.3699999839173;638;1 A;
103.765102738018;-1.099853515625;-0.420379638671875;6.37999998389205;639;1 A;
103.775102737993;-1.0992431640625;-0.41668701171875;6.3899999838668;640;1 A;
103.785102737968;-1.0992431640625;-0.415313720703125;6.39999998384155;641;1 A;
103.795102737943;-1.0992431640625;-0.417877197265625;6.40999998381631;642;1 A;
103.805102737917;-1.09954833984375;-0.41778564453125;6.41999998379106;643;1 A;
103.815102737892;-1.09954833984375;-0.422210693359375;6.42999998376581;644;1 A;
103.825102737867;-1.0992431640625;-0.417236328125;6.43999998374056;645;1 A;
103.835102737842;-1.09893798828125;-0.42034912109375;6.44999998371532;646;1 A;
103.845102737816;-1.09954833984375;-0.424530029296875;6.45999998369007;647;1 A;
103.855102737791;-1.09954833984375;-0.422637939453125;6.46999998366482;648;1 A;
103.865102737766;-1.099853515625;-0.421417236328125;6.47999998363957;649;1 A;
103.875102737741;-1.099853515625;-0.422821044921875;6.48999998361433;650;1 A;
103.885102737715;-1.09954833984375;-0.42340087890625;6.49999998358908;651;1 A;
103.89510273769;-1.09954833984375;-0.427520751953125;6.50999998356383;652;1 A;
103.905102737665;-1.0992431640625;-0.423797607421875;6.51999998353858;653;1 A;
103.91510273764;-1.09954833984375;-0.424835205078125;6.52999998351333;654;1 A;
103.925102737614;-1.10015869140625;-0.4285888671875;6.53999998348809;655;1 A;
103.935102737589;-1.099853515625;-0.423828125;6.54999998346284;656;1 A;
103.945102737564;-1.0992431640625;-0.42279052734375;6.55999998343759;657;1 A;
103.955102737539;-1.09954833984375;-0.424530029296875;6.56999998341234;658;1 A;
103.965102737513;-1.09954833984375;-0.422119140625;6.5799999833871;659;1 A;
103.975102737488;-1.09954833984375;-0.428070068359375;6.58999998336185;660;1 A;
103.985102737463;-1.09893798828125;-0.418853759765625;6.5999999833366;661;1 A;
103.995102737438;-1.0992431640625;-0.42266845703125;6.60999998331135;662;1 A;
104.005102737412;-1.099853515625;-0.426239013671875;6.61999998328611;663;1 A;
104.015102737387;-1.09893798828125;-0.424713134765625;6.62999998326086;664;1 A;
104.025102737362;-1.0992431640625;-0.421905517578125;6.63999998323561;665;1 A;
104.035102737337;-1.0986328125;-0.42340087890625;6.64999998321036;666;1 A;
104.045102737311;-1.09954833984375;-0.423431396484375;6.65999998318512;667;1 A;
104.055102737286;-1.099853515625;-0.427520751953125;6.66999998315987;668;1 A;
104.065102737261;-1.099853515625;-0.422698974609375;6.67999998313462;669;1 A;
104.075102737236;-1.09954833984375;-0.42205810546875;6.68999998310937;670;1 A;
104.08510273721;-1.09954833984375;-0.425201416015625;6.69999998308413;671;1 A;
104.095102737185;-1.0992431640625;-0.421142578125;6.70999998305888;672;1 A;
104.10510273716;-1.09954833984375;-0.42266845703125;6.71999998303363;673;1 A;
104.115102737135;-1.0992431640625;-0.422210693359375;6.72999998300838;674;1 A;
104.125102737109;-1.09954833984375;-0.419952392578125;6.73999998298314;675;1 A;
104.135102737084;-1.09893798828125;-0.425323486328125;6.74999998295789;676;1 A;
104.145102737059;-1.09954833984375;-0.419097900390625;6.75999998293264;677;1 A;
104.155102737034;-1.099853515625;-0.422088623046875;6.76999998290739;678;1 A;
104.165102737008;-1.099853515625;-0.427520751953125;6.77999998288215;679;1 A;
104.175102736983;-1.09954833984375;-0.423095703125;6.7899999828569;680;1 A;
104.185102736958;-1.0992431640625;-0.42291259765625;6.79999998283165;681;1 A;
104.195102736933;-1.099853515625;-0.426849365234375;6.8099999828064;682;1 A;
104.205102736907;-1.099853515625;-0.42596435546875;6.81999998278116;683;1 A;
104.215102736882;-1.0992431640625;-0.431396484375;6.82999998275591;684;1 A;
104.225102736857;-1.0992431640625;-0.424957275390625;6.83999998273066;685;1 A;
104.235102736832;-1.0992431640625;-0.427886962890625;6.84999998270541;686;1 A;
104.245102736806;-1.09893798828125;-0.43121337890625;6.85999998268016;687;1 A;
104.255102736781;-1.09954833984375;-0.4296875;6.86999998265492;688;1 A;
104.265102736756;-1.0992431640625;-0.4261474609375;6.87999998262967;689;1 A;
104.275102736731;-1.0992431640625;-0.428558349609375;6.88999998260442;690;1 A;
104.285102736705;-1.09954833984375;-0.427734375;6.89999998257917;691;1 A;
104.29510273668;-1.09954833984375;-0.433837890625;6.90999998255393;692;1 A;
104.305102736655;-1.0992431640625;-0.427764892578125;6.91999998252868;693;1 A;
104.31510273663;-1.099853515625;-0.430572509765625;6.92999998250343;694;1 A;
104.325102736604;-1.0992431640625;-0.4346923828125;6.93999998247818;695;1 A;
104.335102736579;-1.09954833984375;-0.432861328125;6.94999998245294;696;1 A;
104.345102736554;-1.0992431640625;-0.433502197265625;6.95999998242769;697;1 A;
104.355102736529;-1.09954833984375;-0.436614990234375;6.96999998240244;698;1 A;
104.365102736503;-1.0992431640625;-0.4354248046875;6.97999998237719;699;1 A;
104.375102736478;-1.0992431640625;-0.44305419921875;6.98999998235195;700;1 A;
104.385102736453;-1.0992431640625;-0.433502197265625;6.9999999823267;701;1 A;
104.395102736428;-1.09954833984375;-0.437408447265625;7.00999998230145;702;1 A;
104.405102736402;-1.09893798828125;-0.4429931640625;7.0199999822762;703;1 A;
104.415102736377;-1.09954833984375;-0.43902587890625;7.02999998225096;704;1 A;
104.425102736352;-1.099853515625;-0.437347412109375;7.03999998222571;705;1 A;
104.435102736327;-1.09954833984375;-0.439605712890625;7.04999998220046;706;1 A;
104.445102736301;-1.099853515625;-0.4400634765625;7.05999998217521;707;1 A;
104.455102736276;-1.09893798828125;-0.4439697265625;7.06999998214997;708;1 A;
104.465102736251;-1.0992431640625;-0.43890380859375;7.07999998212472;709;1 A;
104.475102736226;-1.09954833984375;-0.43841552734375;7.08999998209947;710;1 A;
104.4851027362;-1.0992431640625;-0.443878173828125;7.09999998207422;711;1 A;
104.495102736175;-1.09954833984375;-0.43927001953125;7.10999998204898;712;1 A;
104.50510273615;-1.0992431640625;-0.442352294921875;7.11999998202373;713;1 A;
104.515102736125;-1.099853515625;-0.44342041015625;7.12999998199848;714;1 A;
104.525102736099;-1.099853515625;-0.441497802734375;7.13999998197323;715;1 A;
104.535102736074;-1.09954833984375;-0.44818115234375;7.14999998194799;716;1 A;
104.545102736049;-1.0992431640625;-0.441192626953125;7.15999998192274;717;1 A;
104.555102736024;-1.0992431640625;-0.44366455078125;7.16999998189749;718;1 A;
104.565102735998;-1.09954833984375;-0.448577880859375;7.17999998187224;719;1 A;
104.575102735973;-1.0992431640625;-0.444244384765625;7.189999981847;720;1 A;
104.585102735948;-1.0992431640625;-0.4422607421875;7.19999998182175;721;1 A;
104.595102735923;-1.0992431640625;-0.4473876953125;7.2099999817965;722;1 A;
104.605102735898;-1.0992431640625;-0.4449462890625;7.21999998177125;723;1 A;
104.615102735872;-1.099853515625;-0.451385498046875;7.229999981746;724;1 A;
104.625102735847;-1.09954833984375;-0.444122314453125;7.23999998172076;725;1 A;
104.635102735822;-1.09954833984375;-0.4478759765625;7.24999998169551;726;1 A;
104.645102735797;-1.099853515625;-0.452545166015625;7.25999998167026;727;1 A;
104.655102735771;-1.099853515625;-0.45220947265625;7.26999998164501;728;1 A;
104.665102735746;-1.099853515625;-0.448822021484375;7.27999998161977;729;1 A;
104.675102735721;-1.0992431640625;-0.451873779296875;7.28999998159452;730;1 A;
104.685102735696;-1.09954833984375;-0.45166015625;7.29999998156927;731;1 A;
104.69510273567;-1.0992431640625;-0.456695556640625;7.30999998154402;732;1 A;
104.705102735645;-1.09954833984375;-0.45037841796875;7.31999998151878;733;1 A;
104.71510273562;-1.09954833984375;-0.451873779296875;7.32999998149353;734;1 A;
104.725102735595;-1.0992431640625;-0.455413818359375;7.33999998146828;735;1 A;
104.735102735569;-1.0992431640625;-0.45220947265625;7.34999998144303;736;1 A;
104.745102735544;-1.09954833984375;-0.452484130859375;7.35999998141779;737;1 A;
104.755102735519;-1.0992431640625;-0.454010009765625;7.36999998139254;738;1 A;
104.765102735494;-1.09954833984375;-0.451141357421875;7.37999998136729;739;1 A;
104.775102735468;-1.099853515625;-0.45855712890625;7.38999998134204;740;1 A;
104.785102735443;-1.099853515625;-0.44732666015625;7.3999999813168;741;1 A;
104.795102735418;-1.09954833984375;-0.450469970703125;7.40999998129155;742;1 A;
104.805102735393;-1.09954833984375;-0.45556640625;7.4199999812663;743;1 A;
104.815102735367;-1.09954833984375;-0.452911376953125;7.42999998124105;744;1 A;
104.825102735342;-1.099853515625;-0.450836181640625;7.43999998121581;745;1 A;
104.835102735317;-1.0992431640625;-0.453399658203125;7.44999998119056;746;1 A;
104.845102735292;-1.0992431640625;-0.452362060546875;7.45999998116531;747;1 A;
104.855102735266;-1.09954833984375;-0.457733154296875;7.46999998114006;748;1 A;
104.865102735241;-1.0992431640625;-0.449188232421875;7.47999998111482;749;1 A;
104.875102735216;-1.0992431640625;-0.449737548828125;7.48999998108957;750;1 A;
104.885102735191;-1.0992431640625;-0.453369140625;7.49999998106432;751;1 A;
104.895102735165;-1.09954833984375;-0.450225830078125;7.50999998103907;752;1 A;
104.90510273514;-1.09893798828125;-0.44964599609375;7.51999998101383;753;1 A;
104.915102735115;-1.09893798828125;-0.451995849609375;7.52999998098858;754;1 A;
104.92510273509;-1.10015869140625;-0.449249267578125;7.53999998096333;755;1 A;
104.935102735064;-1.0992431640625;-0.4561767578125;7.54999998093808;756;1 A;
104.945102735039;-1.09893798828125;-0.44757080078125;7.55999998091283;757;1 A;
104.955102735014;-1.09954833984375;-0.449920654296875;7.56999998088759;758;1 A;
104.965102734989;-1.09954833984375;-0.4560546875;7.57999998086234;759;1 A;
104.975102734963;-1.099853515625;-0.450714111328125;7.58999998083709;760;1 A;
104.985102734938;-1.0992431640625;-0.450531005859375;7.59999998081184;761;1 A;
104.995102734913;-1.09893798828125;-0.45599365234375;7.6099999807866;762;1 A;
105.005102734888;-1.099853515625;-0.454559326171875;7.61999998076135;763;1 A;
105.015102734862;-1.0992431640625;-0.462127685546875;7.6299999807361;764;1 A;
105.025102734837;-1.0992431640625;-0.452880859375;7.63999998071085;765;1 A;
105.035102734812;-1.09954833984375;-0.45635986328125;7.64999998068561;766;1 A;
105.045102734787;-1.09954833984375;-0.461578369140625;7.65999998066036;767;1 A;
105.055102734761;-1.0992431640625;-0.45977783203125;7.66999998063511;768;1 A;
105.065102734736;-1.09954833984375;-0.45697021484375;7.67999998060986;769;1 A;
105.075102734711;-1.09954833984375;-0.460479736328125;7.68999998058462;770;1 A;
105.085102734686;-1.09893798828125;-0.4605712890625;7.69999998055937;771;1 A;
105.09510273466;-1.09954833984375;-0.467864990234375;7.70999998053412;772;1 A;
105.105102734635;-1.099853515625;-0.460205078125;7.71999998050887;773;1 A;
105.11510273461;-1.099853515625;-0.462799072265625;7.72999998048363;774;1 A;
105.125102734585;-1.099853515625;-0.465179443359375;7.73999998045838;775;1 A;
105.135102734559;-1.09954833984375;-0.46484375;7.74999998043313;776;1 A;
105.145102734534;-1.10015869140625;-0.464630126953125;7.75999998040788;777;1 A;
105.155102734509;-1.09954833984375;-0.46697998046875;7.76999998038264;778;1 A;
105.165102734484;-1.0992431640625;-0.46185302734375;7.77999998035739;779;1 A;
105.175102734458;-1.09954833984375;-0.472137451171875;7.78999998033214;780;1 A;
105.185102734433;-1.0992431640625;-0.45770263671875;7.79999998030689;781;1 A;
105.195102734408;-1.09954833984375;-0.463165283203125;7.80999998028165;782;1 A;
105.205102734383;-1.099853515625;-0.466949462890625;7.8199999802564;783;1 A;
105.215102734357;-1.099853515625;-0.465789794921875;7.82999998023115;784;1 A;
105.225102734332;-1.0992431640625;-0.461273193359375;7.8399999802059;785;1 A;
105.235102734307;-1.09954833984375;-0.4659423828125;7.84999998018066;786;1 A;
105.245102734282;-1.0992431640625;-0.46484375;7.85999998015541;787;1 A;
105.255102734256;-1.0992431640625;-0.471405029296875;7.86999998013016;788;1 A;
105.265102734231;-1.0992431640625;-0.4632568359375;7.87999998010491;789;1 A;
105.275102734206;-1.099853515625;-0.464111328125;7.88999998007966;790;1 A;
105.285102734181;-1.0992431640625;-0.470428466796875;7.89999998005442;791;1 A;
105.295102734155;-1.09893798828125;-0.465576171875;7.90999998002917;792;1 A;
105.30510273413;-1.09954833984375;-0.467132568359375;7.91999998000392;793;1 A;
105.315102734105;-1.0992431640625;-0.4691162109375;7.92999997997867;794;1 A;
105.32510273408;-1.09954833984375;-0.4703369140625;7.93999997995343;795;1 A;
105.335102734054;-1.0992431640625;-0.475921630859375;7.94999997992818;796;1 A;
105.345102734029;-1.09954833984375;-0.468780517578125;7.95999997990293;797;1 A;
105.355102734004;-1.09954833984375;-0.469390869140625;7.96999997987768;798;1 A;
105.365102733979;-1.09954833984375;-0.47637939453125;7.97999997985244;799;1 A;
105.375102733953;-1.0992431640625;-0.467926025390625;7.98999997982719;800;1 A;
105.385102733928;-1.0992431640625;-0.466339111328125;7.99999997980194;801;1 A;
105.395102733903;-1.09954833984375;-0.470245361328125;8.00999997977669;802;1 A;
105.405102733878;-1.0992431640625;-0.467193603515625;8.01999997975145;803;1 A;
105.415102733852;-1.09954833984375;-0.4747314453125;8.0299999797262;804;1 A;
105.425102733827;-1.09954833984375;-0.46240234375;8.03999997970095;805;1 A;
105.435102733802;-1.09954833984375;-0.466156005859375;8.0499999796757;806;1 A;
105.445102733777;-1.099853515625;-0.470428466796875;8.05999997965046;807;1 A;
105.455102733751;-1.09893798828125;-0.468536376953125;8.06999997962521;808;1 A;
105.465102733726;-1.0992431640625;-0.46417236328125;8.07999997959996;809;1 A;
105.475102733701;-1.0992431640625;-0.467437744140625;8.08999997957471;810;1 A;
105.485102733676;-1.099853515625;-0.4642333984375;8.09999997954947;811;1 A;
105.49510273365;-1.09954833984375;-0.47235107421875;8.10999997952422;812;1 A;
105.505102733625;-1.0992431640625;-0.461639404296875;8.11999997949897;813;1 A;
105.5151027336;-1.09954833984375;-0.464874267578125;8.12999997947372;814;1 A;
105.525102733575;-1.09954833984375;-0.4649658203125;8.13999997944848;815;1 A;
105.535102733549;-1.09893798828125;-0.4666748046875;8.14999997942323;816;1 A;
105.545102733524;-1.09954833984375;-0.4656982421875;8.15999997939798;817;1 A;
105.555102733499;-1.09954833984375;-0.468597412109375;8.16999997937273;818;1 A;
105.565102733474;-1.099853515625;-0.4625244140625;8.17999997934749;819;1 A;
105.575102733448;-1.09954833984375;-0.47479248046875;8.18999997932224;820;1 A;
105.585102733423;-1.09954833984375;-0.46063232421875;8.19999997929699;821;1 A;
105.595102733398;-1.09954833984375;-0.467010498046875;8.20999997927174;822;1 A;
105.605102733373;-1.0992431640625;-0.472015380859375;8.2199999792465;823;1 A;
105.615102733347;-1.0992431640625;-0.471099853515625;8.22999997922125;824;1 A;
105.625102733322;-1.099853515625;-0.467559814453125;8.239999979196;825;1 A;
105.635102733297;-1.0992431640625;-0.473846435546875;8.24999997917075;826;1 A;
105.645102733272;-1.099853515625;-0.4730224609375;8.2599999791455;827;1 A;
105.655102733247;-1.09893798828125;-0.480560302734375;8.26999997912026;828;1 A;
105.665102733221;-1.099853515625;-0.471221923828125;8.27999997909501;829;1 A;
105.675102733196;-1.09954833984375;-0.47369384765625;8.28999997906976;830;1 A;
105.685102733171;-1.0992431640625;-0.48004150390625;8.29999997904451;831;1 A;
105.695102733146;-1.09954833984375;-0.47601318359375;8.30999997901927;832;1 A;
105.70510273312;-1.0992431640625;-0.47540283203125;8.31999997899402;833;1 A;
105.715102733095;-1.0992431640625;-0.47760009765625;8.32999997896877;834;1 A;
105.72510273307;-1.0992431640625;-0.4769287109375;8.33999997894352;835;1 A;
105.735102733045;-1.0992431640625;-0.483245849609375;8.34999997891828;836;1 A;
105.745102733019;-1.09954833984375;-0.474090576171875;8.35999997889303;837;1 A;
105.755102732994;-1.0992431640625;-0.475555419921875;8.36999997886778;838;1 A;
105.765102732969;-1.09954833984375;-0.4814453125;8.37999997884253;839;1 A;
105.775102732944;-1.09954833984375;-0.47503662109375;8.38999997881729;840;1 A;
105.785102732918;-1.09954833984375;-0.472808837890625;8.39999997879204;841;1 A;
105.795102732893;-1.09954833984375;-0.47772216796875;8.40999997876679;842;1 A;
105.805102732868;-1.099853515625;-0.4727783203125;8.41999997874154;843;1 A;
105.815102732843;-1.099853515625;-0.4827880859375;8.4299999787163;844;1 A;
105.825102732817;-1.099853515625;-0.468475341796875;8.43999997869105;845;1 A;
105.835102732792;-1.099853515625;-0.472747802734375;8.4499999786658;846;1 A;
105.845102732767;-1.0992431640625;-0.47784423828125;8.45999997864055;847;1 A;
105.855102732742;-1.09954833984375;-0.475189208984375;8.46999997861531;848;1 A;
105.865102732716;-1.09954833984375;-0.470916748046875;8.47999997859006;849;1 A;
105.875102732691;-1.099853515625;-0.473724365234375;8.48999997856481;850;1 A;
105.885102732666;-1.09954833984375;-0.471588134765625;8.49999997853956;851;1 A;
105.895102732641;-1.09954833984375;-0.4798583984375;8.50999997851432;852;1 A;
105.905102732615;-1.09954833984375;-0.469573974609375;8.51999997848907;853;1 A;
105.91510273259;-1.099853515625;-0.4722900390625;8.52999997846382;854;1 A;
105.925102732565;-1.09954833984375;-0.475128173828125;8.53999997843857;855;1 A;
105.93510273254;-1.0992431640625;-0.47650146484375;8.54999997841333;856;1 A;
105.945102732514;-1.09954833984375;-0.4761962890625;8.55999997838808;857;1 A;
105.955102732489;-1.09954833984375;-0.47882080078125;8.56999997836283;858;1 A;
105.965102732464;-1.09954833984375;-0.473419189453125;8.57999997833758;859;1 A;
105.975102732439;-1.09954833984375;-0.48468017578125;8.58999997831233;860;1 A;
105.985102732413;-1.09954833984375;-0.47149658203125;8.59999997828709;861;1 A;
105.995102732388;-1.09893798828125;-0.478240966796875;8.60999997826184;862;1 A;
106.005102732363;-1.09954833984375;-0.482421875;8.61999997823659;863;1 A;
106.015102732338;-1.09954833984375;-0.482269287109375;8.62999997821134;864;1 A;
106.025102732312;-1.09954833984375;-0.476715087890625;8.6399999781861;865;1 A;
106.035102732287;-1.0992431640625;-0.485076904296875;8.64999997816085;866;1 A;
106.045102732262;-1.09954833984375;-0.48040771484375;8.6599999781356;867;1 A;
106.055102732237;-1.09954833984375;-0.489959716796875;8.66999997811035;868;1 A;
106.065102732211;-1.099853515625;-0.478790283203125;8.67999997808511;869;1 A;
106.075102732186;-1.0992431640625;-0.482208251953125;8.68999997805986;870;1 A;
106.085102732161;-1.099853515625;-0.486358642578125;8.69999997803461;871;1 A;
106.095102732136;-1.09954833984375;-0.484039306640625;8.70999997800936;872;1 A;
106.10510273211;-1.09893798828125;-0.47967529296875;8.71999997798412;873;1 A;
106.115102732085;-1.09893798828125;-0.483245849609375;8.72999997795887;874;1 A;
106.12510273206;-1.09954833984375;-0.4815673828125;8.73999997793362;875;1 A;
106.135102732035;-1.09954833984375;-0.489990234375;8.74999997790837;876;1 A;
106.145102732009;-1.0992431640625;-0.48040771484375;8.75999997788313;877;1 A;
106.155102731984;-1.0992431640625;-0.48223876953125;8.76999997785788;878;1 A;
106.165102731959;-1.09893798828125;-0.4892578125;8.77999997783263;879;1 A;
106.175102731934;-1.09954833984375;-0.48516845703125;8.78999997780738;880;1 A;
106.185102731908;-1.099853515625;-0.483734130859375;8.79999997778214;881;1 A;
106.195102731883;-1.0992431640625;-0.488800048828125;8.80999997775689;882;1 A;
106.205102731858;-1.099853515625;-0.483306884765625;8.81999997773164;883;1 A;
106.215102731833;-1.0992431640625;-0.4949951171875;8.82999997770639;884;1 A;
106.225102731807;-1.099853515625;-0.478302001953125;8.83999997768115;885;1 A;
106.235102731782;-1.0992431640625;-0.48358154296875;8.8499999776559;886;1 A;
106.245102731757;-1.09954833984375;-0.4903564453125;8.85999997763065;887;1 A;
106.255102731732;-1.0992431640625;-0.487030029296875;8.8699999776054;888;1 A;
106.265102731706;-1.09954833984375;-0.4837646484375;8.87999997758016;889;1 A;
106.275102731681;-1.099853515625;-0.488006591796875;8.88999997755491;890;1 A;
106.285102731656;-1.09954833984375;-0.48638916015625;8.89999997752966;891;1 A;
106.295102731631;-1.09893798828125;-0.49591064453125;8.90999997750441;892;1 A;
106.305102731605;-1.09954833984375;-0.484893798828125;8.91999997747916;893;1 A;
106.31510273158;-1.099853515625;-0.488555908203125;8.92999997745392;894;1 A;
106.325102731555;-1.0992431640625;-0.49041748046875;8.93999997742867;895;1 A;
106.33510273153;-1.0992431640625;-0.49041748046875;8.94999997740342;896;1 A;
106.345102731504;-1.09954833984375;-0.49249267578125;8.95999997737817;897;1 A;
106.355102731479;-1.09954833984375;-0.49560546875;8.96999997735293;898;1 A;
106.365102731454;-1.0992431640625;-0.48980712890625;8.97999997732768;899;1 A;
106.375102731429;-1.09954833984375;-0.50201416015625;8.98999997730243;900;1 A;
106.385102731403;-1.0992431640625;-0.48858642578125;8.99999997727718;901;1 A;
106.395102731378;-1.09954833984375;-0.4949951171875;9.00999997725194;902;1 A;
106.405102731353;-1.0992431640625;-0.499267578125;9.01999997722669;903;1 A;
106.415102731328;-1.0992431640625;-0.49774169921875;9.02999997720144;904;1 A;
106.425102731302;-1.0992431640625;-0.491851806640625;9.03999997717619;905;1 A;
106.435102731277;-1.09954833984375;-0.50048828125;9.04999997715095;906;1 A;
106.445102731252;-1.099853515625;-0.494842529296875;9.0599999771257;907;1 A;
106.455102731227;-1.0992431640625;-0.5059814453125;9.06999997710045;908;1 A;
106.465102731201;-1.09954833984375;-0.493408203125;9.0799999770752;909;1 A;
106.475102731176;-1.09954833984375;-0.496856689453125;9.08999997704996;910;1 A;
106.485102731151;-1.09954833984375;-0.50323486328125;9.09999997702471;911;1 A;
106.495102731126;-1.0992431640625;-0.50323486328125;9.10999997699946;912;1 A;
106.5051027311;-1.09893798828125;-0.49835205078125;9.11999997697421;913;1 A;
106.515102731075;-1.09954833984375;-0.504150390625;9.12999997694897;914;1 A;
106.52510273105;-1.10015869140625;-0.50201416015625;9.13999997692372;915;1 A;
106.535102731025;-1.0992431640625;-0.5126953125;9.14999997689847;916;1 A;
106.545102730999;-1.09954833984375;-0.5029296875;9.15999997687322;917;1 A;
106.555102730974;-1.0992431640625;-0.50567626953125;9.16999997684798;918;1 A;
106.565102730949;-1.099853515625;-0.5126953125;9.17999997682273;919;1 A;
106.575102730924;-1.09954833984375;-0.50994873046875;9.18999997679748;920;1 A;
106.585102730898;-1.09954833984375;-0.5084228515625;9.19999997677223;921;1 A;
106.595102730873;-1.09954833984375;-0.51300048828125;9.20999997674699;922;1 A;
106.605102730848;-1.0992431640625;-0.50811767578125;9.21999997672174;923;1 A;
106.615102730823;-1.09954833984375;-0.5206298828125;9.22999997669649;924;1 A;
106.625102730797;-1.0992431640625;-0.5029296875;9.23999997667124;925;1 A;
106.635102730772;-1.09954833984375;-0.5084228515625;9.249999976646;926;1 A;
106.645102730747;-1.0992431640625;-0.51666259765625;9.25999997662075;927;1 A;
106.655102730722;-1.099853515625;-0.5126953125;9.2699999765955;928;1 A;
106.665102730697;-1.09954833984375;-0.51025390625;9.27999997657025;929;1 A;
106.675102730671;-1.0992431640625;-0.51605224609375;9.289999976545;930;1 A;
106.685102730646;-1.09954833984375;-0.51300048828125;9.29999997651976;931;1 A;
106.695102730621;-1.09954833984375;-0.5242919921875;9.30999997649451;932;1 A;
106.705102730596;-1.099853515625;-0.511474609375;9.31999997646926;933;1 A;
106.71510273057;-1.0992431640625;-0.51544189453125;9.32999997644401;934;1 A;
106.725102730545;-1.09954833984375;-0.5181884765625;9.33999997641877;935;1 A;
106.73510273052;-1.09954833984375;-0.518798828125;9.34999997639352;936;1 A;
106.745102730495;-1.0992431640625;-0.51910400390625;9.35999997636827;937;1 A;
106.755102730469;-1.099853515625;-0.523681640625;9.36999997634302;938;1 A;
106.765102730444;-1.10015869140625;-0.5181884765625;9.37999997631778;939;1 A;
106.775102730419;-1.09954833984375;-0.53070068359375;9.38999997629253;940;1 A;
106.785102730394;-1.099853515625;-0.51727294921875;9.39999997626728;941;1 A;
106.795102730368;-1.09954833984375;-0.5218505859375;9.40999997624203;942;1 A;
106.805102730343;-1.09954833984375;-0.52734375;9.41999997621679;943;1 A;
106.815102730318;-1.0992431640625;-0.52398681640625;9.42999997619154;944;1 A;
106.825102730293;-1.09954833984375;-0.5181884765625;9.43999997616629;945;1 A;
106.835102730267;-1.0992431640625;-0.52642822265625;9.44999997614104;946;1 A;
106.845102730242;-1.099853515625;-0.52001953125;9.4599999761158;947;1 A;
106.855102730217;-1.0992431640625;-0.5316162109375;9.46999997609055;948;1 A;
106.865102730192;-1.09954833984375;-0.51727294921875;9.4799999760653;949;1 A;
106.875102730166;-1.09954833984375;-0.52001953125;9.48999997604005;950;1 A;
106.885102730141;-1.099853515625;-0.52764892578125;9.49999997601481;951;1 A;
106.895102730116;-1.09954833984375;-0.5255126953125;9.50999997598956;952;1 A;
106.905102730091;-1.09954833984375;-0.52001953125;9.51999997596431;953;1 A;
106.915102730065;-1.099853515625;-0.5242919921875;9.52999997593906;954;1 A;
106.92510273004;-1.09954833984375;-0.52215576171875;9.53999997591382;955;1 A;
106.935102730015;-1.09893798828125;-0.5322265625;9.54999997588857;956;1 A;
106.94510272999;-1.099853515625;-0.51971435546875;9.55999997586332;957;1 A;
106.955102729964;-1.09954833984375;-0.52215576171875;9.56999997583807;958;1 A;
106.965102729939;-1.099853515625;-0.52581787109375;9.57999997581283;959;1 A;
106.975102729914;-1.09954833984375;-0.526123046875;9.58999997578758;960;1 A;
106.985102729889;-1.099853515625;-0.52276611328125;9.59999997576233;961;1 A;
106.995102729863;-1.09893798828125;-0.52734375;9.60999997573708;962;1 A;
107.005102729838;-1.09954833984375;-0.51788330078125;9.61999997571183;963;1 A;
107.015102729813;-1.0992431640625;-0.533447265625;9.62999997568659;964;1 A;
107.025102729788;-1.0992431640625;-0.5126953125;9.63999997566134;965;1 A;
107.035102729762;-1.0992431640625;-0.52093505859375;9.64999997563609;966;1 A;
107.045102729737;-1.09954833984375;-0.52825927734375;9.65999997561084;967;1 A;
107.055102729712;-1.09954833984375;-0.5255126953125;9.6699999755856;968;1 A;
107.065102729687;-1.09954833984375;-0.52001953125;9.67999997556035;969;1 A;
107.075102729661;-1.09954833984375;-0.52581787109375;9.6899999755351;970;1 A;
107.085102729636;-1.0992431640625;-0.52398681640625;9.69999997550985;971;1 A;
107.095102729611;-1.10015869140625;-0.53436279296875;9.70999997548461;972;1 A;
107.105102729586;-1.0992431640625;-0.5206298828125;9.71999997545936;973;1 A;
107.11510272956;-1.099853515625;-0.523681640625;9.72999997543411;974;1 A;
107.125102729535;-1.099853515625;-0.5279541015625;9.73999997540886;975;1 A;
107.13510272951;-1.0992431640625;-0.52734375;9.74999997538362;976;1 A;
107.145102729485;-1.09954833984375;-0.526123046875;9.75999997535837;977;1 A;
107.155102729459;-1.09893798828125;-0.52947998046875;9.76999997533312;978;1 A;
107.165102729434;-1.099853515625;-0.52642822265625;9.77999997530787;979;1 A;
107.175102729409;-1.099853515625;-0.53619384765625;9.78999997528263;980;1 A;
107.185102729384;-1.09954833984375;-0.52490234375;9.79999997525738;981;1 A;
107.195102729358;-1.0992431640625;-0.5279541015625;9.80999997523213;982;1 A;
107.205102729333;-1.0992431640625;-0.53802490234375;9.81999997520688;983;1 A;
107.215102729308;-1.09893798828125;-0.53070068359375;9.82999997518164;984;1 A;
107.225102729283;-1.0992431640625;-0.52703857421875;9.83999997515639;985;1 A;
107.235102729257;-1.10015869140625;-0.53558349609375;9.84999997513114;986;1 A;
107.245102729232;-1.0992431640625;-0.53009033203125;9.85999997510589;987;1 A;
107.255102729207;-1.0992431640625;-0.543212890625;9.86999997508065;988;1 A;
107.265102729182;-1.0992431640625;-0.526123046875;9.8799999750554;989;1 A;
107.275102729156;-1.09954833984375;-0.5303955078125;9.88999997503015;990;1 A;
107.285102729131;-1.09954833984375;-0.53802490234375;9.8999999750049;991;1 A;
107.295102729106;-1.099853515625;-0.535888671875;9.90999997497966;992;1 A;
107.305102729081;-1.09954833984375;-0.52825927734375;9.91999997495441;993;1 A;
107.315102729055;-1.099853515625;-0.5322265625;9.92999997492916;994;1 A;
107.32510272903;-1.099853515625;-0.52642822265625;9.93999997490391;995;1 A;
107.335102729005;-1.099853515625;-0.53802490234375;9.94999997487866;996;1 A;
107.34510272898;-1.099853515625;-0.52337646484375;9.95999997485342;997;1 A;
107.355102728954;-1.09954833984375;-0.5267333984375;9.96999997482817;998;1 A;
107.365102728929;-1.09893798828125;-0.52825927734375;9.97999997480292;999;1 A;
107.375102728904;-1.10015869140625;-0.5303955078125;9.98999997477767;1000;1 A;
