Time (s);WE(1).Potential (V);WE(1).Current (A);Corrected time (s);Index;Current range
3.11627199213217;0.39971923828125;0.0100372314453125;0;1;100 mA
3.12627199210692;0.399688720703125;0.00771484375;0.00999999997475243;2;100 mA
3.13627199208167;0.399658203125;0.006500244140625;0.0199999999495049;3;100 mA
3.14627199205643;0.39971923828125;0.00567626953125;0.0299999999242573;4;100 mA
3.15627199203118;0.399688720703125;0.005181884765625;0.0399999998990097;5;100 mA
3.16627199200593;0.399658203125;0.004888916015625;0.0499999998737621;6;100 mA
3.17627199198068;0.39971923828125;0.00453826904296875;0.0599999998485146;7;100 mA
3.18627199195544;0.399749755859375;0.0043353271484375;0.069999999823267;8;100 mA
3.19627199193019;0.399749755859375;0.00417236328125;0.0799999997980194;9;100 mA
3.20627199190494;0.39971923828125;0.00398162841796875;0.0899999997727718;10;100 mA
3.21627199187969;0.39971923828125;0.0038934326171875;0.0999999997475243;11;100 mA
3.22627199185445;0.399749755859375;0.00383880615234375;0.109999999722277;12;100 mA
3.2362719918292;0.399749755859375;0.00371612548828125;0.119999999697029;13;100 mA
3.24627199180395;0.399749755859375;0.00363922119140625;0.129999999671782;14;100 mA
3.2562719917787;0.399749755859375;0.0036346435546875;0.139999999646534;15;100 mA
3.26627199175346;0.39971923828125;0.003531494140625;0.149999999621286;16;100 mA
3.27627199172821;0.399749755859375;0.00349884033203125;0.159999999596039;17;100 mA
3.28627199170296;0.3997802734375;0.003486328125;0.169999999570791;18;100 mA
3.29627199167771;0.39971923828125;0.00337738037109375;0.179999999545544;19;100 mA
3.30627199165247;0.399749755859375;0.00334747314453125;0.189999999520296;20;100 mA
3.31627199162722;0.399810791015625;0.00335113525390625;0.199999999495049;21;100 mA
3.32627199160197;0.399749755859375;0.003277587890625;0.209999999469801;22;100 mA
3.33627199157672;0.3997802734375;0.003262939453125;0.219999999444553;23;100 mA
3.34627199155148;0.399749755859375;0.003260498046875;0.229999999419306;24;100 mA
3.35627199152623;0.399810791015625;0.003184814453125;0.239999999394058;25;100 mA
3.36627199150098;0.399749755859375;0.00317138671875;0.249999999368811;26;100 mA
3.37627199147573;0.39971923828125;0.0031817626953125;0.259999999343563;27;100 mA
3.38627199145049;0.3997802734375;0.00311279296875;0.269999999318316;28;100 mA
3.39627199142524;0.39971923828125;0.003092041015625;0.279999999293068;29;100 mA
3.40627199139999;0.39971923828125;0.0031243896484375;0.28999999926782;30;100 mA
3.41627199137474;0.399810791015625;0.00307586669921875;0.299999999242573;31;100 mA
3.42627199134949;0.39971923828125;0.0030615234375;0.309999999217325;32;100 mA
3.43627199132425;0.3997802734375;0.00306732177734375;0.319999999192078;33;100 mA
3.446271991299;0.3997802734375;0.002998046875;0.32999999916683;34;100 mA
3.45627199127375;0.399749755859375;0.002987060546875;0.339999999141583;35;100 mA
3.4662719912485;0.399749755859375;0.00302154541015625;0.349999999116335;36;100 mA
3.47627199122326;0.399810791015625;0.00298828125;0.359999999091087;37;100 mA
3.48627199119801;0.399749755859375;0.002972412109375;0.36999999906584;38;100 mA
3.49627199117276;0.399810791015625;0.00299835205078125;0.379999999040592;39;100 mA
3.50627199114751;0.3997802734375;0.002955322265625;0.389999999015345;40;100 mA
3.51627199112227;0.3997802734375;0.00296234130859375;0.399999998990097;41;100 mA
3.52627199109702;0.3997802734375;0.00300384521484375;0.40999999896485;42;100 mA
3.53627199107177;0.39971923828125;0.002960205078125;0.419999998939602;43;100 mA
3.54627199104652;0.399749755859375;0.00294769287109375;0.429999998914354;44;100 mA
3.55627199102128;0.399749755859375;0.0029693603515625;0.439999998889107;45;100 mA
3.56627199099603;0.399749755859375;0.0029254150390625;0.449999998863859;46;100 mA
3.57627199097078;0.3997802734375;0.0029132080078125;0.459999998838612;47;100 mA
3.58627199094553;0.399749755859375;0.002935791015625;0.469999998813364;48;100 mA
3.59627199092029;0.39971923828125;0.00286712646484375;0.479999998788116;49;100 mA
3.60627199089504;0.399810791015625;0.0028656005859375;0.489999998762869;50;100 mA
3.61627199086979;0.399749755859375;0.00292388916015625;0.499999998737621;51;100 mA
3.62627199084454;0.3997802734375;0.00287322998046875;0.509999998712374;52;100 mA
3.6362719908193;0.39971923828125;0.00286163330078125;0.519999998687126;53;100 mA
3.64627199079405;0.399688720703125;0.00293060302734375;0.529999998661879;54;100 mA
3.6562719907688;0.3997802734375;0.0028875732421875;0.539999998636631;55;100 mA
3.66627199074355;0.399749755859375;0.002889404296875;0.549999998611383;56;100 mA
3.67627199071831;0.3997802734375;0.002930908203125;0.559999998586136;57;100 mA
3.68627199069306;0.399810791015625;0.00284698486328125;0.569999998560888;58;100 mA
3.69627199066781;0.3997802734375;0.0028533935546875;0.579999998535641;59;100 mA
3.70627199064256;0.399749755859375;0.00287109375;0.589999998510393;60;100 mA
3.71627199061732;0.399749755859375;0.00285675048828125;0.599999998485146;61;100 mA
3.72627199059207;0.399810791015625;0.002838134765625;0.609999998459898;62;100 mA
3.73627199056682;0.399810791015625;0.00285369873046875;0.61999999843465;63;100 mA
3.74627199054157;0.399749755859375;0.0027740478515625;0.629999998409403;64;100 mA
3.75627199051632;0.39971923828125;0.00278076171875;0.639999998384155;65;100 mA
3.76627199049108;0.3997802734375;0.00284942626953125;0.649999998358908;66;100 mA
3.77627199046583;0.39971923828125;0.00284515380859375;0.65999999833366;67;100 mA
3.78627199044058;0.39984130859375;0.00282318115234375;0.669999998308413;68;100 mA
3.79627199041533;0.399810791015625;0.002877197265625;0.679999998283165;69;100 mA
3.80627199039009;0.399749755859375;0.00282989501953125;0.689999998257917;70;100 mA
3.81627199036484;0.3997802734375;0.0028240966796875;0.69999999823267;71;100 mA
3.82627199033959;0.3997802734375;0.002879638671875;0.709999998207422;72;100 mA
3.83627199031434;0.399749755859375;0.00283294677734375;0.719999998182175;73;100 mA
3.8462719902891;0.399749755859375;0.0028240966796875;0.729999998156927;74;100 mA
3.85627199026385;0.3997802734375;0.00285186767578125;0.73999999813168;75;100 mA
3.8662719902386;0.3997802734375;0.0028179931640625;0.749999998106432;76;100 mA
3.87627199021335;0.399749755859375;0.00281280517578125;0.759999998081184;77;100 mA
3.88627199018811;0.399749755859375;0.00284759521484375;0.769999998055937;78;100 mA
3.89627199016286;0.399688720703125;0.0027862548828125;0.779999998030689;79;100 mA
3.90627199013761;0.3997802734375;0.00279541015625;0.789999998005442;80;100 mA
3.91627199011236;0.3997802734375;0.00283538818359375;0.799999997980194;81;100 mA
3.92627199008712;0.3997802734375;0.002806396484375;0.809999997954947;82;100 mA
3.93627199006187;0.399749755859375;0.00277984619140625;0.819999997929699;83;100 mA
3.94627199003662;0.39971923828125;0.00278839111328125;0.829999997904451;84;100 mA
3.95627199001137;0.3997802734375;0.00277740478515625;0.839999997879204;85;100 mA
3.96627198998613;0.3997802734375;0.002763671875;0.849999997853956;86;100 mA
3.97627198996088;0.3997802734375;0.00279693603515625;0.859999997828709;87;100 mA
3.98627198993563;0.3997802734375;0.0027459716796875;0.869999997803461;88;100 mA
3.99627198991038;0.399749755859375;0.00273681640625;0.879999997778214;89;100 mA
4.00627198988514;0.399810791015625;0.002784423828125;0.889999997752966;90;100 mA
4.01627198985989;0.3997802734375;0.002777099609375;0.899999997727718;91;100 mA
4.02627198983464;0.3997802734375;0.0027703857421875;0.909999997702471;92;100 mA
4.03627198980939;0.399810791015625;0.00281005859375;0.919999997677223;93;100 mA
4.04627198978415;0.39971923828125;0.00276824951171875;0.929999997651976;94;100 mA
4.0562719897589;0.3997802734375;0.00276641845703125;0.939999997626728;95;100 mA
4.06627198973365;0.3997802734375;0.002794189453125;0.949999997601481;96;100 mA
4.0762719897084;0.3997802734375;0.0027484130859375;0.959999997576233;97;100 mA
4.08627198968315;0.399749755859375;0.00273529052734375;0.969999997550985;98;100 mA
4.09627198965791;0.399749755859375;0.00277069091796875;0.979999997525738;99;100 mA
4.10627198963266;0.3997802734375;0.0027593994140625;0.98999999750049;100;100 mA
4.11627198960741;0.399810791015625;0.00272552490234375;0.999999997475243;101;100 mA
4.12627198958216;0.3997802734375;0.0027618408203125;1.00999999745;102;100 mA
4.13627198955692;0.399749755859375;0.00271453857421875;1.01999999742475;103;100 mA
4.14627198953167;0.399688720703125;0.00269927978515625;1.0299999973995;104;100 mA
4.15627198950642;0.399749755859375;0.00274139404296875;1.03999999737425;105;100 mA
4.16627198948117;0.399810791015625;0.00272125244140625;1.049999997349;106;100 mA
4.17627198945593;0.399749755859375;0.002694091796875;1.05999999732376;107;100 mA
4.18627198943068;0.399749755859375;0.0027362060546875;1.06999999729851;108;100 mA
4.19627198940543;0.3997802734375;0.0027001953125;1.07999999727326;109;100 mA
4.20627198938018;0.399810791015625;0.00269989013671875;1.08999999724801;110;100 mA
4.21627198935494;0.399749755859375;0.0027288818359375;1.09999999722277;111;100 mA
4.22627198932969;0.399749755859375;0.00267364501953125;1.10999999719752;112;100 mA
4.23627198930444;0.399749755859375;0.0026629638671875;1.11999999717227;113;100 mA
4.24627198927919;0.3997802734375;0.00269866943359375;1.12999999714702;114;100 mA
4.25627198925395;0.399749755859375;0.0026898193359375;1.13999999712178;115;100 mA
4.2662719892287;0.3997802734375;0.00267913818359375;1.14999999709653;116;100 mA
4.27627198920345;0.39971923828125;0.0027166748046875;1.15999999707128;117;100 mA
4.2862719891782;0.39984130859375;0.00266632080078125;1.16999999704603;118;100 mA
4.29627198915296;0.399749755859375;0.00264556884765625;1.17999999702079;119;100 mA
4.30627198912771;0.3997802734375;0.0026800537109375;1.18999999699554;120;100 mA
4.31627198910246;0.399688720703125;0.00263519287109375;1.19999999697029;121;100 mA
4.32627198907721;0.399749755859375;0.00261871337890625;1.20999999694504;122;100 mA
4.33627198905197;0.3997802734375;0.0026580810546875;1.2199999969198;123;100 mA
4.34627198902672;0.3997802734375;0.00264678955078125;1.22999999689455;124;100 mA
4.35627198900147;0.399749755859375;0.00264617919921875;1.2399999968693;125;100 mA
4.36627198897622;0.399749755859375;0.0026812744140625;1.24999999684405;126;100 mA
4.37627198895098;0.3997802734375;0.0026226806640625;1.25999999681881;127;100 mA
4.38627198892573;0.399749755859375;0.00260589599609375;1.26999999679356;128;100 mA
4.39627198890048;0.39971923828125;0.00262054443359375;1.27999999676831;129;100 mA
4.40627198887523;0.399810791015625;0.0025921630859375;1.28999999674306;130;100 mA
4.41627198884999;0.399749755859375;0.00259246826171875;1.29999999671782;131;100 mA
4.42627198882474;0.39971923828125;0.00263427734375;1.30999999669257;132;100 mA
4.43627198879949;0.39971923828125;0.002587890625;1.31999999666732;133;100 mA
4.44627198877424;0.3997802734375;0.00257843017578125;1.32999999664207;134;100 mA
4.45627198874899;0.3997802734375;0.00260498046875;1.33999999661683;135;100 mA
4.46627198872375;0.39971923828125;0.00253875732421875;1.34999999659158;136;100 mA
4.4762719886985;0.39971923828125;0.00255950927734375;1.35999999656633;137;100 mA
4.48627198867325;0.399810791015625;0.0026220703125;1.36999999654108;138;100 mA
4.496271988648;0.399749755859375;0.00261260986328125;1.37999999651583;139;100 mA
4.50627198862276;0.399749755859375;0.00261688232421875;1.38999999649059;140;100 mA
4.51627198859751;0.3997802734375;0.0026666259765625;1.39999999646534;141;100 mA
4.52627198857226;0.399749755859375;0.0026263427734375;1.40999999644009;142;100 mA
4.53627198854701;0.3997802734375;0.0026251220703125;1.41999999641484;143;100 mA
4.54627198852177;0.3997802734375;0.0026531982421875;1.4299999963896;144;100 mA
4.55627198849652;0.39971923828125;0.0026300048828125;1.43999999636435;145;100 mA
4.56627198847127;0.399749755859375;0.0026318359375;1.4499999963391;146;100 mA
4.57627198844602;0.3997802734375;0.00268157958984375;1.45999999631385;147;100 mA
4.58627198842078;0.399749755859375;0.00265869140625;1.46999999628861;148;100 mA
4.59627198839553;0.399810791015625;0.002657470703125;1.47999999626336;149;100 mA
4.60627198837028;0.399688720703125;0.0027020263671875;1.48999999623811;150;100 mA
4.61627198834503;0.399749755859375;0.00266448974609375;1.49999999621286;151;100 mA
4.62627198831979;0.39971923828125;0.00266632080078125;1.50999999618762;152;100 mA
4.63627198829454;0.399749755859375;0.0027001953125;1.51999999616237;153;100 mA
4.64627198826929;0.39971923828125;0.00268157958984375;1.52999999613712;154;100 mA
4.65627198824404;0.399749755859375;0.0026513671875;1.53999999611187;155;100 mA
4.6662719882188;0.399749755859375;0.00268035888671875;1.54999999608663;156;100 mA
4.67627198819355;0.399810791015625;0.0026397705078125;1.55999999606138;157;100 mA
4.6862719881683;0.399810791015625;0.0026275634765625;1.56999999603613;158;100 mA
4.69627198814305;0.39971923828125;0.0026702880859375;1.57999999601088;159;100 mA
4.70627198811781;0.399749755859375;0.00263824462890625;1.58999999598564;160;100 mA
4.71627198809256;0.3997802734375;0.00264007568359375;1.59999999596039;161;100 mA
4.72627198806731;0.399749755859375;0.0026708984375;1.60999999593514;162;100 mA
4.73627198804206;0.3997802734375;0.00264007568359375;1.61999999590989;163;100 mA
4.74627198801682;0.39971923828125;0.002633056640625;1.62999999588465;164;100 mA
4.75627198799157;0.3997802734375;0.00265625;1.6399999958594;165;100 mA
4.76627198796632;0.39971923828125;0.00259521484375;1.64999999583415;166;100 mA
4.77627198794107;0.39971923828125;0.00259552001953125;1.6599999958089;167;100 mA
4.78627198791582;0.399810791015625;0.00263031005859375;1.66999999578366;168;100 mA
4.79627198789058;0.39971923828125;0.00261322021484375;1.67999999575841;169;100 mA
4.80627198786533;0.399749755859375;0.00259246826171875;1.68999999573316;170;100 mA
4.81627198784008;0.39984130859375;0.00264678955078125;1.69999999570791;171;100 mA
4.82627198781483;0.3997802734375;0.00262054443359375;1.70999999568267;172;100 mA
4.83627198778959;0.399810791015625;0.0026153564453125;1.71999999565742;173;100 mA
4.84627198776434;0.399810791015625;0.0026544189453125;1.72999999563217;174;100 mA
4.85627198773909;0.39971923828125;0.0026263427734375;1.73999999560692;175;100 mA
4.86627198771384;0.39971923828125;0.002618408203125;1.74999999558167;176;100 mA
4.8762719876886;0.399749755859375;0.00264404296875;1.75999999555643;177;100 mA
4.88627198766335;0.399749755859375;0.0026318359375;1.76999999553118;178;100 mA
4.8962719876381;0.399810791015625;0.00262481689453125;1.77999999550593;179;100 mA
4.90627198761285;0.3997802734375;0.0026470947265625;1.78999999548068;180;100 mA
4.91627198758761;0.399749755859375;0.0026025390625;1.79999999545544;181;100 mA
4.92627198756236;0.3997802734375;0.00261566162109375;1.80999999543019;182;100 mA
4.93627198753711;0.399810791015625;0.0026416015625;1.81999999540494;183;100 mA
4.94627198751186;0.39971923828125;0.00262115478515625;1.82999999537969;184;100 mA
4.95627198748662;0.399749755859375;0.0025994873046875;1.83999999535445;185;100 mA
4.96627198746137;0.3997802734375;0.00261749267578125;1.8499999953292;186;100 mA
4.97627198743612;0.399688720703125;0.00258056640625;1.85999999530395;187;100 mA
4.98627198741087;0.399688720703125;0.002574462890625;1.8699999952787;188;100 mA
4.99627198738563;0.3997802734375;0.00261932373046875;1.87999999525346;189;100 mA
5.00627198736038;0.399749755859375;0.0025921630859375;1.88999999522821;190;100 mA
5.01627198733513;0.3997802734375;0.00258544921875;1.89999999520296;191;100 mA
5.02627198730988;0.3997802734375;0.00261688232421875;1.90999999517771;192;100 mA
5.03627198728464;0.399810791015625;0.0025970458984375;1.91999999515247;193;100 mA
5.04627198725939;0.399688720703125;0.0026055908203125;1.92999999512722;194;100 mA
5.05627198723414;0.399749755859375;0.00263702392578125;1.93999999510197;195;100 mA
5.06627198720889;0.399749755859375;0.0025946044921875;1.94999999507672;196;100 mA
5.07627198718365;0.399749755859375;0.00260467529296875;1.95999999505148;197;100 mA
5.0862719871584;0.399749755859375;0.002625732421875;1.96999999502623;198;100 mA
5.09627198713315;0.39971923828125;0.002625732421875;1.97999999500098;199;100 mA
5.1062719871079;0.399749755859375;0.0025909423828125;1.98999999497573;200;100 mA
5.11627198708265;0.399749755859375;0.0026055908203125;1.99999999495049;201;100 mA
5.12627198705741;0.399749755859375;0.00260833740234375;2.00999999492524;202;100 mA
5.13627198703216;0.399810791015625;0.00258941650390625;2.01999999489999;203;100 mA
5.14627198700691;0.3997802734375;0.00263336181640625;2.02999999487474;204;100 mA
5.15627198698166;0.3997802734375;0.00256561279296875;2.0399999948495;205;100 mA
5.16627198695642;0.399749755859375;0.002568359375;2.04999999482425;206;100 mA
5.17627198693117;0.39971923828125;0.00260467529296875;2.059999994799;207;100 mA
5.18627198690592;0.399688720703125;0.00260406494140625;2.06999999477375;208;100 mA
5.19627198688067;0.39971923828125;0.00259307861328125;2.0799999947485;209;100 mA
5.20627198685543;0.39971923828125;0.0026129150390625;2.08999999472326;210;100 mA
5.21627198683018;0.3997802734375;0.00258087158203125;2.09999999469801;211;100 mA
5.22627198680493;0.399749755859375;0.0026025390625;2.10999999467276;212;100 mA
5.23627198677968;0.39971923828125;0.00264251708984375;2.11999999464751;213;100 mA
5.24627198675444;0.399810791015625;0.002603759765625;2.12999999462227;214;100 mA
5.25627198672919;0.399688720703125;0.00260223388671875;2.13999999459702;215;100 mA
5.26627198670394;0.3997802734375;0.00261962890625;2.14999999457177;216;100 mA
5.27627198667869;0.39971923828125;0.0025933837890625;2.15999999454652;217;100 mA
5.28627198665345;0.399749755859375;0.00258514404296875;2.16999999452128;218;100 mA
5.2962719866282;0.399810791015625;0.0026153564453125;2.17999999449603;219;100 mA
5.30627198660295;0.399810791015625;0.0025701904296875;2.18999999447078;220;100 mA
5.3162719865777;0.399749755859375;0.002576904296875;2.19999999444553;221;100 mA
5.32627198655246;0.399810791015625;0.00261383056640625;2.20999999442029;222;100 mA
5.33627198652721;0.3997802734375;0.00255035400390625;2.21999999439504;223;100 mA
5.34627198650196;0.3997802734375;0.002532958984375;2.22999999436979;224;100 mA
5.35627198647671;0.399749755859375;0.00258819580078125;2.23999999434454;225;100 mA
5.36627198645147;0.399810791015625;0.00255340576171875;2.2499999943193;226;100 mA
5.37627198642622;0.399810791015625;0.00258056640625;2.25999999429405;227;100 mA
5.38627198640097;0.399749755859375;0.0026141357421875;2.2699999942688;228;100 mA
5.39627198637572;0.3997802734375;0.002554931640625;2.27999999424355;229;100 mA
5.40627198635048;0.3997802734375;0.00256622314453125;2.28999999421831;230;100 mA
5.41627198632523;0.3997802734375;0.00261383056640625;2.29999999419306;231;100 mA
5.42627198629998;0.3997802734375;0.00260650634765625;2.30999999416781;232;100 mA
5.43627198627473;0.399810791015625;0.00259674072265625;2.31999999414256;233;100 mA
5.44627198624949;0.399749755859375;0.00261962890625;2.32999999411732;234;100 mA
5.45627198622424;0.3997802734375;0.0025689697265625;2.33999999409207;235;100 mA
5.46627198619899;0.399810791015625;0.00258575439453125;2.34999999406682;236;100 mA
5.47627198617374;0.399749755859375;0.002635498046875;2.35999999404157;237;100 mA
5.48627198614849;0.3997802734375;0.00258880615234375;2.36999999401633;238;100 mA
5.49627198612325;0.399749755859375;0.00258270263671875;2.37999999399108;239;100 mA
5.506271986098;0.39971923828125;0.00263397216796875;2.38999999396583;240;100 mA
5.51627198607275;0.399810791015625;0.0026123046875;2.39999999394058;241;100 mA
5.5262719860475;0.399749755859375;0.00262054443359375;2.40999999391533;242;100 mA
5.53627198602226;0.399749755859375;0.00266387939453125;2.41999999389009;243;100 mA
5.54627198599701;0.3997802734375;0.00261474609375;2.42999999386484;244;100 mA
5.55627198597176;0.399749755859375;0.002607421875;2.43999999383959;245;100 mA
5.56627198594651;0.39984130859375;0.0026812744140625;2.44999999381434;246;100 mA
5.57627198592127;0.3997802734375;0.0026434326171875;2.4599999937891;247;100 mA
5.58627198589602;0.399810791015625;0.0026104736328125;2.46999999376385;248;100 mA
5.59627198587077;0.3997802734375;0.002642822265625;2.4799999937386;249;100 mA
5.60627198584552;0.399749755859375;0.00260345458984375;2.48999999371335;250;100 mA
5.61627198582028;0.3997802734375;0.00260009765625;2.49999999368811;251;100 mA
5.62627198579503;0.3997802734375;0.0026458740234375;2.50999999366286;252;100 mA
5.63627198576978;0.3997802734375;0.002611083984375;2.51999999363761;253;100 mA
5.64627198574453;0.39971923828125;0.0026153564453125;2.52999999361236;254;100 mA
5.65627198571929;0.399810791015625;0.00265594482421875;2.53999999358712;255;100 mA
5.66627198569404;0.399749755859375;0.00263519287109375;2.54999999356187;256;100 mA
5.67627198566879;0.3997802734375;0.00262969970703125;2.55999999353662;257;100 mA
5.68627198564354;0.3997802734375;0.0026678466796875;2.56999999351137;258;100 mA
5.6962719856183;0.3997802734375;0.0026202392578125;2.57999999348613;259;100 mA
5.70627198559305;0.3997802734375;0.00259246826171875;2.58999999346088;260;100 mA
5.7162719855678;0.399749755859375;0.00263885498046875;2.59999999343563;261;100 mA
5.72627198554255;0.3997802734375;0.00262481689453125;2.60999999341038;262;100 mA
5.73627198551731;0.399749755859375;0.0026092529296875;2.61999999338514;263;100 mA
5.74627198549206;0.3997802734375;0.00267181396484375;2.62999999335989;264;100 mA
5.75627198546681;0.399749755859375;0.00264129638671875;2.63999999333464;265;100 mA
5.76627198544156;0.399749755859375;0.00262939453125;2.64999999330939;266;100 mA
5.77627198541632;0.399810791015625;0.002669677734375;2.65999999328415;267;100 mA
5.78627198539107;0.3997802734375;0.0026171875;2.6699999932589;268;100 mA
5.79627198536582;0.399749755859375;0.0025970458984375;2.67999999323365;269;100 mA
5.80627198534057;0.3997802734375;0.0026556396484375;2.6899999932084;270;100 mA
5.81627198531532;0.3997802734375;0.00263031005859375;2.69999999318316;271;100 mA
5.82627198529008;0.39971923828125;0.0026007080078125;2.70999999315791;272;100 mA
5.83627198526483;0.3997802734375;0.0026507568359375;2.71999999313266;273;100 mA
5.84627198523958;0.3997802734375;0.0026177978515625;2.72999999310741;274;100 mA
5.85627198521433;0.399810791015625;0.002611083984375;2.73999999308217;275;100 mA
5.86627198518909;0.399749755859375;0.002642822265625;2.74999999305692;276;100 mA
5.87627198516384;0.399749755859375;0.00260528564453125;2.75999999303167;277;100 mA
5.88627198513859;0.39971923828125;0.0025970458984375;2.76999999300642;278;100 mA
5.89627198511334;0.39984130859375;0.002662353515625;2.77999999298117;279;100 mA
5.9062719850881;0.399688720703125;0.00262939453125;2.78999999295593;280;100 mA
5.91627198506285;0.3997802734375;0.00260894775390625;2.79999999293068;281;100 mA
5.9262719850376;0.399749755859375;0.00263397216796875;2.80999999290543;282;100 mA
5.93627198501235;0.399749755859375;0.00258026123046875;2.81999999288018;283;100 mA
5.94627198498711;0.39984130859375;0.00257568359375;2.82999999285494;284;100 mA
5.95627198496186;0.3997802734375;0.0026263427734375;2.83999999282969;285;100 mA
5.96627198493661;0.399749755859375;0.0026190185546875;2.84999999280444;286;100 mA
5.97627198491136;0.3997802734375;0.0026043701171875;2.85999999277919;287;100 mA
5.98627198488612;0.399810791015625;0.00264312744140625;2.86999999275395;288;100 mA
5.99627198486087;0.39971923828125;0.0026275634765625;2.8799999927287;289;100 mA
6.00627198483562;0.3997802734375;0.00262115478515625;2.88999999270345;290;100 mA
6.01627198481037;0.39971923828125;0.00266387939453125;2.8999999926782;291;100 mA
6.02627198478513;0.39971923828125;0.0026226806640625;2.90999999265296;292;100 mA
6.03627198475988;0.3997802734375;0.00260345458984375;2.91999999262771;293;100 mA
6.04627198473463;0.399749755859375;0.00266571044921875;2.92999999260246;294;100 mA
6.05627198470938;0.3997802734375;0.0026727294921875;2.93999999257721;295;100 mA
6.06627198468414;0.399749755859375;0.00265533447265625;2.94999999255197;296;100 mA
6.07627198465889;0.399749755859375;0.002698974609375;2.95999999252672;297;100 mA
6.08627198463364;0.399749755859375;0.00265167236328125;2.96999999250147;298;100 mA
6.09627198460839;0.39971923828125;0.0026519775390625;2.97999999247622;299;100 mA
6.10627198458315;0.3997802734375;0.0026666259765625;2.98999999245098;300;100 mA
6.1162719845579;0.39971923828125;0.0026318359375;2.99999999242573;301;100 mA
6.12627198453265;0.3997802734375;0.0026116943359375;3.00999999240048;302;100 mA
6.1362719845074;0.3997802734375;0.002666015625;3.01999999237523;303;100 mA
6.14627198448215;0.399749755859375;0.0026568603515625;3.02999999234999;304;100 mA
6.15627198445691;0.3997802734375;0.00265106201171875;3.03999999232474;305;100 mA
6.16627198443166;0.39984130859375;0.0027081298828125;3.04999999229949;306;100 mA
6.17627198440641;0.39971923828125;0.002664794921875;3.05999999227424;307;100 mA
6.18627198438116;0.3997802734375;0.0026458740234375;3.069999992249;308;100 mA
6.19627198435592;0.399810791015625;0.002684326171875;3.07999999222375;309;100 mA
6.20627198433067;0.399749755859375;0.0026751708984375;3.0899999921985;310;100 mA
6.21627198430542;0.399688720703125;0.002642822265625;3.09999999217325;311;100 mA
6.22627198428017;0.39971923828125;0.0026666259765625;3.109999992148;312;100 mA
6.23627198425493;0.399810791015625;0.00261016845703125;3.11999999212276;313;100 mA
6.24627198422968;0.399810791015625;0.00261505126953125;3.12999999209751;314;100 mA
6.25627198420443;0.399810791015625;0.0026568603515625;3.13999999207226;315;100 mA
6.26627198417918;0.39971923828125;0.00261688232421875;3.14999999204701;316;100 mA
6.27627198415394;0.399810791015625;0.002601318359375;3.15999999202177;317;100 mA
6.28627198412869;0.399810791015625;0.00264495849609375;3.16999999199652;318;100 mA
6.29627198410344;0.3997802734375;0.0026171875;3.17999999197127;319;100 mA
6.30627198407819;0.399749755859375;0.00261077880859375;3.18999999194602;320;100 mA
6.31627198405295;0.399749755859375;0.00263092041015625;3.19999999192078;321;100 mA
6.3262719840277;0.399749755859375;0.00256866455078125;3.20999999189553;322;100 mA
6.33627198400245;0.399749755859375;0.002576904296875;3.21999999187028;323;100 mA
6.3462719839772;0.3997802734375;0.00263397216796875;3.22999999184503;324;100 mA
6.35627198395196;0.3997802734375;0.00260772705078125;3.23999999181979;325;100 mA
6.36627198392671;0.3997802734375;0.0025885009765625;3.24999999179454;326;100 mA
6.37627198390146;0.399810791015625;0.0026190185546875;3.25999999176929;327;100 mA
6.38627198387621;0.39971923828125;0.00257232666015625;3.26999999174404;328;100 mA
6.39627198385097;0.3997802734375;0.00256561279296875;3.2799999917188;329;100 mA
6.40627198382572;0.39984130859375;0.00260101318359375;3.28999999169355;330;100 mA
6.41627198380047;0.3997802734375;0.0025665283203125;3.2999999916683;331;100 mA
6.42627198377522;0.399749755859375;0.00255706787109375;3.30999999164305;332;100 mA
6.43627198374998;0.39971923828125;0.002601318359375;3.31999999161781;333;100 mA
6.44627198372473;0.399749755859375;0.0025830078125;3.32999999159256;334;100 mA
6.45627198369948;0.3997802734375;0.002569580078125;3.33999999156731;335;100 mA
6.46627198367423;0.3997802734375;0.00262420654296875;3.34999999154206;336;100 mA
6.47627198364899;0.39971923828125;0.0025872802734375;3.35999999151682;337;100 mA
6.48627198362374;0.399749755859375;0.002586669921875;3.36999999149157;338;100 mA
6.49627198359849;0.3997802734375;0.0026177978515625;3.37999999146632;339;100 mA
6.50627198357324;0.3997802734375;0.00258575439453125;3.38999999144107;340;100 mA
6.51627198354799;0.39971923828125;0.002568359375;3.39999999141583;341;100 mA
6.52627198352275;0.399749755859375;0.0026141357421875;3.40999999139058;342;100 mA
6.5362719834975;0.399810791015625;0.002593994140625;3.41999999136533;343;100 mA
6.54627198347225;0.3997802734375;0.0025799560546875;3.42999999134008;344;100 mA
6.556271983447;0.399749755859375;0.00262725830078125;3.43999999131483;345;100 mA
6.56627198342176;0.39984130859375;0.00257965087890625;3.44999999128959;346;100 mA
6.57627198339651;0.399749755859375;0.00256317138671875;3.45999999126434;347;100 mA
6.58627198337126;0.399810791015625;0.0026123046875;3.46999999123909;348;100 mA
6.59627198334601;0.3997802734375;0.00257080078125;3.47999999121384;349;100 mA
6.60627198332077;0.39971923828125;0.00256591796875;3.4899999911886;350;100 mA
6.61627198329552;0.399749755859375;0.0026043701171875;3.49999999116335;351;100 mA
6.62627198327027;0.3997802734375;0.00255523681640625;3.5099999911381;352;100 mA
6.63627198324502;0.39971923828125;0.002552490234375;3.51999999111285;353;100 mA
6.64627198321978;0.3997802734375;0.0026177978515625;3.52999999108761;354;100 mA
6.65627198319453;0.3997802734375;0.00262725830078125;3.53999999106236;355;100 mA
6.66627198316928;0.399810791015625;0.00259674072265625;3.54999999103711;356;100 mA
6.67627198314403;0.399810791015625;0.0026220703125;3.55999999101186;357;100 mA
6.68627198311879;0.39971923828125;0.002579345703125;3.56999999098662;358;100 mA
6.69627198309354;0.3997802734375;0.00257080078125;3.57999999096137;359;100 mA
6.70627198306829;0.3997802734375;0.00262054443359375;3.58999999093612;360;100 mA
6.71627198304304;0.39971923828125;0.00256439208984375;3.59999999091087;361;100 mA
6.7262719830178;0.399749755859375;0.00255706787109375;3.60999999088563;362;100 mA
6.73627198299255;0.3997802734375;0.00259307861328125;3.61999999086038;363;100 mA
6.7462719829673;0.399749755859375;0.002574462890625;3.62999999083513;364;100 mA
6.75627198294205;0.3997802734375;0.0025506591796875;3.63999999080988;365;100 mA
6.76627198291681;0.3997802734375;0.0025982666015625;3.64999999078464;366;100 mA
6.77627198289156;0.399749755859375;0.0025616455078125;3.65999999075939;367;100 mA
6.78627198286631;0.399810791015625;0.0025592041015625;3.66999999073414;368;100 mA
6.79627198284106;0.3997802734375;0.00261016845703125;3.67999999070889;369;100 mA
6.80627198281582;0.399749755859375;0.002557373046875;3.68999999068365;370;100 mA
6.81627198279057;0.399810791015625;0.00254486083984375;3.6999999906584;371;100 mA
6.82627198276532;0.399810791015625;0.002579345703125;3.70999999063315;372;100 mA
6.83627198274007;0.399658203125;0.00254638671875;3.7199999906079;373;100 mA
6.84627198271482;0.399749755859375;0.00254364013671875;3.72999999058266;374;100 mA
6.85627198268958;0.3997802734375;0.0026031494140625;3.73999999055741;375;100 mA
6.86627198266433;0.399688720703125;0.002552490234375;3.74999999053216;376;100 mA
6.87627198263908;0.3997802734375;0.0025482177734375;3.75999999050691;377;100 mA
6.88627198261383;0.39971923828125;0.00258514404296875;3.76999999048167;378;100 mA
6.89627198258859;0.399749755859375;0.00255462646484375;3.77999999045642;379;100 mA
6.90627198256334;0.3997802734375;0.00255401611328125;3.78999999043117;380;100 mA
6.91627198253809;0.399810791015625;0.00259735107421875;3.79999999040592;381;100 mA
6.92627198251284;0.399749755859375;0.00257354736328125;3.80999999038067;382;100 mA
6.9362719824876;0.3997802734375;0.0025726318359375;3.81999999035543;383;100 mA
6.94627198246235;0.3997802734375;0.00260009765625;3.82999999033018;384;100 mA
6.9562719824371;0.39971923828125;0.002586669921875;3.83999999030493;385;100 mA
6.96627198241185;0.399749755859375;0.00256317138671875;3.84999999027968;386;100 mA
6.97627198238661;0.399810791015625;0.0026080322265625;3.85999999025444;387;100 mA
6.98627198236136;0.399688720703125;0.00257568359375;3.86999999022919;388;100 mA
6.99627198233611;0.399749755859375;0.00256744384765625;3.87999999020394;389;100 mA
7.00627198231086;0.399810791015625;0.00261199951171875;3.88999999017869;390;100 mA
7.01627198228562;0.3997802734375;0.00257110595703125;3.89999999015345;391;100 mA
7.02627198226037;0.3997802734375;0.00257568359375;3.9099999901282;392;100 mA
7.03627198223512;0.399749755859375;0.00263946533203125;3.91999999010295;393;100 mA
7.04627198220987;0.399810791015625;0.00261688232421875;3.9299999900777;394;100 mA
7.05627198218463;0.399749755859375;0.00259246826171875;3.93999999005246;395;100 mA
7.06627198215938;0.3997802734375;0.0026251220703125;3.94999999002721;396;100 mA
7.07627198213413;0.3997802734375;0.0025823974609375;3.95999999000196;397;100 mA
7.08627198210888;0.3997802734375;0.00256134033203125;3.96999998997671;398;100 mA
7.09627198208364;0.3997802734375;0.0025860595703125;3.97999998995147;399;100 mA
7.10627198205839;0.399749755859375;0.0025335693359375;3.98999998992622;400;100 mA
7.11627198203314;0.399749755859375;0.00253265380859375;3.99999998990097;401;100 mA
7.12627198200789;0.39971923828125;0.00256683349609375;4.00999998987572;402;100 mA
7.13627198198265;0.399749755859375;0.00255523681640625;4.01999998985048;403;100 mA
7.1462719819574;0.39971923828125;0.00254913330078125;4.02999998982523;404;100 mA
7.15627198193215;0.399749755859375;0.0025738525390625;4.03999998979998;405;100 mA
7.1662719819069;0.399810791015625;0.00252655029296875;4.04999998977473;406;100 mA
7.17627198188165;0.39971923828125;0.0025372314453125;4.05999998974949;407;100 mA
7.18627198185641;0.399810791015625;0.00258575439453125;4.06999998972424;408;100 mA
7.19627198183116;0.399749755859375;0.00255889892578125;4.07999998969899;409;100 mA
7.20627198180591;0.399749755859375;0.00255035400390625;4.08999998967374;410;100 mA
7.21627198178066;0.3997802734375;0.00259033203125;4.0999999896485;411;100 mA
7.22627198175542;0.399810791015625;0.00254241943359375;4.10999998962325;412;100 mA
7.23627198173017;0.39971923828125;0.00254547119140625;4.119999989598;413;100 mA
7.24627198170492;0.399810791015625;0.0025701904296875;4.12999998957275;414;100 mA
7.25627198167967;0.399749755859375;0.00251800537109375;4.1399999895475;415;100 mA
7.26627198165443;0.399749755859375;0.0025311279296875;4.14999998952226;416;100 mA
7.27627198162918;0.399810791015625;0.002578125;4.15999998949701;417;100 mA
7.28627198160393;0.3997802734375;0.00257720947265625;4.16999998947176;418;100 mA
7.29627198157868;0.39984130859375;0.00254852294921875;4.17999998944651;419;100 mA
7.30627198155344;0.3997802734375;0.00257965087890625;4.18999998942127;420;100 mA
7.31627198152819;0.3997802734375;0.0025262451171875;4.19999998939602;421;100 mA
7.32627198150294;0.3997802734375;0.0025164794921875;4.20999998937077;422;100 mA
7.33627198147769;0.39971923828125;0.002578125;4.21999998934552;423;100 mA
7.34627198145245;0.39971923828125;0.00252960205078125;4.22999998932028;424;100 mA
7.3562719814272;0.399749755859375;0.00250946044921875;4.23999998929503;425;100 mA
7.36627198140195;0.399749755859375;0.00256317138671875;4.24999998926978;426;100 mA
7.3762719813767;0.399810791015625;0.0025457763671875;4.25999998924453;427;100 mA
7.38627198135146;0.399749755859375;0.00254547119140625;4.26999998921929;428;100 mA
7.39627198132621;0.399749755859375;0.00259613037109375;4.27999998919404;429;100 mA
7.40627198130096;0.399749755859375;0.00254119873046875;4.28999998916879;430;100 mA
7.41627198127571;0.399749755859375;0.0025445556640625;4.29999998914354;431;100 mA
7.42627198125047;0.39971923828125;0.00260406494140625;4.3099999891183;432;100 mA
7.43627198122522;0.3997802734375;0.0025604248046875;4.31999998909305;433;100 mA
7.44627198119997;0.39971923828125;0.0025457763671875;4.3299999890678;434;100 mA
7.45627198117472;0.399810791015625;0.00258697509765625;4.33999998904255;435;100 mA
7.46627198114948;0.399749755859375;0.0025665283203125;4.34999998901731;436;100 mA
7.47627198112423;0.3997802734375;0.0025640869140625;4.35999998899206;437;100 mA
7.48627198109898;0.3997802734375;0.00261627197265625;4.36999998896681;438;100 mA
7.49627198107373;0.399810791015625;0.00257293701171875;4.37999998894156;439;100 mA
7.50627198104849;0.39971923828125;0.00256805419921875;4.38999998891632;440;100 mA
7.51627198102324;0.3997802734375;0.00261199951171875;4.39999998889107;441;100 mA
7.52627198099799;0.3997802734375;0.00258880615234375;4.40999998886582;442;100 mA
7.53627198097274;0.399749755859375;0.00257965087890625;4.41999998884057;443;100 mA
7.54627198094749;0.3997802734375;0.002633056640625;4.42999998881533;444;100 mA
7.55627198092225;0.399688720703125;0.002591552734375;4.43999998879008;445;100 mA
7.566271980897;0.399749755859375;0.00258087158203125;4.44999998876483;446;100 mA
7.57627198087175;0.399749755859375;0.0026275634765625;4.45999998873958;447;100 mA
7.5862719808465;0.39971923828125;0.002584228515625;4.46999998871433;448;100 mA
7.59627198082126;0.399749755859375;0.00256622314453125;4.47999998868909;449;100 mA
7.60627198079601;0.39971923828125;0.00260986328125;4.48999998866384;450;100 mA
7.61627198077076;0.39971923828125;0.002603759765625;4.49999998863859;451;100 mA
7.62627198074551;0.399749755859375;0.0025830078125;4.50999998861334;452;100 mA
7.63627198072027;0.3997802734375;0.0026068115234375;4.5199999885881;453;100 mA
7.64627198069502;0.399810791015625;0.00255035400390625;4.52999998856285;454;100 mA
7.65627198066977;0.39971923828125;0.002540283203125;4.5399999885376;455;100 mA
7.66627198064452;0.399749755859375;0.0025823974609375;4.54999998851235;456;100 mA
7.67627198061928;0.39971923828125;0.00255401611328125;4.55999998848711;457;100 mA
7.68627198059403;0.399688720703125;0.0025396728515625;4.56999998846186;458;100 mA
7.69627198056878;0.399749755859375;0.0025872802734375;4.57999998843661;459;100 mA
7.70627198054353;0.3997802734375;0.00256103515625;4.58999998841136;460;100 mA
7.71627198051829;0.399749755859375;0.00255462646484375;4.59999998838612;461;100 mA
7.72627198049304;0.3997802734375;0.00260345458984375;4.60999998836087;462;100 mA
7.73627198046779;0.399749755859375;0.00255126953125;4.61999998833562;463;100 mA
7.74627198044254;0.3997802734375;0.00254547119140625;4.62999998831037;464;100 mA
7.7562719804173;0.399749755859375;0.00260009765625;4.63999998828513;465;100 mA
7.76627198039205;0.399688720703125;0.00258636474609375;4.64999998825988;466;100 mA
7.7762719803668;0.399749755859375;0.00256011962890625;4.65999998823463;467;100 mA
7.78627198034155;0.399810791015625;0.00258758544921875;4.66999998820938;468;100 mA
7.79627198031631;0.3997802734375;0.00253082275390625;4.67999998818414;469;100 mA
7.80627198029106;0.399749755859375;0.0025286865234375;4.68999998815889;470;100 mA
7.81627198026581;0.3997802734375;0.00256561279296875;4.69999998813364;471;100 mA
7.82627198024056;0.399749755859375;0.0025494384765625;4.70999998810839;472;100 mA
7.83627198021532;0.39971923828125;0.0025244140625;4.71999998808315;473;100 mA
7.84627198019007;0.39971923828125;0.002568359375;4.7299999880579;474;100 mA
7.85627198016482;0.39971923828125;0.002554931640625;4.73999998803265;475;100 mA
7.86627198013957;0.399810791015625;0.00256500244140625;4.7499999880074;476;100 mA
7.87627198011432;0.399749755859375;0.002603759765625;4.75999998798216;477;100 mA
7.88627198008908;0.39971923828125;0.00255126953125;4.76999998795691;478;100 mA
7.89627198006383;0.39984130859375;0.0025592041015625;4.77999998793166;479;100 mA
7.90627198003858;0.39971923828125;0.00261566162109375;4.78999998790641;480;100 mA
7.91627198001333;0.399749755859375;0.00263336181640625;4.79999998788116;481;100 mA
7.92627197998809;0.399749755859375;0.00259674072265625;4.80999998785592;482;100 mA
7.93627197996284;0.39971923828125;0.0026025390625;4.81999998783067;483;100 mA
7.94627197993759;0.39971923828125;0.00257110595703125;4.82999998780542;484;100 mA
7.95627197991234;0.3997802734375;0.00256927490234375;4.83999998778017;485;100 mA
7.9662719798871;0.399749755859375;0.0025848388671875;4.84999998775493;486;100 mA
7.97627197986185;0.399688720703125;0.00253448486328125;4.85999998772968;487;100 mA
7.9862719798366;0.3997802734375;0.00253997802734375;4.86999998770443;488;100 mA
7.99627197981135;0.399749755859375;0.0025823974609375;4.87999998767918;489;100 mA
8.00627197978611;0.399749755859375;0.00255889892578125;4.88999998765394;490;100 mA
8.01627197976086;0.399749755859375;0.0025494384765625;4.89999998762869;491;100 mA
8.02627197973561;0.399810791015625;0.00258148193359375;4.90999998760344;492;100 mA
8.03627197971036;0.399749755859375;0.0025390625;4.91999998757819;493;100 mA
8.04627197968512;0.399749755859375;0.00254302978515625;4.92999998755295;494;100 mA
8.05627197965987;0.399810791015625;0.002587890625;4.9399999875277;495;100 mA
8.06627197963462;0.39971923828125;0.0025677490234375;4.94999998750245;496;100 mA
8.07627197960937;0.399810791015625;0.00255859375;4.9599999874772;497;100 mA
8.08627197958413;0.399749755859375;0.0025927734375;4.96999998745196;498;100 mA
8.09627197955888;0.399749755859375;0.00256622314453125;4.97999998742671;499;100 mA
8.10627197953363;0.399749755859375;0.002559814453125;4.98999998740146;500;100 mA
8.11627197950838;0.3997802734375;0.0025897216796875;4.99999998737621;501;100 mA
8.12627197948314;0.399749755859375;0.0025286865234375;5.00999998735097;502;100 mA
8.13627197945789;0.399810791015625;0.00251983642578125;5.01999998732572;503;100 mA
8.14627197943264;0.399749755859375;0.0025653076171875;5.02999998730047;504;100 mA
8.15627197940739;0.3997802734375;0.00254486083984375;5.03999998727522;505;100 mA
8.16627197938215;0.399810791015625;0.00253936767578125;5.04999998724998;506;100 mA
8.1762719793569;0.399749755859375;0.002572021484375;5.05999998722473;507;100 mA
8.18627197933165;0.399749755859375;0.00252288818359375;5.06999998719948;508;100 mA
8.1962719793064;0.39971923828125;0.0025238037109375;5.07999998717423;509;100 mA
8.20627197928115;0.399749755859375;0.00256317138671875;5.08999998714899;510;100 mA
8.21627197925591;0.399749755859375;0.00252777099609375;5.09999998712374;511;100 mA
8.22627197923066;0.39971923828125;0.00252471923828125;5.10999998709849;512;100 mA
8.23627197920541;0.399749755859375;0.00257080078125;5.11999998707324;513;100 mA
8.24627197918016;0.39971923828125;0.00254730224609375;5.129999987048;514;100 mA
8.25627197915492;0.399749755859375;0.00254608154296875;5.13999998702275;515;100 mA
8.26627197912967;0.39971923828125;0.002568359375;5.1499999869975;516;100 mA
8.27627197910442;0.399688720703125;0.00251190185546875;5.15999998697225;517;100 mA
8.28627197907917;0.399749755859375;0.0025177001953125;5.169999986947;518;100 mA
8.29627197905393;0.39971923828125;0.00254974365234375;5.17999998692176;519;100 mA
8.30627197902868;0.399749755859375;0.00251953125;5.18999998689651;520;100 mA
8.31627197900343;0.399749755859375;0.0025244140625;5.19999998687126;521;100 mA
8.32627197897818;0.39984130859375;0.0025555419921875;5.20999998684601;522;100 mA
8.33627197895294;0.3997802734375;0.00249481201171875;5.21999998682077;523;100 mA
8.34627197892769;0.3997802734375;0.002503662109375;5.22999998679552;524;100 mA
8.35627197890244;0.399810791015625;0.002545166015625;5.23999998677027;525;100 mA
8.36627197887719;0.399688720703125;0.00252838134765625;5.24999998674502;526;100 mA
8.37627197885195;0.399749755859375;0.00252532958984375;5.25999998671978;527;100 mA
8.3862719788267;0.399749755859375;0.0025433349609375;5.26999998669453;528;100 mA
8.39627197880145;0.39971923828125;0.00249908447265625;5.27999998666928;529;100 mA
8.4062719787762;0.3997802734375;0.0024945068359375;5.28999998664403;530;100 mA
8.41627197875096;0.399810791015625;0.0025323486328125;5.29999998661879;531;100 mA
8.42627197872571;0.399749755859375;0.00247283935546875;5.30999998659354;532;100 mA
8.43627197870046;0.399688720703125;0.0024908447265625;5.31999998656829;533;100 mA
8.44627197867521;0.399749755859375;0.00253173828125;5.32999998654304;534;100 mA
8.45627197864997;0.399810791015625;0.00253753662109375;5.3399999865178;535;100 mA
8.46627197862472;0.399688720703125;0.0025274658203125;5.34999998649255;536;100 mA
8.47627197859947;0.399749755859375;0.0025738525390625;5.3599999864673;537;100 mA
8.48627197857422;0.39971923828125;0.00249725341796875;5.36999998644205;538;100 mA
8.49627197854898;0.399749755859375;0.0024945068359375;5.37999998641681;539;100 mA
8.50627197852373;0.399749755859375;0.0025201416015625;5.38999998639156;540;100 mA
8.51627197849848;0.3997802734375;0.0024468994140625;5.39999998636631;541;100 mA
8.52627197847323;0.3997802734375;0.00243927001953125;5.40999998634106;542;100 mA
8.53627197844799;0.3997802734375;0.002490234375;5.41999998631582;543;100 mA
8.54627197842274;0.39971923828125;0.00246368408203125;5.42999998629057;544;100 mA
8.55627197839749;0.39971923828125;0.00245330810546875;5.43999998626532;545;100 mA
8.56627197837224;0.399749755859375;0.00249786376953125;5.44999998624007;546;100 mA
8.57627197834699;0.39971923828125;0.002467041015625;5.45999998621483;547;100 mA
8.58627197832175;0.399749755859375;0.002479248046875;5.46999998618958;548;100 mA
8.5962719782965;0.3997802734375;0.00252288818359375;5.47999998616433;549;100 mA
8.60627197827125;0.39971923828125;0.0025030517578125;5.48999998613908;550;100 mA
8.616271978246;0.3997802734375;0.002496337890625;5.49999998611383;551;100 mA
8.62627197822076;0.399810791015625;0.00254150390625;5.50999998608859;552;100 mA
8.63627197819551;0.39971923828125;0.0025103759765625;5.51999998606334;553;100 mA
8.64627197817026;0.399749755859375;0.00252655029296875;5.52999998603809;554;100 mA
8.65627197814501;0.399871826171875;0.00255340576171875;5.53999998601284;555;100 mA
8.66627197811977;0.399749755859375;0.0025250244140625;5.5499999859876;556;100 mA
8.67627197809452;0.3997802734375;0.0024847412109375;5.55999998596235;557;100 mA
8.68627197806927;0.399810791015625;0.00252105712890625;5.5699999859371;558;100 mA
8.69627197804402;0.399749755859375;0.00251251220703125;5.57999998591185;559;100 mA
8.70627197801878;0.399749755859375;0.00250732421875;5.58999998588661;560;100 mA
8.71627197799353;0.399810791015625;0.00255523681640625;5.59999998586136;561;100 mA
8.72627197796828;0.39971923828125;0.0025286865234375;5.60999998583611;562;100 mA
8.73627197794303;0.3997802734375;0.00253082275390625;5.61999998581086;563;100 mA
8.74627197791779;0.3997802734375;0.00257415771484375;5.62999998578562;564;100 mA
8.75627197789254;0.3997802734375;0.00254302978515625;5.63999998576037;565;100 mA
8.76627197786729;0.3997802734375;0.00254913330078125;5.64999998573512;566;100 mA
8.77627197784204;0.3997802734375;0.00257049560546875;5.65999998570987;567;100 mA
8.7862719778168;0.399749755859375;0.00252227783203125;5.66999998568463;568;100 mA
8.79627197779155;0.3997802734375;0.00252471923828125;5.67999998565938;569;100 mA
8.8062719777663;0.399749755859375;0.00256805419921875;5.68999998563413;570;100 mA
8.81627197774105;0.3997802734375;0.0025091552734375;5.69999998560888;571;100 mA
8.82627197771581;0.399749755859375;0.0024981689453125;5.70999998558364;572;100 mA
8.83627197769056;0.399749755859375;0.002537841796875;5.71999998555839;573;100 mA
8.84627197766531;0.39984130859375;0.0025396728515625;5.72999998553314;574;100 mA
8.85627197764006;0.3997802734375;0.00251373291015625;5.73999998550789;575;100 mA
8.86627197761482;0.3997802734375;0.002559814453125;5.74999998548265;576;100 mA
8.87627197758957;0.399749755859375;0.0025152587890625;5.7599999854574;577;100 mA
8.88627197756432;0.399749755859375;0.00250579833984375;5.76999998543215;578;100 mA
8.89627197753907;0.399749755859375;0.00254669189453125;5.7799999854069;579;100 mA
8.90627197751382;0.39971923828125;0.0025091552734375;5.78999998538166;580;100 mA
8.91627197748858;0.3997802734375;0.00251495361328125;5.79999998535641;581;100 mA
8.92627197746333;0.399749755859375;0.00253753662109375;5.80999998533116;582;100 mA
8.93627197743808;0.399749755859375;0.00251129150390625;5.81999998530591;583;100 mA
8.94627197741283;0.399749755859375;0.00251861572265625;5.82999998528066;584;100 mA
8.95627197738759;0.399749755859375;0.002562255859375;5.83999998525542;585;100 mA
8.96627197736234;0.39971923828125;0.0025225830078125;5.84999998523017;586;100 mA
8.97627197733709;0.39984130859375;0.00251068115234375;5.85999998520492;587;100 mA
8.98627197731184;0.399749755859375;0.002548828125;5.86999998517967;588;100 mA
8.9962719772866;0.399749755859375;0.00255401611328125;5.87999998515443;589;100 mA
9.00627197726135;0.39971923828125;0.0025335693359375;5.88999998512918;590;100 mA
9.0162719772361;0.399810791015625;0.00256805419921875;5.89999998510393;591;100 mA
9.02627197721085;0.39971923828125;0.002548828125;5.90999998507868;592;100 mA
9.03627197718561;0.39971923828125;0.0025238037109375;5.91999998505344;593;100 mA
9.04627197716036;0.39971923828125;0.00255889892578125;5.92999998502819;594;100 mA
9.05627197713511;0.3997802734375;0.0024920654296875;5.93999998500294;595;100 mA
9.06627197710986;0.3997802734375;0.00249603271484375;5.94999998497769;596;100 mA
9.07627197708462;0.399810791015625;0.00254486083984375;5.95999998495245;597;100 mA
9.08627197705937;0.3997802734375;0.00251800537109375;5.9699999849272;598;100 mA
9.09627197703412;0.399688720703125;0.00251312255859375;5.97999998490195;599;100 mA
9.10627197700887;0.3997802734375;0.00254486083984375;5.9899999848767;600;100 mA
9.11627197698363;0.399749755859375;0.00250732421875;5.99999998485146;601;100 mA
9.12627197695838;0.399749755859375;0.00252593994140625;6.00999998482621;602;100 mA
9.13627197693313;0.3997802734375;0.00255279541015625;6.01999998480096;603;100 mA
9.14627197690788;0.399749755859375;0.00255767822265625;6.02999998477571;604;100 mA
9.15627197688264;0.3997802734375;0.00253814697265625;6.03999998475047;605;100 mA
9.16627197685739;0.399871826171875;0.00256134033203125;6.04999998472522;606;100 mA
9.17627197683214;0.39971923828125;0.0025201416015625;6.05999998469997;607;100 mA
9.18627197680689;0.3997802734375;0.00250335693359375;6.06999998467472;608;100 mA
9.19627197678165;0.3997802734375;0.0025421142578125;6.07999998464948;609;100 mA
9.2062719767564;0.39971923828125;0.0025030517578125;6.08999998462423;610;100 mA
9.21627197673115;0.3997802734375;0.00250457763671875;6.09999998459898;611;100 mA
9.2262719767059;0.399810791015625;0.002540283203125;6.10999998457373;612;100 mA
9.23627197668065;0.3997802734375;0.00252044677734375;6.11999998454849;613;100 mA
9.24627197665541;0.399749755859375;0.00252655029296875;6.12999998452324;614;100 mA
9.25627197663016;0.399749755859375;0.00255859375;6.13999998449799;615;100 mA
9.26627197660491;0.3997802734375;0.00252685546875;6.14999998447274;616;100 mA
9.27627197657966;0.399749755859375;0.002520751953125;6.1599999844475;617;100 mA
9.28627197655442;0.399749755859375;0.00255096435546875;6.16999998442225;618;100 mA
9.29627197652917;0.39984130859375;0.002535400390625;6.179999984397;619;100 mA
9.30627197650392;0.399749755859375;0.00251708984375;6.18999998437175;620;100 mA
9.31627197647867;0.399810791015625;0.00257354736328125;6.1999999843465;621;100 mA
9.32627197645343;0.3997802734375;0.00256988525390625;6.20999998432126;622;100 mA
9.33627197642818;0.399688720703125;0.00254058837890625;6.21999998429601;623;100 mA
9.34627197640293;0.3997802734375;0.0025811767578125;6.22999998427076;624;100 mA
9.35627197637768;0.399810791015625;0.00253753662109375;6.23999998424551;625;100 mA
9.36627197635244;0.399810791015625;0.00253143310546875;6.24999998422027;626;100 mA
9.37627197632719;0.399749755859375;0.00258575439453125;6.25999998419502;627;100 mA
9.38627197630194;0.399749755859375;0.00256988525390625;6.26999998416977;628;100 mA
9.39627197627669;0.399810791015625;0.002562255859375;6.27999998414452;629;100 mA
9.40627197625145;0.3997802734375;0.0025994873046875;6.28999998411928;630;100 mA
9.4162719762262;0.3997802734375;0.00254425048828125;6.29999998409403;631;100 mA
9.42627197620095;0.399749755859375;0.00254547119140625;6.30999998406878;632;100 mA
9.4362719761757;0.399810791015625;0.00257965087890625;6.31999998404353;633;100 mA
9.44627197615046;0.399749755859375;0.00255340576171875;6.32999998401829;634;100 mA
9.45627197612521;0.39971923828125;0.0025506591796875;6.33999998399304;635;100 mA
9.46627197609996;0.399749755859375;0.00259918212890625;6.34999998396779;636;100 mA
9.47627197607471;0.399749755859375;0.0025830078125;6.35999998394254;637;100 mA
9.48627197604947;0.3997802734375;0.0025421142578125;6.3699999839173;638;100 mA
9.49627197602422;0.39984130859375;0.002579345703125;6.37999998389205;639;100 mA
9.50627197599897;0.399688720703125;0.0025238037109375;6.3899999838668;640;100 mA
9.51627197597372;0.399749755859375;0.0025030517578125;6.39999998384155;641;100 mA
9.52627197594848;0.3997802734375;0.00253082275390625;6.40999998381631;642;100 mA
9.53627197592323;0.399810791015625;0.00250152587890625;6.41999998379106;643;100 mA
9.54627197589798;0.3997802734375;0.0025;6.42999998376581;644;100 mA
9.55627197587273;0.399749755859375;0.00254486083984375;6.43999998374056;645;100 mA
9.56627197584749;0.39971923828125;0.002518310546875;6.44999998371532;646;100 mA
9.57627197582224;0.39971923828125;0.0025189208984375;6.45999998369007;647;100 mA
9.58627197579699;0.3997802734375;0.00256103515625;6.46999998366482;648;100 mA
9.59627197577174;0.3997802734375;0.00254791259765625;6.47999998363957;649;100 mA
9.60627197574649;0.399810791015625;0.0025982666015625;6.48999998361433;650;100 mA
9.61627197572125;0.399810791015625;0.0025830078125;6.49999998358908;651;100 mA
9.626271975696;0.3997802734375;0.0025775146484375;6.50999998356383;652;100 mA
9.63627197567075;0.39971923828125;0.0025732421875;6.51999998353858;653;100 mA
9.6462719756455;0.399749755859375;0.00258636474609375;6.52999998351333;654;100 mA
9.65627197562026;0.3997802734375;0.00252288818359375;6.53999998348809;655;100 mA
9.66627197559501;0.3997802734375;0.00251922607421875;6.54999998346284;656;100 mA
9.67627197556976;0.399749755859375;0.0025787353515625;6.55999998343759;657;100 mA
9.68627197554451;0.399749755859375;0.00256500244140625;6.56999998341234;658;100 mA
9.69627197551927;0.399749755859375;0.00252288818359375;6.5799999833871;659;100 mA
9.70627197549402;0.3997802734375;0.00257293701171875;6.58999998336185;660;100 mA
9.71627197546877;0.39971923828125;0.0025506591796875;6.5999999833366;661;100 mA
9.72627197544352;0.399749755859375;0.00256134033203125;6.60999998331135;662;100 mA
9.73627197541828;0.39984130859375;0.0025604248046875;6.61999998328611;663;100 mA
9.74627197539303;0.3997802734375;0.00250244140625;6.62999998326086;664;100 mA
9.75627197536778;0.399749755859375;0.00249176025390625;6.63999998323561;665;100 mA
9.76627197534253;0.39984130859375;0.0025439453125;6.64999998321036;666;100 mA
9.77627197531729;0.399749755859375;0.00255462646484375;6.65999998318512;667;100 mA
9.78627197529204;0.3997802734375;0.00253753662109375;6.66999998315987;668;100 mA
9.79627197526679;0.39971923828125;0.002576904296875;6.67999998313462;669;100 mA
9.80627197524154;0.399749755859375;0.002557373046875;6.68999998310937;670;100 mA
9.8162719752163;0.399749755859375;0.00255340576171875;6.69999998308413;671;100 mA
9.82627197519105;0.39971923828125;0.00259246826171875;6.70999998305888;672;100 mA
9.8362719751658;0.3997802734375;0.0025604248046875;6.71999998303363;673;100 mA
9.84627197514055;0.3997802734375;0.002545166015625;6.72999998300838;674;100 mA
9.85627197511531;0.399749755859375;0.00258636474609375;6.73999998298314;675;100 mA
9.86627197509006;0.399749755859375;0.0025714111328125;6.74999998295789;676;100 mA
9.87627197506481;0.399810791015625;0.0025567626953125;6.75999998293264;677;100 mA
9.88627197503956;0.3997802734375;0.00258819580078125;6.76999998290739;678;100 mA
9.89627197501432;0.399810791015625;0.0025213623046875;6.77999998288215;679;100 mA
9.90627197498907;0.3997802734375;0.00252410888671875;6.7899999828569;680;100 mA
9.91627197496382;0.399749755859375;0.00255615234375;6.79999998283165;681;100 mA
9.92627197493857;0.39971923828125;0.002554931640625;6.8099999828064;682;100 mA
9.93627197491332;0.39971923828125;0.0025396728515625;6.81999998278116;683;100 mA
9.94627197488808;0.3997802734375;0.00257537841796875;6.82999998275591;684;100 mA
9.95627197486283;0.399810791015625;0.00254547119140625;6.83999998273066;685;100 mA
9.96627197483758;0.399688720703125;0.00252349853515625;6.84999998270541;686;100 mA
9.97627197481233;0.3997802734375;0.002557373046875;6.85999998268016;687;100 mA
9.98627197478709;0.3997802734375;0.0025152587890625;6.86999998265492;688;100 mA
9.99627197476184;0.3997802734375;0.00250213623046875;6.87999998262967;689;100 mA
10.0062719747366;0.399810791015625;0.0025531005859375;6.88999998260442;690;100 mA
10.0162719747113;0.399749755859375;0.002552490234375;6.89999998257917;691;100 mA
10.0262719746861;0.399749755859375;0.00250274658203125;6.90999998255393;692;100 mA
10.0362719746608;0.399871826171875;0.0025262451171875;6.91999998252868;693;100 mA
10.0462719746356;0.39971923828125;0.0025042724609375;6.92999998250343;694;100 mA
10.0562719746104;0.399810791015625;0.00250274658203125;6.93999998247818;695;100 mA
10.0662719745851;0.399749755859375;0.002532958984375;6.94999998245294;696;100 mA
10.0762719745599;0.3997802734375;0.002513427734375;6.95999998242769;697;100 mA
10.0862719745346;0.399810791015625;0.002510986328125;6.96999998240244;698;100 mA
10.0962719745094;0.3997802734375;0.00254425048828125;6.97999998237719;699;100 mA
10.1062719744841;0.39971923828125;0.00251861572265625;6.98999998235195;700;100 mA
