Time (s);WE(1).Potential (V);WE(1).Current (A);Corrected time (s);Index;Current range
10.6564189730951;0.299835205078125;0.00160247802734375;0;1;100 mA
10.6664189730699;0.29986572265625;0.0017767333984375;0.00999999997475243;2;100 mA
10.6764189730446;0.2998046875;0.0018768310546875;0.0199999999495049;3;100 mA
10.6864189730194;0.29986572265625;0.00198883056640625;0.0299999999242573;4;100 mA
10.6964189729941;0.2998046875;0.0020025634765625;0.0399999998990097;5;100 mA
10.7064189729689;0.29986572265625;0.00200714111328125;0.0499999998737621;6;100 mA
10.7164189729436;0.299835205078125;0.002078857421875;0.0599999998485146;7;100 mA
10.7264189729184;0.299835205078125;0.0020843505859375;0.069999999823267;8;100 mA
10.7364189728931;0.2998046875;0.00208404541015625;0.0799999997980194;9;100 mA
10.7464189728679;0.29986572265625;0.00213226318359375;0.0899999997727718;10;100 mA
10.7564189728427;0.299774169921875;0.00211456298828125;0.0999999997475243;11;100 mA
10.7664189728174;0.299835205078125;0.00210784912109375;0.109999999722277;12;100 mA
10.7764189727922;0.299835205078125;0.00215545654296875;0.119999999697029;13;100 mA
10.7864189727669;0.299835205078125;0.00215850830078125;0.129999999671782;14;100 mA
10.7964189727417;0.2999267578125;0.0021392822265625;0.139999999646534;15;100 mA
10.8064189727164;0.29986572265625;0.00218017578125;0.149999999621286;16;100 mA
10.8164189726912;0.299835205078125;0.00214111328125;0.159999999596039;17;100 mA
10.8264189726659;0.29986572265625;0.00213409423828125;0.169999999570791;18;100 mA
10.8364189726407;0.2998046875;0.00218017578125;0.179999999545544;19;100 mA
10.8464189726154;0.29986572265625;0.002158203125;0.189999999520296;20;100 mA
10.8564189725902;0.299896240234375;0.0021466064453125;0.199999999495049;21;100 mA
10.8664189725649;0.29986572265625;0.00220855712890625;0.209999999469801;22;100 mA
10.8764189725397;0.299896240234375;0.0022247314453125;0.219999999444553;23;100 mA
10.8864189725144;0.2998046875;0.0022161865234375;0.229999999419306;24;100 mA
10.8964189724892;0.29986572265625;0.00224365234375;0.239999999394058;25;100 mA
10.9064189724639;0.299835205078125;0.00221954345703125;0.249999999368811;26;100 mA
10.9164189724387;0.29986572265625;0.00219940185546875;0.259999999343563;27;100 mA
10.9264189724134;0.29986572265625;0.00222869873046875;0.269999999318316;28;100 mA
10.9364189723882;0.299835205078125;0.002208251953125;0.279999999293068;29;100 mA
10.9464189723629;0.29986572265625;0.0021966552734375;0.28999999926782;30;100 mA
10.9564189723377;0.29986572265625;0.00224090576171875;0.299999999242573;31;100 mA
10.9664189723125;0.299835205078125;0.00220977783203125;0.309999999217325;32;100 mA
10.9764189722872;0.2998046875;0.0021923828125;0.319999999192078;33;100 mA
10.986418972262;0.299896240234375;0.002230224609375;0.32999999916683;34;100 mA
10.9964189722367;0.299835205078125;0.0022076416015625;0.339999999141583;35;100 mA
11.0064189722115;0.29986572265625;0.00219268798828125;0.349999999116335;36;100 mA
11.0164189721862;0.29986572265625;0.0022357177734375;0.359999999091087;37;100 mA
11.026418972161;0.299835205078125;0.0022100830078125;0.36999999906584;38;100 mA
11.0364189721357;0.29986572265625;0.00217437744140625;0.379999999040592;39;100 mA
11.0464189721105;0.299896240234375;0.00220550537109375;0.389999999015345;40;100 mA
11.0564189720852;0.2998046875;0.00216400146484375;0.399999998990097;41;100 mA
11.06641897206;0.299835205078125;0.00217010498046875;0.40999999896485;42;100 mA
11.0764189720347;0.299896240234375;0.0022064208984375;0.419999998939602;43;100 mA
11.0864189720095;0.29986572265625;0.0021905517578125;0.429999998914354;44;100 mA
11.0964189719842;0.29986572265625;0.00217620849609375;0.439999998889107;45;100 mA
11.106418971959;0.29986572265625;0.002230224609375;0.449999998863859;46;100 mA
11.1164189719337;0.299835205078125;0.00220489501953125;0.459999998838612;47;100 mA
11.1264189719085;0.2999267578125;0.002188720703125;0.469999998813364;48;100 mA
11.1364189718832;0.299835205078125;0.00222564697265625;0.479999998788116;49;100 mA
11.146418971858;0.299835205078125;0.002200927734375;0.489999998762869;50;100 mA
11.1564189718327;0.2999267578125;0.002196044921875;0.499999998737621;51;100 mA
11.1664189718075;0.299835205078125;0.00222198486328125;0.509999998712374;52;100 mA
11.1764189717823;0.29986572265625;0.00219879150390625;0.519999998687126;53;100 mA
11.186418971757;0.299896240234375;0.00218017578125;0.529999998661879;54;100 mA
11.1964189717318;0.299835205078125;0.0022332763671875;0.539999998636631;55;100 mA
11.2064189717065;0.299896240234375;0.0022100830078125;0.549999998611383;56;100 mA
11.2164189716813;0.29986572265625;0.0021966552734375;0.559999998586136;57;100 mA
11.226418971656;0.299896240234375;0.00223114013671875;0.569999998560888;58;100 mA
11.2364189716308;0.29986572265625;0.0022235107421875;0.579999998535641;59;100 mA
11.2464189716055;0.29986572265625;0.002196044921875;0.589999998510393;60;100 mA
11.2564189715803;0.29986572265625;0.00224609375;0.599999998485146;61;100 mA
11.266418971555;0.29986572265625;0.00221771240234375;0.609999998459898;62;100 mA
11.2764189715298;0.29986572265625;0.0021942138671875;0.61999999843465;63;100 mA
11.2864189715045;0.299957275390625;0.0022509765625;0.629999998409403;64;100 mA
11.2964189714793;0.29986572265625;0.00222503662109375;0.639999998384155;65;100 mA
11.306418971454;0.29986572265625;0.0022015380859375;0.649999998358908;66;100 mA
11.3164189714288;0.299835205078125;0.0022381591796875;0.65999999833366;67;100 mA
11.3264189714035;0.299835205078125;0.0022381591796875;0.669999998308413;68;100 mA
11.3364189713783;0.29986572265625;0.00220367431640625;0.679999998283165;69;100 mA
11.346418971353;0.29986572265625;0.00223388671875;0.689999998257917;70;100 mA
11.3564189713278;0.29986572265625;0.0022161865234375;0.69999999823267;71;100 mA
11.3664189713026;0.29986572265625;0.00221282958984375;0.709999998207422;72;100 mA
11.3764189712773;0.299835205078125;0.00224517822265625;0.719999998182175;73;100 mA
11.3864189712521;0.299896240234375;0.00222686767578125;0.729999998156927;74;100 mA
11.3964189712268;0.299835205078125;0.0022113037109375;0.73999999813168;75;100 mA
11.4064189712016;0.299896240234375;0.00224945068359375;0.749999998106432;76;100 mA
11.4164189711763;0.2999267578125;0.00224365234375;0.759999998081184;77;100 mA
11.4264189711511;0.299896240234375;0.00222625732421875;0.769999998055937;78;100 mA
11.4364189711258;0.299835205078125;0.0022467041015625;0.779999998030689;79;100 mA
11.4464189711006;0.29986572265625;0.00222076416015625;0.789999998005442;80;100 mA
11.4564189710753;0.29986572265625;0.00221527099609375;0.799999997980194;81;100 mA
11.4664189710501;0.299835205078125;0.00223663330078125;0.809999997954947;82;100 mA
11.4764189710248;0.2998046875;0.00222869873046875;0.819999997929699;83;100 mA
11.4864189709996;0.299835205078125;0.00220306396484375;0.829999997904451;84;100 mA
11.4964189709743;0.299896240234375;0.0022320556640625;0.839999997879204;85;100 mA
11.5064189709491;0.299835205078125;0.00221160888671875;0.849999997853956;86;100 mA
11.5164189709238;0.2998046875;0.0022021484375;0.859999997828709;87;100 mA
11.5264189708986;0.299835205078125;0.0022393798828125;0.869999997803461;88;100 mA
11.5364189708733;0.299896240234375;0.002213134765625;0.879999997778214;89;100 mA
11.5464189708481;0.299896240234375;0.00218658447265625;0.889999997752966;90;100 mA
11.5564189708228;0.2998046875;0.00222930908203125;0.899999997727718;91;100 mA
11.5664189707976;0.2998046875;0.00222625732421875;0.909999997702471;92;100 mA
11.5764189707724;0.29986572265625;0.00221771240234375;0.919999997677223;93;100 mA
11.5864189707471;0.29986572265625;0.00227874755859375;0.929999997651976;94;100 mA
11.5964189707219;0.299835205078125;0.00222381591796875;0.939999997626728;95;100 mA
11.6064189706966;0.29986572265625;0.00220977783203125;0.949999997601481;96;100 mA
11.6164189706714;0.299896240234375;0.00223602294921875;0.959999997576233;97;100 mA
11.6264189706461;0.299835205078125;0.0022381591796875;0.969999997550985;98;100 mA
11.6364189706209;0.299774169921875;0.00222808837890625;0.979999997525738;99;100 mA
11.6464189705956;0.299835205078125;0.00226593017578125;0.98999999750049;100;100 mA
11.6564189705704;0.29986572265625;0.002230224609375;0.999999997475243;101;100 mA
11.6664189705451;0.29986572265625;0.00219757080078125;1.00999999745;102;100 mA
11.6764189705199;0.299835205078125;0.0022271728515625;1.01999999742475;103;100 mA
11.6864189704946;0.299835205078125;0.0021929931640625;1.0299999973995;104;100 mA
11.6964189704694;0.29986572265625;0.00218902587890625;1.03999999737425;105;100 mA
11.7064189704441;0.2999267578125;0.0022344970703125;1.049999997349;106;100 mA
11.7164189704189;0.29986572265625;0.0022210693359375;1.05999999732376;107;100 mA
11.7264189703936;0.299835205078125;0.00221038818359375;1.06999999729851;108;100 mA
11.7364189703684;0.29986572265625;0.0022467041015625;1.07999999727326;109;100 mA
11.7464189703431;0.299835205078125;0.00221099853515625;1.08999999724801;110;100 mA
11.7564189703179;0.299835205078125;0.002196044921875;1.09999999722277;111;100 mA
11.7664189702926;0.299835205078125;0.002237548828125;1.10999999719752;112;100 mA
11.7764189702674;0.299896240234375;0.00221466064453125;1.11999999717227;113;100 mA
11.7864189702422;0.29986572265625;0.00219970703125;1.12999999714702;114;100 mA
11.7964189702169;0.2999267578125;0.0022418212890625;1.13999999712178;115;100 mA
11.8064189701917;0.299835205078125;0.00224945068359375;1.14999999709653;116;100 mA
11.8164189701664;0.29986572265625;0.002225341796875;1.15999999707128;117;100 mA
11.8264189701412;0.299835205078125;0.00226226806640625;1.16999999704603;118;100 mA
11.8364189701159;0.299896240234375;0.00221405029296875;1.17999999702079;119;100 mA
11.8464189700907;0.29986572265625;0.00219390869140625;1.18999999699554;120;100 mA
11.8564189700654;0.299835205078125;0.00223724365234375;1.19999999697029;121;100 mA
11.8664189700402;0.299835205078125;0.002227783203125;1.20999999694504;122;100 mA
11.8764189700149;0.299835205078125;0.00221099853515625;1.2199999969198;123;100 mA
11.8864189699897;0.299835205078125;0.00224700927734375;1.22999999689455;124;100 mA
11.8964189699644;0.299835205078125;0.00221771240234375;1.2399999968693;125;100 mA
11.9064189699392;0.2998046875;0.00221923828125;1.24999999684405;126;100 mA
11.9164189699139;0.29986572265625;0.00226409912109375;1.25999999681881;127;100 mA
11.9264189698887;0.299835205078125;0.0022320556640625;1.26999999679356;128;100 mA
11.9364189698634;0.29986572265625;0.0022296142578125;1.27999999676831;129;100 mA
11.9464189698382;0.299835205078125;0.002264404296875;1.28999999674306;130;100 mA
11.9564189698129;0.299835205078125;0.0022515869140625;1.29999999671782;131;100 mA
11.9664189697877;0.299896240234375;0.00222869873046875;1.30999999669257;132;100 mA
11.9764189697624;0.2999267578125;0.00227325439453125;1.31999999666732;133;100 mA
11.9864189697372;0.2998046875;0.00223663330078125;1.32999999664207;134;100 mA
11.996418969712;0.2998046875;0.0022210693359375;1.33999999661683;135;100 mA
12.0064189696867;0.299957275390625;0.00225555419921875;1.34999999659158;136;100 mA
12.0164189696615;0.299896240234375;0.00222686767578125;1.35999999656633;137;100 mA
12.0264189696362;0.299835205078125;0.00220123291015625;1.36999999654108;138;100 mA
12.036418969611;0.2998046875;0.00223388671875;1.37999999651583;139;100 mA
12.0464189695857;0.29986572265625;0.00220977783203125;1.38999999649059;140;100 mA
12.0564189695605;0.29986572265625;0.002205810546875;1.39999999646534;141;100 mA
12.0664189695352;0.29986572265625;0.00223419189453125;1.40999999644009;142;100 mA
12.07641896951;0.29986572265625;0.0022039794921875;1.41999999641484;143;100 mA
12.0864189694847;0.299774169921875;0.00220489501953125;1.4299999963896;144;100 mA
12.0964189694595;0.299896240234375;0.0022576904296875;1.43999999636435;145;100 mA
12.1064189694342;0.299835205078125;0.00226898193359375;1.4499999963391;146;100 mA
12.116418969409;0.299835205078125;0.00224151611328125;1.45999999631385;147;100 mA
12.1264189693837;0.2998046875;0.00228057861328125;1.46999999628861;148;100 mA
12.1364189693585;0.299835205078125;0.00225128173828125;1.47999999626336;149;100 mA
12.1464189693332;0.2998046875;0.00223602294921875;1.48999999623811;150;100 mA
12.156418969308;0.2998046875;0.00227203369140625;1.49999999621286;151;100 mA
12.1664189692827;0.29986572265625;0.0022271728515625;1.50999999618762;152;100 mA
12.1764189692575;0.299896240234375;0.00219879150390625;1.51999999616237;153;100 mA
12.1864189692322;0.2998046875;0.0022552490234375;1.52999999613712;154;100 mA
12.196418969207;0.299835205078125;0.002232666015625;1.53999999611187;155;100 mA
12.2064189691818;0.299835205078125;0.00220489501953125;1.54999999608663;156;100 mA
12.2164189691565;0.299835205078125;0.00224365234375;1.55999999606138;157;100 mA
12.2264189691313;0.2998046875;0.00220611572265625;1.56999999603613;158;100 mA
12.236418969106;0.29986572265625;0.002198486328125;1.57999999601088;159;100 mA
12.2464189690808;0.299835205078125;0.00224395751953125;1.58999999598564;160;100 mA
12.2564189690555;0.299835205078125;0.00225433349609375;1.59999999596039;161;100 mA
12.2664189690303;0.29986572265625;0.00222747802734375;1.60999999593514;162;100 mA
12.276418969005;0.2998046875;0.0022625732421875;1.61999999590989;163;100 mA
12.2864189689798;0.29986572265625;0.0022479248046875;1.62999999588465;164;100 mA
12.2964189689545;0.29986572265625;0.00222686767578125;1.6399999958594;165;100 mA
12.3064189689293;0.29986572265625;0.00226959228515625;1.64999999583415;166;100 mA
12.316418968904;0.29986572265625;0.00222930908203125;1.6599999958089;167;100 mA
12.3264189688788;0.29986572265625;0.00220733642578125;1.66999999578366;168;100 mA
12.3364189688535;0.29986572265625;0.0022479248046875;1.67999999575841;169;100 mA
12.3464189688283;0.2998046875;0.00223785400390625;1.68999999573316;170;100 mA
12.356418968803;0.299835205078125;0.00222320556640625;1.69999999570791;171;100 mA
12.3664189687778;0.299835205078125;0.0022705078125;1.70999999568267;172;100 mA
12.3764189687525;0.299896240234375;0.002239990234375;1.71999999565742;173;100 mA
12.3864189687273;0.29986572265625;0.002230224609375;1.72999999563217;174;100 mA
12.3964189687021;0.29986572265625;0.00225677490234375;1.73999999560692;175;100 mA
12.4064189686768;0.299896240234375;0.00223541259765625;1.74999999558167;176;100 mA
12.4164189686516;0.2998046875;0.00221038818359375;1.75999999555643;177;100 mA
12.4264189686263;0.299835205078125;0.002252197265625;1.76999999553118;178;100 mA
12.4364189686011;0.2998046875;0.00224090576171875;1.77999999550593;179;100 mA
12.4464189685758;0.29986572265625;0.0022344970703125;1.78999999548068;180;100 mA
12.4564189685506;0.299835205078125;0.0022625732421875;1.79999999545544;181;100 mA
12.4664189685253;0.29986572265625;0.00221893310546875;1.80999999543019;182;100 mA
12.4764189685001;0.299896240234375;0.00219757080078125;1.81999999540494;183;100 mA
12.4864189684748;0.299835205078125;0.002227783203125;1.82999999537969;184;100 mA
12.4964189684496;0.299835205078125;0.00221527099609375;1.83999999535445;185;100 mA
12.5064189684243;0.29986572265625;0.00218658447265625;1.8499999953292;186;100 mA
12.5164189683991;0.29986572265625;0.00222900390625;1.85999999530395;187;100 mA
12.5264189683738;0.29986572265625;0.00219696044921875;1.8699999952787;188;100 mA
12.5364189683486;0.29986572265625;0.002186279296875;1.87999999525346;189;100 mA
12.5464189683233;0.29986572265625;0.00223663330078125;1.88999999522821;190;100 mA
12.5564189682981;0.29986572265625;0.00221435546875;1.89999999520296;191;100 mA
12.5664189682728;0.299835205078125;0.0021881103515625;1.90999999517771;192;100 mA
12.5764189682476;0.299774169921875;0.00223297119140625;1.91999999515247;193;100 mA
12.5864189682223;0.29986572265625;0.0022296142578125;1.92999999512722;194;100 mA
12.5964189681971;0.29986572265625;0.00221649169921875;1.93999999510197;195;100 mA
12.6064189681719;0.299835205078125;0.0022564697265625;1.94999999507672;196;100 mA
12.6164189681466;0.299835205078125;0.00220458984375;1.95999999505148;197;100 mA
12.6264189681214;0.299835205078125;0.0022021484375;1.96999999502623;198;100 mA
12.6364189680961;0.29986572265625;0.00225921630859375;1.97999999500098;199;100 mA
12.6464189680709;0.29986572265625;0.00223785400390625;1.98999999497573;200;100 mA
12.6564189680456;0.299835205078125;0.00221923828125;1.99999999495049;201;100 mA
12.6664189680204;0.299896240234375;0.00227142333984375;2.00999999492524;202;100 mA
12.6764189679951;0.2998046875;0.00224853515625;2.01999999489999;203;100 mA
12.6864189679699;0.299896240234375;0.0022296142578125;2.02999999487474;204;100 mA
12.6964189679446;0.299896240234375;0.002271728515625;2.0399999948495;205;100 mA
12.7064189679194;0.299835205078125;0.002232666015625;2.04999999482425;206;100 mA
12.7164189678941;0.299896240234375;0.0022137451171875;2.059999994799;207;100 mA
12.7264189678689;0.29986572265625;0.0022625732421875;2.06999999477375;208;100 mA
12.7364189678436;0.299835205078125;0.0022662353515625;2.0799999947485;209;100 mA
12.7464189678184;0.299835205078125;0.00223236083984375;2.08999999472326;210;100 mA
12.7564189677931;0.2998046875;0.0022772216796875;2.09999999469801;211;100 mA
12.7664189677679;0.29986572265625;0.0022418212890625;2.10999999467276;212;100 mA
12.7764189677426;0.299896240234375;0.002225341796875;2.11999999464751;213;100 mA
12.7864189677174;0.2998046875;0.00226043701171875;2.12999999462227;214;100 mA
12.7964189676921;0.29986572265625;0.00225433349609375;2.13999999459702;215;100 mA
12.8064189676669;0.299896240234375;0.0022320556640625;2.14999999457177;216;100 mA
12.8164189676417;0.299774169921875;0.0022607421875;2.15999999454652;217;100 mA
12.8264189676164;0.29986572265625;0.00222320556640625;2.16999999452128;218;100 mA
12.8364189675912;0.29986572265625;0.0022125244140625;2.17999999449603;219;100 mA
12.8464189675659;0.299835205078125;0.00226287841796875;2.18999999447078;220;100 mA
12.8564189675407;0.299835205078125;0.00222259521484375;2.19999999444553;221;100 mA
12.8664189675154;0.2998046875;0.00219970703125;2.20999999442029;222;100 mA
12.8764189674902;0.29986572265625;0.00224517822265625;2.21999999439504;223;100 mA
12.8864189674649;0.29986572265625;0.00224945068359375;2.22999999436979;224;100 mA
12.8964189674397;0.299896240234375;0.00223388671875;2.23999999434454;225;100 mA
12.9064189674144;0.29986572265625;0.00228607177734375;2.2499999943193;226;100 mA
12.9164189673892;0.299896240234375;0.002255859375;2.25999999429405;227;100 mA
12.9264189673639;0.29986572265625;0.00224090576171875;2.2699999942688;228;100 mA
12.9364189673387;0.299896240234375;0.00225616455078125;2.27999999424355;229;100 mA
12.9464189673134;0.2998046875;0.00220062255859375;2.28999999421831;230;100 mA
12.9564189672882;0.29986572265625;0.0021929931640625;2.29999999419306;231;100 mA
12.9664189672629;0.29986572265625;0.002236328125;2.30999999416781;232;100 mA
12.9764189672377;0.299835205078125;0.00220672607421875;2.31999999414256;233;100 mA
12.9864189672124;0.299835205078125;0.00220855712890625;2.32999999411732;234;100 mA
12.9964189671872;0.29986572265625;0.00224578857421875;2.33999999409207;235;100 mA
13.0064189671619;0.299835205078125;0.00220733642578125;2.34999999406682;236;100 mA
13.0164189671367;0.299896240234375;0.002227783203125;2.35999999404157;237;100 mA
13.0264189671115;0.2998046875;0.0022698974609375;2.36999999401633;238;100 mA
13.0364189670862;0.299896240234375;0.00225311279296875;2.37999999399108;239;100 mA
13.046418967061;0.29986572265625;0.002237548828125;2.38999999396583;240;100 mA
13.0564189670357;0.299835205078125;0.00226837158203125;2.39999999394058;241;100 mA
13.0664189670105;0.2998046875;0.00223785400390625;2.40999999391533;242;100 mA
13.0764189669852;0.2998046875;0.0022296142578125;2.41999999389009;243;100 mA
13.08641896696;0.2998046875;0.00227203369140625;2.42999999386484;244;100 mA
13.0964189669347;0.29986572265625;0.002227783203125;2.43999999383959;245;100 mA
13.1064189669095;0.29986572265625;0.0022039794921875;2.44999999381434;246;100 mA
13.1164189668842;0.299835205078125;0.0022454833984375;2.4599999937891;247;100 mA
13.126418966859;0.2998046875;0.00225311279296875;2.46999999376385;248;100 mA
13.1364189668337;0.29986572265625;0.00223602294921875;2.4799999937386;249;100 mA
13.1464189668085;0.299896240234375;0.0022686767578125;2.48999999371335;250;100 mA
13.1564189667832;0.29986572265625;0.00221466064453125;2.49999999368811;251;100 mA
13.166418966758;0.29986572265625;0.00218994140625;2.50999999366286;252;100 mA
13.1764189667327;0.299896240234375;0.0022344970703125;2.51999999363761;253;100 mA
13.1864189667075;0.29986572265625;0.002222900390625;2.52999999361236;254;100 mA
13.1964189666822;0.2999267578125;0.00219757080078125;2.53999999358712;255;100 mA
13.206418966657;0.299896240234375;0.0022601318359375;2.54999999356187;256;100 mA
13.2164189666317;0.299835205078125;0.00222930908203125;2.55999999353662;257;100 mA
13.2264189666065;0.299896240234375;0.00221710205078125;2.56999999351137;258;100 mA
13.2364189665813;0.299835205078125;0.00226409912109375;2.57999999348613;259;100 mA
13.246418966556;0.299835205078125;0.002227783203125;2.58999999346088;260;100 mA
13.2564189665308;0.29986572265625;0.0022265625;2.59999999343563;261;100 mA
13.2664189665055;0.299835205078125;0.002276611328125;2.60999999341038;262;100 mA
13.2764189664803;0.2999267578125;0.00227081298828125;2.61999999338514;263;100 mA
13.286418966455;0.299835205078125;0.002239990234375;2.62999999335989;264;100 mA
13.2964189664298;0.299774169921875;0.00225616455078125;2.63999999333464;265;100 mA
13.3064189664045;0.299896240234375;0.00220703125;2.64999999330939;266;100 mA
13.3164189663793;0.2999267578125;0.00220123291015625;2.65999999328415;267;100 mA
13.326418966354;0.29986572265625;0.0022283935546875;2.6699999932589;268;100 mA
13.3364189663288;0.299835205078125;0.00221710205078125;2.67999999323365;269;100 mA
13.3464189663035;0.29986572265625;0.002197265625;2.6899999932084;270;100 mA
13.3564189662783;0.299896240234375;0.00225250244140625;2.69999999318316;271;100 mA
13.366418966253;0.29986572265625;0.00222625732421875;2.70999999315791;272;100 mA
13.3764189662278;0.29986572265625;0.0022039794921875;2.71999999313266;273;100 mA
13.3864189662025;0.29986572265625;0.00223785400390625;2.72999999310741;274;100 mA
13.3964189661773;0.299835205078125;0.00218719482421875;2.73999999308217;275;100 mA
13.406418966152;0.29986572265625;0.0021820068359375;2.74999999305692;276;100 mA
13.4164189661268;0.29986572265625;0.0022210693359375;2.75999999303167;277;100 mA
13.4264189661016;0.299835205078125;0.0022100830078125;2.76999999300642;278;100 mA
13.4364189660763;0.29986572265625;0.0021954345703125;2.77999999298117;279;100 mA
13.4464189660511;0.29986572265625;0.00223236083984375;2.78999999295593;280;100 mA
13.4564189660258;0.299896240234375;0.0022113037109375;2.79999999293068;281;100 mA
13.4664189660006;0.29986572265625;0.0021990966796875;2.80999999290543;282;100 mA
13.4764189659753;0.29986572265625;0.002236328125;2.81999999288018;283;100 mA
13.4864189659501;0.299896240234375;0.002220458984375;2.82999999285494;284;100 mA
13.4964189659248;0.2999267578125;0.002205810546875;2.83999999282969;285;100 mA
13.5064189658996;0.299835205078125;0.002237548828125;2.84999999280444;286;100 mA
13.5164189658743;0.299835205078125;0.00223358154296875;2.85999999277919;287;100 mA
13.5264189658491;0.299896240234375;0.0022064208984375;2.86999999275395;288;100 mA
13.5364189658238;0.299835205078125;0.002237548828125;2.8799999927287;289;100 mA
13.5464189657986;0.29986572265625;0.00218780517578125;2.88999999270345;290;100 mA
13.5564189657733;0.299774169921875;0.00217559814453125;2.8999999926782;291;100 mA
13.5664189657481;0.299835205078125;0.00222015380859375;2.90999999265296;292;100 mA
13.5764189657228;0.2999267578125;0.00219970703125;2.91999999262771;293;100 mA
13.5864189656976;0.299835205078125;0.00216796875;2.92999999260246;294;100 mA
13.5964189656723;0.299896240234375;0.0021990966796875;2.93999999257721;295;100 mA
13.6064189656471;0.299835205078125;0.0021697998046875;2.94999999255197;296;100 mA
13.6164189656218;0.299896240234375;0.00216766357421875;2.95999999252672;297;100 mA
13.6264189655966;0.29986572265625;0.002186279296875;2.96999999250147;298;100 mA
13.6364189655714;0.299835205078125;0.00214508056640625;2.97999999247622;299;100 mA
13.6464189655461;0.29986572265625;0.00213165283203125;2.98999999245098;300;100 mA
13.6564189655209;0.299835205078125;0.0021875;2.99999999242573;301;100 mA
13.6664189654956;0.2998046875;0.00218475341796875;3.00999999240048;302;100 mA
13.6764189654704;0.29986572265625;0.00218353271484375;3.01999999237523;303;100 mA
13.6864189654451;0.299835205078125;0.00225128173828125;3.02999999234999;304;100 mA
13.6964189654199;0.299835205078125;0.0022039794921875;3.03999999232474;305;100 mA
13.7064189653946;0.2998046875;0.002183837890625;3.04999999229949;306;100 mA
13.7164189653694;0.29986572265625;0.0022222900390625;3.05999999227424;307;100 mA
13.7264189653441;0.29986572265625;0.0021990966796875;3.069999992249;308;100 mA
13.7364189653189;0.29986572265625;0.0021734619140625;3.07999999222375;309;100 mA
13.7464189652936;0.29986572265625;0.0022161865234375;3.0899999921985;310;100 mA
13.7564189652684;0.299896240234375;0.00217803955078125;3.09999999217325;311;100 mA
13.7664189652431;0.29986572265625;0.002169189453125;3.109999992148;312;100 mA
13.7764189652179;0.299774169921875;0.0022088623046875;3.11999999212276;313;100 mA
13.7864189651926;0.299835205078125;0.00216705322265625;3.12999999209751;314;100 mA
13.7964189651674;0.29986572265625;0.00216064453125;3.13999999207226;315;100 mA
13.8064189651421;0.299835205078125;0.00220245361328125;3.14999999204701;316;100 mA
13.8164189651169;0.29986572265625;0.00219818115234375;3.15999999202177;317;100 mA
13.8264189650916;0.299835205078125;0.00216766357421875;3.16999999199652;318;100 mA
13.8364189650664;0.29986572265625;0.00219207763671875;3.17999999197127;319;100 mA
13.8464189650412;0.299835205078125;0.00215087890625;3.18999999194602;320;100 mA
13.8564189650159;0.2998046875;0.00214630126953125;3.19999999192078;321;100 mA
13.8664189649907;0.299896240234375;0.0021771240234375;3.20999999189553;322;100 mA
13.8764189649654;0.299896240234375;0.002154541015625;3.21999999187028;323;100 mA
13.8864189649402;0.299896240234375;0.002137451171875;3.22999999184503;324;100 mA
13.8964189649149;0.299835205078125;0.00217498779296875;3.23999999181979;325;100 mA
13.9064189648897;0.2998046875;0.00216705322265625;3.24999999179454;326;100 mA
13.9164189648644;0.2999267578125;0.00221588134765625;3.25999999176929;327;100 mA
13.9264189648392;0.29986572265625;0.00220184326171875;3.26999999174404;328;100 mA
13.9364189648139;0.29986572265625;0.0021466064453125;3.2799999917188;329;100 mA
13.9464189647887;0.299835205078125;0.00212921142578125;3.28999999169355;330;100 mA
13.9564189647634;0.299835205078125;0.00217681884765625;3.2999999916683;331;100 mA
13.9664189647382;0.29986572265625;0.00218963623046875;3.30999999164305;332;100 mA
13.9764189647129;0.2999267578125;0.00217010498046875;3.31999999161781;333;100 mA
13.9864189646877;0.299835205078125;0.0022027587890625;3.32999999159256;334;100 mA
13.9964189646624;0.299896240234375;0.0021728515625;3.33999999156731;335;100 mA
14.0064189646372;0.29986572265625;0.00216156005859375;3.34999999154206;336;100 mA
14.0164189646119;0.2998046875;0.00220245361328125;3.35999999151682;337;100 mA
14.0264189645867;0.299835205078125;0.0021759033203125;3.36999999149157;338;100 mA
14.0364189645614;0.299835205078125;0.002152099609375;3.37999999146632;339;100 mA
14.0464189645362;0.299835205078125;0.00220489501953125;3.38999999144107;340;100 mA
14.056418964511;0.299835205078125;0.00219970703125;3.39999999141583;341;100 mA
14.0664189644857;0.2998046875;0.0021746826171875;3.40999999139058;342;100 mA
14.0764189644605;0.299835205078125;0.00221832275390625;3.41999999136533;343;100 mA
14.0864189644352;0.299835205078125;0.00215850830078125;3.42999999134008;344;100 mA
14.09641896441;0.29986572265625;0.0021405029296875;3.43999999131483;345;100 mA
14.1064189643847;0.299896240234375;0.002193603515625;3.44999999128959;346;100 mA
14.1164189643595;0.299835205078125;0.00217864990234375;3.45999999126434;347;100 mA
14.1264189643342;0.299835205078125;0.00215789794921875;3.46999999123909;348;100 mA
14.136418964309;0.299957275390625;0.00220611572265625;3.47999999121384;349;100 mA
14.1464189642837;0.299835205078125;0.002198486328125;3.4899999911886;350;100 mA
14.1564189642585;0.29986572265625;0.00219268798828125;3.49999999116335;351;100 mA
14.1664189642332;0.299896240234375;0.00222137451171875;3.5099999911381;352;100 mA
14.176418964208;0.2998046875;0.00218048095703125;3.51999999111285;353;100 mA
14.1864189641827;0.29986572265625;0.00217376708984375;3.52999999108761;354;100 mA
14.1964189641575;0.299835205078125;0.00222320556640625;3.53999999106236;355;100 mA
14.2064189641322;0.29986572265625;0.0022271728515625;3.54999999103711;356;100 mA
14.216418964107;0.29986572265625;0.002198486328125;3.55999999101186;357;100 mA
14.2264189640817;0.299896240234375;0.0022283935546875;3.56999999098662;358;100 mA
14.2364189640565;0.29986572265625;0.00218902587890625;3.57999999096137;359;100 mA
14.2464189640312;0.2999267578125;0.0021868896484375;3.58999999093612;360;100 mA
14.256418964006;0.299835205078125;0.00223480224609375;3.59999999091087;361;100 mA
14.2664189639808;0.29986572265625;0.00221466064453125;3.60999999088563;362;100 mA
14.2764189639555;0.29986572265625;0.00218292236328125;3.61999999086038;363;100 mA
14.2864189639303;0.299774169921875;0.0022247314453125;3.62999999083513;364;100 mA
14.296418963905;0.29986572265625;0.00221221923828125;3.63999999080988;365;100 mA
14.3064189638798;0.2998046875;0.0021942138671875;3.64999999078464;366;100 mA
14.3164189638545;0.29986572265625;0.002218017578125;3.65999999075939;367;100 mA
14.3264189638293;0.29986572265625;0.002171630859375;3.66999999073414;368;100 mA
14.336418963804;0.2999267578125;0.0021636962890625;3.67999999070889;369;100 mA
14.3464189637788;0.29986572265625;0.00221923828125;3.68999999068365;370;100 mA
14.3564189637535;0.29986572265625;0.00221282958984375;3.6999999906584;371;100 mA
14.3664189637283;0.299835205078125;0.00219512939453125;3.70999999063315;372;100 mA
14.376418963703;0.299835205078125;0.002244873046875;3.7199999906079;373;100 mA
14.3864189636778;0.2998046875;0.0022052001953125;3.72999999058266;374;100 mA
14.3964189636525;0.299835205078125;0.002183837890625;3.73999999055741;375;100 mA
14.4064189636273;0.2999267578125;0.0022216796875;3.74999999053216;376;100 mA
14.416418963602;0.299835205078125;0.00218902587890625;3.75999999050691;377;100 mA
14.4264189635768;0.299896240234375;0.00217864990234375;3.76999999048167;378;100 mA
14.4364189635515;0.2998046875;0.00221923828125;3.77999999045642;379;100 mA
14.4464189635263;0.299835205078125;0.002193603515625;3.78999999043117;380;100 mA
14.4564189635011;0.29986572265625;0.00217559814453125;3.79999999040592;381;100 mA
14.4664189634758;0.299774169921875;0.00220733642578125;3.80999999038067;382;100 mA
14.4764189634506;0.299835205078125;0.0021533203125;3.81999999035543;383;100 mA
14.4864189634253;0.29986572265625;0.00217437744140625;3.82999999033018;384;100 mA
14.4964189634001;0.299896240234375;0.00221771240234375;3.83999999030493;385;100 mA
14.5064189633748;0.299896240234375;0.00218017578125;3.84999999027968;386;100 mA
14.5164189633496;0.29986572265625;0.0021527099609375;3.85999999025444;387;100 mA
14.5264189633243;0.299835205078125;0.00219451904296875;3.86999999022919;388;100 mA
14.5364189632991;0.2998046875;0.00217529296875;3.87999999020394;389;100 mA
14.5464189632738;0.299835205078125;0.002169189453125;3.88999999017869;390;100 mA
14.5564189632486;0.299835205078125;0.00222442626953125;3.89999999015345;391;100 mA
14.5664189632233;0.2998046875;0.002203369140625;3.9099999901282;392;100 mA
14.5764189631981;0.2998046875;0.00219970703125;3.91999999010295;393;100 mA
14.5864189631728;0.29986572265625;0.002230224609375;3.9299999900777;394;100 mA
14.5964189631476;0.299835205078125;0.0022186279296875;3.93999999005246;395;100 mA
14.6064189631223;0.29986572265625;0.00220855712890625;3.94999999002721;396;100 mA
14.6164189630971;0.299896240234375;0.00222503662109375;3.95999999000196;397;100 mA
14.6264189630718;0.299835205078125;0.00217529296875;3.96999998997671;398;100 mA
14.6364189630466;0.29986572265625;0.00216644287109375;3.97999998995147;399;100 mA
14.6464189630213;0.299835205078125;0.00219207763671875;3.98999998992622;400;100 mA
14.6564189629961;0.29986572265625;0.0021746826171875;3.99999998990097;401;100 mA
14.6664189629709;0.299896240234375;0.002171630859375;4.00999998987572;402;100 mA
14.6764189629456;0.299835205078125;0.00220916748046875;4.01999998985048;403;100 mA
14.6864189629204;0.29986572265625;0.00219268798828125;4.02999998982523;404;100 mA
14.6964189628951;0.299896240234375;0.00217559814453125;4.03999998979998;405;100 mA
14.7064189628699;0.2998046875;0.0022186279296875;4.04999998977473;406;100 mA
14.7164189628446;0.299896240234375;0.0021624755859375;4.05999998974949;407;100 mA
14.7264189628194;0.29986572265625;0.0021343994140625;4.06999998972424;408;100 mA
14.7364189627941;0.2998046875;0.00216796875;4.07999998969899;409;100 mA
14.7464189627689;0.299896240234375;0.00217437744140625;4.08999998967374;410;100 mA
14.7564189627436;0.29986572265625;0.00216064453125;4.0999999896485;411;100 mA
14.7664189627184;0.29986572265625;0.002203369140625;4.10999998962325;412;100 mA
14.7764189626931;0.29986572265625;0.00216552734375;4.119999989598;413;100 mA
14.7864189626679;0.29986572265625;0.00215789794921875;4.12999998957275;414;100 mA
14.7964189626426;0.299835205078125;0.002193603515625;4.1399999895475;415;100 mA
14.8064189626174;0.29986572265625;0.00217620849609375;4.14999998952226;416;100 mA
14.8164189625921;0.299835205078125;0.00216522216796875;4.15999998949701;417;100 mA
14.8264189625669;0.29986572265625;0.00221466064453125;4.16999998947176;418;100 mA
14.8364189625416;0.299896240234375;0.002218017578125;4.17999998944651;419;100 mA
14.8464189625164;0.299835205078125;0.0021875;4.18999998942127;420;100 mA
14.8564189624911;0.299835205078125;0.00221588134765625;4.19999998939602;421;100 mA
14.8664189624659;0.29986572265625;0.00216644287109375;4.20999998937077;422;100 mA
14.8764189624407;0.2998046875;0.0021453857421875;4.21999998934552;423;100 mA
14.8864189624154;0.299835205078125;0.00218048095703125;4.22999998932028;424;100 mA
14.8964189623902;0.2998046875;0.002166748046875;4.23999998929503;425;100 mA
14.9064189623649;0.2999267578125;0.0021478271484375;4.24999998926978;426;100 mA
14.9164189623397;0.299835205078125;0.00220306396484375;4.25999998924453;427;100 mA
14.9264189623144;0.299896240234375;0.00218902587890625;4.26999998921929;428;100 mA
14.9364189622892;0.29986572265625;0.00219207763671875;4.27999998919404;429;100 mA
14.9464189622639;0.299896240234375;0.002239990234375;4.28999998916879;430;100 mA
14.9564189622387;0.29986572265625;0.002200927734375;4.29999998914354;431;100 mA
14.9664189622134;0.299835205078125;0.0021807861328125;4.3099999891183;432;100 mA
14.9764189621882;0.2998046875;0.002216796875;4.31999998909305;433;100 mA
14.9864189621629;0.299896240234375;0.0022064208984375;4.3299999890678;434;100 mA
14.9964189621377;0.299835205078125;0.00217254638671875;4.33999998904255;435;100 mA
15.0064189621124;0.29986572265625;0.00222259521484375;4.34999998901731;436;100 mA
15.0164189620872;0.299835205078125;0.002191162109375;4.35999998899206;437;100 mA
15.0264189620619;0.299896240234375;0.00217987060546875;4.36999998896681;438;100 mA
15.0364189620367;0.299835205078125;0.00220184326171875;4.37999998894156;439;100 mA
15.0464189620114;0.29986572265625;0.0021844482421875;4.38999998891632;440;100 mA
15.0564189619862;0.29986572265625;0.002169189453125;4.39999998889107;441;100 mA
15.0664189619609;0.2999267578125;0.002213134765625;4.40999998886582;442;100 mA
15.0764189619357;0.299896240234375;0.002203369140625;4.41999998884057;443;100 mA
15.0864189619105;0.299896240234375;0.00217620849609375;4.42999998881533;444;100 mA
15.0964189618852;0.299896240234375;0.00221343994140625;4.43999998879008;445;100 mA
15.10641896186;0.29986572265625;0.00217193603515625;4.44999998876483;446;100 mA
15.1164189618347;0.2999267578125;0.0021514892578125;4.45999998873958;447;100 mA
15.1264189618095;0.299896240234375;0.00219207763671875;4.46999998871433;448;100 mA
15.1364189617842;0.2998046875;0.00217529296875;4.47999998868909;449;100 mA
15.146418961759;0.29986572265625;0.00213409423828125;4.48999998866384;450;100 mA
15.1564189617337;0.29986572265625;0.002177734375;4.49999998863859;451;100 mA
15.1664189617085;0.299896240234375;0.00214111328125;4.50999998861334;452;100 mA
15.1764189616832;0.299835205078125;0.00211822509765625;4.5199999885881;453;100 mA
15.186418961658;0.299896240234375;0.00216644287109375;4.52999998856285;454;100 mA
15.1964189616327;0.299896240234375;0.002132568359375;4.5399999885376;455;100 mA
15.2064189616075;0.29986572265625;0.002127685546875;4.54999998851235;456;100 mA
15.2164189615822;0.299835205078125;0.00215789794921875;4.55999998848711;457;100 mA
15.226418961557;0.29986572265625;0.00215484619140625;4.56999998846186;458;100 mA
15.2364189615317;0.299896240234375;0.0021405029296875;4.57999998843661;459;100 mA
15.2464189615065;0.29986572265625;0.0021820068359375;4.58999998841136;460;100 mA
15.2564189614812;0.2999267578125;0.0021453857421875;4.59999998838612;461;100 mA
15.266418961456;0.2998046875;0.00213287353515625;4.60999998836087;462;100 mA
15.2764189614307;0.29986572265625;0.00216583251953125;4.61999998833562;463;100 mA
15.2864189614055;0.299896240234375;0.00213775634765625;4.62999998831037;464;100 mA
15.2964189613803;0.2999267578125;0.0021124267578125;4.63999998828513;465;100 mA
15.306418961355;0.299835205078125;0.0021697998046875;4.64999998825988;466;100 mA
15.3164189613298;0.299835205078125;0.0021728515625;4.65999998823463;467;100 mA
15.3264189613045;0.299896240234375;0.00214263916015625;4.66999998820938;468;100 mA
15.3364189612793;0.299896240234375;0.00217529296875;4.67999998818414;469;100 mA
15.346418961254;0.29986572265625;0.0021490478515625;4.68999998815889;470;100 mA
15.3564189612288;0.299835205078125;0.00213226318359375;4.69999998813364;471;100 mA
15.3664189612035;0.29986572265625;0.0021759033203125;4.70999998810839;472;100 mA
15.3764189611783;0.299835205078125;0.00215423583984375;4.71999998808315;473;100 mA
15.386418961153;0.29986572265625;0.0021270751953125;4.7299999880579;474;100 mA
15.3964189611278;0.2998046875;0.0021661376953125;4.73999998803265;475;100 mA
15.4064189611025;0.299835205078125;0.002115478515625;4.7499999880074;476;100 mA
15.4164189610773;0.299896240234375;0.00210357666015625;4.75999998798216;477;100 mA
15.426418961052;0.299835205078125;0.00215179443359375;4.76999998795691;478;100 mA
15.4364189610268;0.299835205078125;0.0021221923828125;4.77999998793166;479;100 mA
15.4464189610015;0.29986572265625;0.002105712890625;4.78999998790641;480;100 mA
15.4564189609763;0.299835205078125;0.002154541015625;4.79999998788116;481;100 mA
15.466418960951;0.299835205078125;0.00213348388671875;4.80999998785592;482;100 mA
15.4764189609258;0.29986572265625;0.00213897705078125;4.81999998783067;483;100 mA
15.4864189609006;0.299835205078125;0.0021990966796875;4.82999998780542;484;100 mA
15.4964189608753;0.299835205078125;0.00214019775390625;4.83999998778017;485;100 mA
15.5064189608501;0.299835205078125;0.00212127685546875;4.84999998775493;486;100 mA
15.5164189608248;0.2998046875;0.00216552734375;4.85999998772968;487;100 mA
15.5264189607996;0.2999267578125;0.00214874267578125;4.86999998770443;488;100 mA
15.5364189607743;0.299835205078125;0.00212005615234375;4.87999998767918;489;100 mA
15.5464189607491;0.29986572265625;0.002149658203125;4.88999998765394;490;100 mA
15.5564189607238;0.29986572265625;0.002110595703125;4.89999998762869;491;100 mA
15.5664189606986;0.2999267578125;0.0021044921875;4.90999998760344;492;100 mA
15.5764189606733;0.29986572265625;0.002139892578125;4.91999998757819;493;100 mA
15.5864189606481;0.299896240234375;0.0021197509765625;4.92999998755295;494;100 mA
15.5964189606228;0.29986572265625;0.0021002197265625;4.9399999875277;495;100 mA
15.6064189605976;0.29986572265625;0.00215576171875;4.94999998750245;496;100 mA
15.6164189605723;0.299835205078125;0.0021563720703125;4.9599999874772;497;100 mA
15.6264189605471;0.299896240234375;0.00214508056640625;4.96999998745196;498;100 mA
15.6364189605218;0.299774169921875;0.0021807861328125;4.97999998742671;499;100 mA
15.6464189604966;0.29986572265625;0.0021490478515625;4.98999998740146;500;100 mA
15.6564189604713;0.299896240234375;0.00215789794921875;4.99999998737621;501;100 mA
15.6664189604461;0.299835205078125;0.00220245361328125;5.00999998735097;502;100 mA
15.6764189604208;0.29986572265625;0.002198486328125;5.01999998732572;503;100 mA
15.6864189603956;0.299835205078125;0.0021710205078125;5.02999998730047;504;100 mA
15.6964189603704;0.299835205078125;0.00219390869140625;5.03999998727522;505;100 mA
15.7064189603451;0.299896240234375;0.002171630859375;5.04999998724998;506;100 mA
15.7164189603199;0.29986572265625;0.00215240478515625;5.05999998722473;507;100 mA
15.7264189602946;0.299835205078125;0.0021875;5.06999998719948;508;100 mA
15.7364189602694;0.29986572265625;0.00215850830078125;5.07999998717423;509;100 mA
15.7464189602441;0.299835205078125;0.00212738037109375;5.08999998714899;510;100 mA
15.7564189602189;0.299835205078125;0.00216522216796875;5.09999998712374;511;100 mA
15.7664189601936;0.299835205078125;0.0021612548828125;5.10999998709849;512;100 mA
15.7764189601684;0.299835205078125;0.00216583251953125;5.11999998707324;513;100 mA
15.7864189601431;0.299835205078125;0.0022186279296875;5.129999987048;514;100 mA
15.7964189601179;0.299835205078125;0.00218658447265625;5.13999998702275;515;100 mA
15.8064189600926;0.299835205078125;0.002186279296875;5.1499999869975;516;100 mA
15.8164189600674;0.299896240234375;0.0022222900390625;5.15999998697225;517;100 mA
15.8264189600421;0.29986572265625;0.00219146728515625;5.169999986947;518;100 mA
15.8364189600169;0.299896240234375;0.0021746826171875;5.17999998692176;519;100 mA
15.8464189599916;0.299896240234375;0.00221649169921875;5.18999998689651;520;100 mA
15.8564189599664;0.2998046875;0.0022064208984375;5.19999998687126;521;100 mA
15.8664189599411;0.29986572265625;0.002178955078125;5.20999998684601;522;100 mA
15.8764189599159;0.299835205078125;0.00221099853515625;5.21999998682077;523;100 mA
15.8864189598906;0.29986572265625;0.0021795654296875;5.22999998679552;524;100 mA
15.8964189598654;0.299896240234375;0.00216278076171875;5.23999998677027;525;100 mA
15.9064189598402;0.299835205078125;0.0021929931640625;5.24999998674502;526;100 mA
15.9164189598149;0.29986572265625;0.00217864990234375;5.25999998671978;527;100 mA
15.9264189597897;0.299835205078125;0.00216064453125;5.26999998669453;528;100 mA
15.9364189597644;0.29986572265625;0.00220703125;5.27999998666928;529;100 mA
15.9464189597392;0.2999267578125;0.0021844482421875;5.28999998664403;530;100 mA
15.9564189597139;0.299896240234375;0.00217620849609375;5.29999998661879;531;100 mA
15.9664189596887;0.299835205078125;0.00219757080078125;5.30999998659354;532;100 mA
15.9764189596634;0.299896240234375;0.00216033935546875;5.31999998656829;533;100 mA
15.9864189596382;0.299835205078125;0.00214111328125;5.32999998654304;534;100 mA
15.9964189596129;0.299835205078125;0.00215911865234375;5.3399999865178;535;100 mA
16.0064189595877;0.299835205078125;0.002130126953125;5.34999998649255;536;100 mA
16.0164189595624;0.299835205078125;0.0021124267578125;5.3599999864673;537;100 mA
16.0264189595372;0.299835205078125;0.002158203125;5.36999998644205;538;100 mA
16.0364189595119;0.29986572265625;0.00213623046875;5.37999998641681;539;100 mA
16.0464189594867;0.299896240234375;0.00213348388671875;5.38999998639156;540;100 mA
16.0564189594614;0.299835205078125;0.00218658447265625;5.39999998636631;541;100 mA
16.0664189594362;0.29986572265625;0.002181396484375;5.40999998634106;542;100 mA
16.0764189594109;0.29986572265625;0.00217010498046875;5.41999998631582;543;100 mA
16.0864189593857;0.2998046875;0.0022149658203125;5.42999998629057;544;100 mA
16.0964189593604;0.29986572265625;0.0021673583984375;5.43999998626532;545;100 mA
16.1064189593352;0.2999267578125;0.002154541015625;5.44999998624007;546;100 mA
16.11641895931;0.29986572265625;0.0021771240234375;5.45999998621483;547;100 mA
16.1264189592847;0.299835205078125;0.002171630859375;5.46999998618958;548;100 mA
16.1364189592595;0.29986572265625;0.00218109130859375;5.47999998616433;549;100 mA
16.1464189592342;0.299835205078125;0.002220458984375;5.48999998613908;550;100 mA
16.156418959209;0.299896240234375;0.00219268798828125;5.49999998611383;551;100 mA
16.1664189591837;0.299896240234375;0.00217041015625;5.50999998608859;552;100 mA
16.1764189591585;0.299835205078125;0.00220184326171875;5.51999998606334;553;100 mA
16.1864189591332;0.299896240234375;0.00216278076171875;5.52999998603809;554;100 mA
16.196418959108;0.299896240234375;0.0021533203125;5.53999998601284;555;100 mA
16.2064189590827;0.299835205078125;0.00219696044921875;5.5499999859876;556;100 mA
16.2164189590575;0.29986572265625;0.00217437744140625;5.55999998596235;557;100 mA
16.2264189590322;0.299896240234375;0.002159423828125;5.5699999859371;558;100 mA
16.236418959007;0.2998046875;0.00222808837890625;5.57999998591185;559;100 mA
16.2464189589817;0.29986572265625;0.00221160888671875;5.58999998588661;560;100 mA
16.2564189589565;0.299835205078125;0.00219085693359375;5.59999998586136;561;100 mA
16.2664189589312;0.2998046875;0.00221160888671875;5.60999998583611;562;100 mA
16.276418958906;0.29986572265625;0.0021771240234375;5.61999998581086;563;100 mA
16.2864189588807;0.299835205078125;0.00215484619140625;5.62999998578562;564;100 mA
16.2964189588555;0.29986572265625;0.00218597412109375;5.63999998576037;565;100 mA
16.3064189588302;0.29986572265625;0.0021893310546875;5.64999998573512;566;100 mA
16.316418958805;0.299835205078125;0.00218963623046875;5.65999998570987;567;100 mA
16.3264189587798;0.29986572265625;0.00222991943359375;5.66999998568463;568;100 mA
16.3364189587545;0.2998046875;0.0021722412109375;5.67999998565938;569;100 mA
16.3464189587293;0.299896240234375;0.00215087890625;5.68999998563413;570;100 mA
16.356418958704;0.299835205078125;0.00218109130859375;5.69999998560888;571;100 mA
16.3664189586788;0.299835205078125;0.00216827392578125;5.70999998558364;572;100 mA
16.3764189586535;0.299835205078125;0.00215576171875;5.71999998555839;573;100 mA
16.3864189586283;0.2998046875;0.00219696044921875;5.72999998553314;574;100 mA
16.396418958603;0.299835205078125;0.00217193603515625;5.73999998550789;575;100 mA
16.4064189585778;0.299896240234375;0.00215850830078125;5.74999998548265;576;100 mA
16.4164189585525;0.2998046875;0.00220947265625;5.7599999854574;577;100 mA
16.4264189585273;0.2998046875;0.00214935302734375;5.76999998543215;578;100 mA
16.436418958502;0.29986572265625;0.002132568359375;5.7799999854069;579;100 mA
16.4464189584768;0.299835205078125;0.00217041015625;5.78999998538166;580;100 mA
16.4564189584515;0.2999267578125;0.00214691162109375;5.79999998535641;581;100 mA
16.4664189584263;0.29986572265625;0.00213775634765625;5.80999998533116;582;100 mA
16.476418958401;0.299835205078125;0.00218505859375;5.81999998530591;583;100 mA
16.4864189583758;0.299896240234375;0.00213531494140625;5.82999998528066;584;100 mA
16.4964189583505;0.2998046875;0.00212493896484375;5.83999998525542;585;100 mA
16.5064189583253;0.29986572265625;0.0021710205078125;5.84999998523017;586;100 mA
16.5164189583001;0.29986572265625;0.00213897705078125;5.85999998520492;587;100 mA
16.5264189582748;0.29986572265625;0.0021337890625;5.86999998517967;588;100 mA
16.5364189582496;0.299835205078125;0.00218170166015625;5.87999998515443;589;100 mA
16.5464189582243;0.29986572265625;0.002159423828125;5.88999998512918;590;100 mA
16.5564189581991;0.29986572265625;0.00214324951171875;5.89999998510393;591;100 mA
16.5664189581738;0.2998046875;0.00218109130859375;5.90999998507868;592;100 mA
16.5764189581486;0.29986572265625;0.00211700439453125;5.91999998505344;593;100 mA
16.5864189581233;0.29986572265625;0.0021075439453125;5.92999998502819;594;100 mA
16.5964189580981;0.29986572265625;0.00215606689453125;5.93999998500294;595;100 mA
16.6064189580728;0.29986572265625;0.0021514892578125;5.94999998497769;596;100 mA
16.6164189580476;0.299835205078125;0.0021417236328125;5.95999998495245;597;100 mA
16.6264189580223;0.299835205078125;0.002198486328125;5.9699999849272;598;100 mA
16.6364189579971;0.299896240234375;0.002198486328125;5.97999998490195;599;100 mA
16.6464189579718;0.299896240234375;0.00220062255859375;5.9899999848767;600;100 mA
16.6564189579466;0.299835205078125;0.0022479248046875;5.99999998485146;601;100 mA
16.6664189579213;0.2998046875;0.0022015380859375;6.00999998482621;602;100 mA
16.6764189578961;0.299896240234375;0.00217620849609375;6.01999998480096;603;100 mA
16.6864189578708;0.299835205078125;0.0022186279296875;6.02999998477571;604;100 mA
16.6964189578456;0.2999267578125;0.002186279296875;6.03999998475047;605;100 mA
16.7064189578203;0.299896240234375;0.0021630859375;6.04999998472522;606;100 mA
16.7164189577951;0.299774169921875;0.00218475341796875;6.05999998469997;607;100 mA
16.7264189577699;0.299896240234375;0.00216552734375;6.06999998467472;608;100 mA
16.7364189577446;0.299896240234375;0.002166748046875;6.07999998464948;609;100 mA
16.7464189577194;0.2998046875;0.00221893310546875;6.08999998462423;610;100 mA
16.7564189576941;0.299896240234375;0.00220611572265625;6.09999998459898;611;100 mA
16.7664189576689;0.299835205078125;0.0021893310546875;6.10999998457373;612;100 mA
16.7764189576436;0.2998046875;0.0022265625;6.11999998454849;613;100 mA
16.7864189576184;0.299835205078125;0.0022100830078125;6.12999998452324;614;100 mA
16.7964189575931;0.299835205078125;0.00219970703125;6.13999998449799;615;100 mA
16.8064189575679;0.299896240234375;0.00224273681640625;6.14999998447274;616;100 mA
16.8164189575426;0.29986572265625;0.00218719482421875;6.1599999844475;617;100 mA
16.8264189575174;0.299835205078125;0.00216796875;6.16999998442225;618;100 mA
16.8364189574921;0.29986572265625;0.002196044921875;6.179999984397;619;100 mA
16.8464189574669;0.299774169921875;0.0021881103515625;6.18999998437175;620;100 mA
16.8564189574416;0.299896240234375;0.002177734375;6.1999999843465;621;100 mA
16.8664189574164;0.299835205078125;0.00221466064453125;6.20999998432126;622;100 mA
16.8764189573911;0.299896240234375;0.0021673583984375;6.21999998429601;623;100 mA
16.8864189573659;0.29986572265625;0.0021612548828125;6.22999998427076;624;100 mA
16.8964189573406;0.299835205078125;0.00221710205078125;6.23999998424551;625;100 mA
16.9064189573154;0.2998046875;0.00217559814453125;6.24999998422027;626;100 mA
16.9164189572901;0.299896240234375;0.002159423828125;6.25999998419502;627;100 mA
16.9264189572649;0.29986572265625;0.002230224609375;6.26999998416977;628;100 mA
16.9364189572397;0.299896240234375;0.0022076416015625;6.27999998414452;629;100 mA
16.9464189572144;0.299835205078125;0.00218963623046875;6.28999998411928;630;100 mA
16.9564189571892;0.299835205078125;0.0022222900390625;6.29999998409403;631;100 mA
16.9664189571639;0.299896240234375;0.002161865234375;6.30999998406878;632;100 mA
16.9764189571387;0.29986572265625;0.002152099609375;6.31999998404353;633;100 mA
16.9864189571134;0.2998046875;0.00220367431640625;6.32999998401829;634;100 mA
16.9964189570882;0.29986572265625;0.0022015380859375;6.33999998399304;635;100 mA
17.0064189570629;0.2999267578125;0.002177734375;6.34999998396779;636;100 mA
17.0164189570377;0.29986572265625;0.00220916748046875;6.35999998394254;637;100 mA
17.0264189570124;0.29986572265625;0.00217559814453125;6.3699999839173;638;100 mA
17.0364189569872;0.299835205078125;0.0021533203125;6.37999998389205;639;100 mA
17.0464189569619;0.29986572265625;0.002188720703125;6.3899999838668;640;100 mA
17.0564189569367;0.2999267578125;0.00213958740234375;6.39999998384155;641;100 mA
17.0664189569114;0.299835205078125;0.002115478515625;6.40999998381631;642;100 mA
17.0764189568862;0.29986572265625;0.00215362548828125;6.41999998379106;643;100 mA
17.0864189568609;0.299835205078125;0.00213714599609375;6.42999998376581;644;100 mA
17.0964189568357;0.299896240234375;0.00212738037109375;6.43999998374056;645;100 mA
17.1064189568104;0.29986572265625;0.00218292236328125;6.44999998371532;646;100 mA
17.1164189567852;0.299835205078125;0.00213653564453125;6.45999998369007;647;100 mA
17.1264189567599;0.29986572265625;0.0021221923828125;6.46999998366482;648;100 mA
17.1364189567347;0.29974365234375;0.00215362548828125;6.47999998363957;649;100 mA
17.1464189567095;0.29986572265625;0.00214935302734375;6.48999998361433;650;100 mA
17.1564189566842;0.29986572265625;0.00213836669921875;6.49999998358908;651;100 mA
17.166418956659;0.299835205078125;0.00216094970703125;6.50999998356383;652;100 mA
17.1764189566337;0.299835205078125;0.00213043212890625;6.51999998353858;653;100 mA
17.1864189566085;0.29986572265625;0.00211639404296875;6.52999998351333;654;100 mA
17.1964189565832;0.29986572265625;0.0021624755859375;6.53999998348809;655;100 mA
17.206418956558;0.2998046875;0.00212066650390625;6.54999998346284;656;100 mA
17.2164189565327;0.299896240234375;0.0021136474609375;6.55999998343759;657;100 mA
17.2264189565075;0.299774169921875;0.00216217041015625;6.56999998341234;658;100 mA
17.2364189564822;0.29986572265625;0.00214202880859375;6.5799999833871;659;100 mA
17.246418956457;0.29986572265625;0.00211090087890625;6.58999998336185;660;100 mA
17.2564189564317;0.2998046875;0.0021466064453125;6.5999999833366;661;100 mA
17.2664189564065;0.299835205078125;0.002109375;6.60999998331135;662;100 mA
17.2764189563812;0.2998046875;0.0021124267578125;6.61999998328611;663;100 mA
17.286418956356;0.2998046875;0.0021630859375;6.62999998326086;664;100 mA
17.2964189563307;0.299835205078125;0.00214508056640625;6.63999998323561;665;100 mA
17.3064189563055;0.299835205078125;0.0021368408203125;6.64999998321036;666;100 mA
17.3164189562802;0.2998046875;0.0021697998046875;6.65999998318512;667;100 mA
17.326418956255;0.299835205078125;0.0021600341796875;6.66999998315987;668;100 mA
17.3364189562297;0.29986572265625;0.00214385986328125;6.67999998313462;669;100 mA
17.3464189562045;0.29986572265625;0.00216644287109375;6.68999998310937;670;100 mA
17.3564189561793;0.299896240234375;0.00211944580078125;6.69999998308413;671;100 mA
17.366418956154;0.299896240234375;0.002113037109375;6.70999998305888;672;100 mA
17.3764189561288;0.299835205078125;0.0021630859375;6.71999998303363;673;100 mA
17.3864189561035;0.29986572265625;0.00214447021484375;6.72999998300838;674;100 mA
17.3964189560783;0.29986572265625;0.0021209716796875;6.73999998298314;675;100 mA
17.406418956053;0.29986572265625;0.00216094970703125;6.74999998295789;676;100 mA
17.4164189560278;0.299835205078125;0.00212249755859375;6.75999998293264;677;100 mA
17.4264189560025;0.299896240234375;0.0021087646484375;6.76999998290739;678;100 mA
17.4364189559773;0.2998046875;0.00215362548828125;6.77999998288215;679;100 mA
17.446418955952;0.299835205078125;0.0021038818359375;6.7899999828569;680;100 mA
17.4564189559268;0.29986572265625;0.0020819091796875;6.79999998283165;681;100 mA
17.4664189559015;0.2998046875;0.0021209716796875;6.8099999828064;682;100 mA
17.4764189558763;0.299835205078125;0.0021038818359375;6.81999998278116;683;100 mA
17.486418955851;0.299835205078125;0.00208038330078125;6.82999998275591;684;100 mA
17.4964189558258;0.2998046875;0.00212982177734375;6.83999998273066;685;100 mA
17.5064189558005;0.299896240234375;0.00209503173828125;6.84999998270541;686;100 mA
17.5164189557753;0.299835205078125;0.00208251953125;6.85999998268016;687;100 mA
17.52641895575;0.299835205078125;0.002132568359375;6.86999998265492;688;100 mA
17.5364189557248;0.2999267578125;0.00211517333984375;6.87999998262967;689;100 mA
17.5464189556996;0.299896240234375;0.002105712890625;6.88999998260442;690;100 mA
17.5564189556743;0.29986572265625;0.00215911865234375;6.89999998257917;691;100 mA
17.5664189556491;0.299835205078125;0.0021478271484375;6.90999998255393;692;100 mA
17.5764189556238;0.299835205078125;0.002142333984375;6.91999998252868;693;100 mA
17.5864189555986;0.299835205078125;0.00220672607421875;6.92999998250343;694;100 mA
17.5964189555733;0.299835205078125;0.00214630126953125;6.93999998247818;695;100 mA
17.6064189555481;0.299896240234375;0.00214202880859375;6.94999998245294;696;100 mA
17.6164189555228;0.29986572265625;0.00218292236328125;6.95999998242769;697;100 mA
17.6264189554976;0.29986572265625;0.0021783447265625;6.96999998240244;698;100 mA
17.6364189554723;0.299896240234375;0.0021807861328125;6.97999998237719;699;100 mA
17.6464189554471;0.299896240234375;0.00220489501953125;6.98999998235195;700;100 mA
