Time (s);WE(1).Potential (V);WE(1).Current (A);Corrected time (s);Index;Current range
25.6368769352731;-0.699737548828125;-0.311431884765625;0;1;100 mA
25.6468769352479;-0.69952392578125;-0.2359619140625;0.00999999997475243;2;100 mA
25.6568769352226;-0.699432373046875;-0.200439453125;0.0199999999495049;3;100 mA
25.6668769351974;-0.699554443359375;-0.182647705078125;0.0299999999242573;4;100 mA
25.6768769351721;-0.699554443359375;-0.171173095703125;0.0399999998990097;5;100 mA
25.6868769351469;-0.69952392578125;-0.15985107421875;0.0499999998737621;6;100 mA
25.6968769351216;-0.69952392578125;-0.1571044921875;0.0599999998485146;7;100 mA
25.7068769350964;-0.699554443359375;-0.151611328125;0.069999999823267;8;100 mA
25.7168769350711;-0.699554443359375;-0.146881103515625;0.0799999997980194;9;100 mA
25.7268769350459;-0.69952392578125;-0.147369384765625;0.0899999997727718;10;100 mA
25.7368769350206;-0.69952392578125;-0.141571044921875;0.0999999997475243;11;100 mA
25.7468769349954;-0.699493408203125;-0.138671875;0.109999999722277;12;100 mA
25.7568769349701;-0.699554443359375;-0.14117431640625;0.119999999697029;13;100 mA
25.7668769349449;-0.699554443359375;-0.13909912109375;0.129999999671782;14;100 mA
25.7768769349196;-0.699554443359375;-0.1361083984375;0.139999999646534;15;100 mA
25.7868769348944;-0.6995849609375;-0.138763427734375;0.149999999621286;16;100 mA
25.7968769348691;-0.699554443359375;-0.136138916015625;0.159999999596039;17;100 mA
25.8068769348439;-0.69952392578125;-0.13494873046875;0.169999999570791;18;100 mA
25.8168769348187;-0.699615478515625;-0.137969970703125;0.179999999545544;19;100 mA
25.8268769347934;-0.699554443359375;-0.13641357421875;0.189999999520296;20;100 mA
25.8368769347682;-0.6995849609375;-0.134490966796875;0.199999999495049;21;100 mA
25.8468769347429;-0.6995849609375;-0.13787841796875;0.209999999469801;22;100 mA
25.8568769347177;-0.699615478515625;-0.1363525390625;0.219999999444553;23;100 mA
25.8668769346924;-0.69952392578125;-0.133514404296875;0.229999999419306;24;100 mA
25.8768769346672;-0.699554443359375;-0.1365966796875;0.239999999394058;25;100 mA
25.8868769346419;-0.699554443359375;-0.134124755859375;0.249999999368811;26;100 mA
25.8968769346167;-0.69952392578125;-0.1319580078125;0.259999999343563;27;100 mA
25.9068769345914;-0.699554443359375;-0.134490966796875;0.269999999318316;28;100 mA
25.9168769345662;-0.699615478515625;-0.13372802734375;0.279999999293068;29;100 mA
25.9268769345409;-0.699554443359375;-0.1318359375;0.28999999926782;30;100 mA
25.9368769345157;-0.699615478515625;-0.134796142578125;0.299999999242573;31;100 mA
25.9468769344904;-0.6995849609375;-0.133758544921875;0.309999999217325;32;100 mA
25.9568769344652;-0.699554443359375;-0.13238525390625;0.319999999192078;33;100 mA
25.9668769344399;-0.6995849609375;-0.135040283203125;0.32999999916683;34;100 mA
25.9768769344147;-0.69964599609375;-0.1319580078125;0.339999999141583;35;100 mA
25.9868769343894;-0.699493408203125;-0.129058837890625;0.349999999116335;36;100 mA
25.9968769343642;-0.6995849609375;-0.13214111328125;0.359999999091087;37;100 mA
26.0068769343389;-0.699615478515625;-0.132171630859375;0.36999999906584;38;100 mA
26.0168769343137;-0.6995849609375;-0.130523681640625;0.379999999040592;39;100 mA
26.0268769342885;-0.69970703125;-0.133270263671875;0.389999999015345;40;100 mA
26.0368769342632;-0.699676513671875;-0.129974365234375;0.399999998990097;41;100 mA
26.046876934238;-0.6995849609375;-0.12890625;0.40999999896485;42;100 mA
26.0568769342127;-0.6995849609375;-0.1329345703125;0.419999998939602;43;100 mA
26.0668769341875;-0.699615478515625;-0.13128662109375;0.429999998914354;44;100 mA
26.0768769341622;-0.699554443359375;-0.129425048828125;0.439999998889107;45;100 mA
26.086876934137;-0.6995849609375;-0.132354736328125;0.449999998863859;46;100 mA
26.0968769341117;-0.69964599609375;-0.129791259765625;0.459999998838612;47;100 mA
26.1068769340865;-0.699615478515625;-0.128265380859375;0.469999998813364;48;100 mA
26.1168769340612;-0.69964599609375;-0.1326904296875;0.479999998788116;49;100 mA
26.126876934036;-0.69964599609375;-0.1309814453125;0.489999998762869;50;100 mA
26.1368769340107;-0.6995849609375;-0.12921142578125;0.499999998737621;51;100 mA
26.1468769339855;-0.699615478515625;-0.1322021484375;0.509999998712374;52;100 mA
26.1568769339602;-0.6995849609375;-0.131134033203125;0.519999998687126;53;100 mA
26.166876933935;-0.699615478515625;-0.129638671875;0.529999998661879;54;100 mA
26.1768769339097;-0.6995849609375;-0.133392333984375;0.539999998636631;55;100 mA
26.1868769338845;-0.69964599609375;-0.130828857421875;0.549999998611383;56;100 mA
26.1968769338592;-0.699615478515625;-0.129364013671875;0.559999998586136;57;100 mA
26.206876933834;-0.6995849609375;-0.1324462890625;0.569999998560888;58;100 mA
26.2168769338087;-0.69964599609375;-0.131378173828125;0.579999998535641;59;100 mA
26.2268769337835;-0.699615478515625;-0.129364013671875;0.589999998510393;60;100 mA
26.2368769337583;-0.699615478515625;-0.131927490234375;0.599999998485146;61;100 mA
26.246876933733;-0.69970703125;-0.131317138671875;0.609999998459898;62;100 mA
26.2568769337078;-0.6995849609375;-0.130096435546875;0.61999999843465;63;100 mA
26.2668769336825;-0.699554443359375;-0.132843017578125;0.629999998409403;64;100 mA
26.2768769336573;-0.699615478515625;-0.130889892578125;0.639999998384155;65;100 mA
26.286876933632;-0.6995849609375;-0.1287841796875;0.649999998358908;66;100 mA
26.2968769336068;-0.6995849609375;-0.131744384765625;0.65999999833366;67;100 mA
26.3068769335815;-0.699615478515625;-0.131011962890625;0.669999998308413;68;100 mA
26.3168769335563;-0.699615478515625;-0.129302978515625;0.679999998283165;69;100 mA
26.326876933531;-0.699615478515625;-0.132354736328125;0.689999998257917;70;100 mA
26.3368769335058;-0.69964599609375;-0.1314697265625;0.69999999823267;71;100 mA
26.3468769334805;-0.69964599609375;-0.130035400390625;0.709999998207422;72;100 mA
26.3568769334553;-0.699676513671875;-0.13299560546875;0.719999998182175;73;100 mA
26.36687693343;-0.6995849609375;-0.13201904296875;0.729999998156927;74;100 mA
26.3768769334048;-0.699615478515625;-0.13043212890625;0.73999999813168;75;100 mA
26.3868769333795;-0.69964599609375;-0.13330078125;0.749999998106432;76;100 mA
26.3968769333543;-0.69964599609375;-0.133636474609375;0.759999998081184;77;100 mA
26.406876933329;-0.6995849609375;-0.1314697265625;0.769999998055937;78;100 mA
26.4168769333038;-0.699615478515625;-0.133544921875;0.779999998030689;79;100 mA
26.4268769332785;-0.69964599609375;-0.132354736328125;0.789999998005442;80;100 mA
26.4368769332533;-0.69952392578125;-0.130096435546875;0.799999997980194;81;100 mA
26.4468769332281;-0.699554443359375;-0.1322021484375;0.809999997954947;82;100 mA
26.4568769332028;-0.6995849609375;-0.1319580078125;0.819999997929699;83;100 mA
26.4668769331776;-0.69964599609375;-0.129974365234375;0.829999997904451;84;100 mA
26.4768769331523;-0.69964599609375;-0.133514404296875;0.839999997879204;85;100 mA
26.4868769331271;-0.699615478515625;-0.13348388671875;0.849999997853956;86;100 mA
26.4968769331018;-0.6995849609375;-0.131561279296875;0.859999997828709;87;100 mA
26.5068769330766;-0.6995849609375;-0.134002685546875;0.869999997803461;88;100 mA
26.5168769330513;-0.69964599609375;-0.133026123046875;0.879999997778214;89;100 mA
26.5268769330261;-0.699554443359375;-0.1318359375;0.889999997752966;90;100 mA
26.5368769330008;-0.699615478515625;-0.134521484375;0.899999997727718;91;100 mA
26.5468769329756;-0.69964599609375;-0.1348876953125;0.909999997702471;92;100 mA
26.5568769329503;-0.699554443359375;-0.133331298828125;0.919999997677223;93;100 mA
26.5668769329251;-0.699615478515625;-0.135162353515625;0.929999997651976;94;100 mA
26.5768769328998;-0.6995849609375;-0.133087158203125;0.939999997626728;95;100 mA
26.5868769328746;-0.699615478515625;-0.1314697265625;0.949999997601481;96;100 mA
26.5968769328493;-0.69964599609375;-0.13336181640625;0.959999997576233;97;100 mA
26.6068769328241;-0.699676513671875;-0.132965087890625;0.969999997550985;98;100 mA
26.6168769327988;-0.69964599609375;-0.1302490234375;0.979999997525738;99;100 mA
26.6268769327736;-0.6995849609375;-0.13330078125;0.98999999750049;100;100 mA
26.6368769327484;-0.699615478515625;-0.1331787109375;0.999999997475243;101;100 mA
26.6468769327231;-0.6995849609375;-0.13037109375;1.00999999745;102;100 mA
26.6568769326979;-0.699615478515625;-0.132415771484375;1.01999999742475;103;100 mA
26.6668769326726;-0.69964599609375;-0.131500244140625;1.0299999973995;104;100 mA
26.6768769326474;-0.6995849609375;-0.1297607421875;1.03999999737425;105;100 mA
26.6868769326221;-0.69964599609375;-0.131805419921875;1.049999997349;106;100 mA
26.6968769325969;-0.6995849609375;-0.131500244140625;1.05999999732376;107;100 mA
26.7068769325716;-0.69952392578125;-0.13043212890625;1.06999999729851;108;100 mA
26.7168769325464;-0.6995849609375;-0.133636474609375;1.07999999727326;109;100 mA
26.7268769325211;-0.69964599609375;-0.132415771484375;1.08999999724801;110;100 mA
26.7368769324959;-0.6995849609375;-0.130462646484375;1.09999999722277;111;100 mA
26.7468769324706;-0.699615478515625;-0.13336181640625;1.10999999719752;112;100 mA
26.7568769324454;-0.6995849609375;-0.131744384765625;1.11999999717227;113;100 mA
26.7668769324201;-0.699554443359375;-0.129364013671875;1.12999999714702;114;100 mA
26.7768769323949;-0.69964599609375;-0.1318359375;1.13999999712178;115;100 mA
26.7868769323696;-0.699554443359375;-0.1312255859375;1.14999999709653;116;100 mA
26.7968769323444;-0.699493408203125;-0.128997802734375;1.15999999707128;117;100 mA
26.8068769323191;-0.69964599609375;-0.130889892578125;1.16999999704603;118;100 mA
26.8168769322939;-0.69964599609375;-0.129425048828125;1.17999999702079;119;100 mA
26.8268769322686;-0.6995849609375;-0.127655029296875;1.18999999699554;120;100 mA
26.8368769322434;-0.699615478515625;-0.13031005859375;1.19999999697029;121;100 mA
26.8468769322182;-0.699615478515625;-0.13055419921875;1.20999999694504;122;100 mA
26.8568769321929;-0.699615478515625;-0.128692626953125;1.2199999969198;123;100 mA
26.8668769321677;-0.699615478515625;-0.131072998046875;1.22999999689455;124;100 mA
26.8768769321424;-0.69964599609375;-0.13079833984375;1.2399999968693;125;100 mA
26.8868769321172;-0.699554443359375;-0.12896728515625;1.24999999684405;126;100 mA
26.8968769320919;-0.699554443359375;-0.132537841796875;1.25999999681881;127;100 mA
26.9068769320667;-0.699615478515625;-0.130645751953125;1.26999999679356;128;100 mA
26.9168769320414;-0.699554443359375;-0.128082275390625;1.27999999676831;129;100 mA
26.9268769320162;-0.699615478515625;-0.131134033203125;1.28999999674306;130;100 mA
26.9368769319909;-0.69964599609375;-0.132568359375;1.29999999671782;131;100 mA
26.9468769319657;-0.6995849609375;-0.13128662109375;1.30999999669257;132;100 mA
26.9568769319404;-0.699615478515625;-0.13275146484375;1.31999999666732;133;100 mA
26.9668769319152;-0.699615478515625;-0.131103515625;1.32999999664207;134;100 mA
26.9768769318899;-0.699554443359375;-0.129119873046875;1.33999999661683;135;100 mA
26.9868769318647;-0.69964599609375;-0.13079833984375;1.34999999659158;136;100 mA
26.9968769318394;-0.699676513671875;-0.1297607421875;1.35999999656633;137;100 mA
27.0068769318142;-0.699554443359375;-0.127838134765625;1.36999999654108;138;100 mA
27.0168769317889;-0.69964599609375;-0.1309814453125;1.37999999651583;139;100 mA
27.0268769317637;-0.6995849609375;-0.132171630859375;1.38999999649059;140;100 mA
27.0368769317384;-0.69952392578125;-0.130767822265625;1.39999999646534;141;100 mA
27.0468769317132;-0.699676513671875;-0.133087158203125;1.40999999644009;142;100 mA
27.056876931688;-0.69964599609375;-0.131317138671875;1.41999999641484;143;100 mA
27.0668769316627;-0.6995849609375;-0.128631591796875;1.4299999963896;144;100 mA
27.0768769316375;-0.69964599609375;-0.131134033203125;1.43999999636435;145;100 mA
27.0868769316122;-0.699615478515625;-0.131195068359375;1.4499999963391;146;100 mA
27.096876931587;-0.6995849609375;-0.1292724609375;1.45999999631385;147;100 mA
27.1068769315617;-0.69964599609375;-0.1324462890625;1.46999999628861;148;100 mA
27.1168769315365;-0.69964599609375;-0.131561279296875;1.47999999626336;149;100 mA
27.1268769315112;-0.699554443359375;-0.128997802734375;1.48999999623811;150;100 mA
27.136876931486;-0.6995849609375;-0.131256103515625;1.49999999621286;151;100 mA
27.1468769314607;-0.699676513671875;-0.1309814453125;1.50999999618762;152;100 mA
27.1568769314355;-0.699554443359375;-0.128662109375;1.51999999616237;153;100 mA
27.1668769314102;-0.699615478515625;-0.131683349609375;1.52999999613712;154;100 mA
27.176876931385;-0.699615478515625;-0.131805419921875;1.53999999611187;155;100 mA
27.1868769313597;-0.699554443359375;-0.129486083984375;1.54999999608663;156;100 mA
27.1968769313345;-0.699615478515625;-0.132415771484375;1.55999999606138;157;100 mA
27.2068769313092;-0.69964599609375;-0.129852294921875;1.56999999603613;158;100 mA
27.216876931284;-0.69964599609375;-0.127349853515625;1.57999999601088;159;100 mA
27.2268769312587;-0.69964599609375;-0.130279541015625;1.58999999598564;160;100 mA
27.2368769312335;-0.699615478515625;-0.1300048828125;1.59999999596039;161;100 mA
27.2468769312082;-0.699615478515625;-0.128265380859375;1.60999999593514;162;100 mA
27.256876931183;-0.699615478515625;-0.131011962890625;1.61999999590989;163;100 mA
27.2668769311578;-0.69964599609375;-0.128997802734375;1.62999999588465;164;100 mA
27.2768769311325;-0.699554443359375;-0.1265869140625;1.6399999958594;165;100 mA
27.2868769311073;-0.6995849609375;-0.13006591796875;1.64999999583415;166;100 mA
27.296876931082;-0.6995849609375;-0.129180908203125;1.6599999958089;167;100 mA
27.3068769310568;-0.699615478515625;-0.12744140625;1.66999999578366;168;100 mA
27.3168769310315;-0.699615478515625;-0.130218505859375;1.67999999575841;169;100 mA
27.3268769310063;-0.699615478515625;-0.13031005859375;1.68999999573316;170;100 mA
27.336876930981;-0.699554443359375;-0.12896728515625;1.69999999570791;171;100 mA
27.3468769309558;-0.699554443359375;-0.131805419921875;1.70999999568267;172;100 mA
27.3568769309305;-0.699676513671875;-0.13092041015625;1.71999999565742;173;100 mA
27.3668769309053;-0.699615478515625;-0.129150390625;1.72999999563217;174;100 mA
27.37687693088;-0.699615478515625;-0.131805419921875;1.73999999560692;175;100 mA
27.3868769308548;-0.69964599609375;-0.13104248046875;1.74999999558167;176;100 mA
27.3968769308295;-0.699615478515625;-0.12896728515625;1.75999999555643;177;100 mA
27.4068769308043;-0.6995849609375;-0.13104248046875;1.76999999553118;178;100 mA
27.416876930779;-0.6995849609375;-0.1307373046875;1.77999999550593;179;100 mA
27.4268769307538;-0.699554443359375;-0.1285400390625;1.78999999548068;180;100 mA
27.4368769307285;-0.699676513671875;-0.13079833984375;1.79999999545544;181;100 mA
27.4468769307033;-0.69964599609375;-0.13031005859375;1.80999999543019;182;100 mA
27.456876930678;-0.699554443359375;-0.128814697265625;1.81999999540494;183;100 mA
27.4668769306528;-0.6995849609375;-0.130767822265625;1.82999999537969;184;100 mA
27.4768769306276;-0.699615478515625;-0.130584716796875;1.83999999535445;185;100 mA
27.4868769306023;-0.699554443359375;-0.128631591796875;1.8499999953292;186;100 mA
27.4968769305771;-0.69964599609375;-0.13018798828125;1.85999999530395;187;100 mA
27.5068769305518;-0.699554443359375;-0.128509521484375;1.8699999952787;188;100 mA
27.5168769305266;-0.699615478515625;-0.127227783203125;1.87999999525346;189;100 mA
27.5268769305013;-0.699615478515625;-0.1297607421875;1.88999999522821;190;100 mA
27.5368769304761;-0.6995849609375;-0.1290283203125;1.89999999520296;191;100 mA
27.5468769304508;-0.69970703125;-0.12701416015625;1.90999999517771;192;100 mA
27.5568769304256;-0.699615478515625;-0.129302978515625;1.91999999515247;193;100 mA
27.5668769304003;-0.699615478515625;-0.129730224609375;1.92999999512722;194;100 mA
27.5768769303751;-0.69964599609375;-0.12774658203125;1.93999999510197;195;100 mA
27.5868769303498;-0.699615478515625;-0.129730224609375;1.94999999507672;196;100 mA
27.5968769303246;-0.699615478515625;-0.128753662109375;1.95999999505148;197;100 mA
27.6068769302993;-0.69964599609375;-0.126434326171875;1.96999999502623;198;100 mA
27.6168769302741;-0.6995849609375;-0.12841796875;1.97999999500098;199;100 mA
27.6268769302488;-0.6995849609375;-0.128326416015625;1.98999999497573;200;100 mA
27.6368769302236;-0.699554443359375;-0.126922607421875;1.99999999495049;201;100 mA
27.6468769301983;-0.699676513671875;-0.12939453125;2.00999999492524;202;100 mA
27.6568769301731;-0.69964599609375;-0.1298828125;2.01999999489999;203;100 mA
27.6668769301479;-0.699554443359375;-0.128875732421875;2.02999999487474;204;100 mA
27.6768769301226;-0.6995849609375;-0.130615234375;2.0399999948495;205;100 mA
27.6868769300974;-0.699615478515625;-0.12921142578125;2.04999999482425;206;100 mA
27.6968769300721;-0.699615478515625;-0.127349853515625;2.059999994799;207;100 mA
27.7068769300469;-0.699615478515625;-0.12994384765625;2.06999999477375;208;100 mA
27.7168769300216;-0.6995849609375;-0.13031005859375;2.0799999947485;209;100 mA
27.7268769299964;-0.699615478515625;-0.128814697265625;2.08999999472326;210;100 mA
27.7368769299711;-0.699615478515625;-0.13031005859375;2.09999999469801;211;100 mA
27.7468769299459;-0.69964599609375;-0.128509521484375;2.10999999467276;212;100 mA
27.7568769299206;-0.699554443359375;-0.126434326171875;2.11999999464751;213;100 mA
27.7668769298954;-0.69964599609375;-0.128173828125;2.12999999462227;214;100 mA
27.7768769298701;-0.69964599609375;-0.12799072265625;2.13999999459702;215;100 mA
27.7868769298449;-0.699615478515625;-0.125579833984375;2.14999999457177;216;100 mA
27.7968769298196;-0.699615478515625;-0.127777099609375;2.15999999454652;217;100 mA
27.8068769297944;-0.699615478515625;-0.127105712890625;2.16999999452128;218;100 mA
27.8168769297691;-0.699615478515625;-0.125274658203125;2.17999999449603;219;100 mA
27.8268769297439;-0.699676513671875;-0.127532958984375;2.18999999447078;220;100 mA
27.8368769297186;-0.69964599609375;-0.125823974609375;2.19999999444553;221;100 mA
27.8468769296934;-0.69964599609375;-0.12353515625;2.20999999442029;222;100 mA
27.8568769296681;-0.6995849609375;-0.126190185546875;2.21999999439504;223;100 mA
27.8668769296429;-0.69964599609375;-0.126495361328125;2.22999999436979;224;100 mA
27.8768769296177;-0.699554443359375;-0.125213623046875;2.23999999434454;225;100 mA
27.8868769295924;-0.699615478515625;-0.127227783203125;2.2499999943193;226;100 mA
27.8968769295672;-0.69964599609375;-0.125091552734375;2.25999999429405;227;100 mA
27.9068769295419;-0.699554443359375;-0.123931884765625;2.2699999942688;228;100 mA
27.9168769295167;-0.6995849609375;-0.126312255859375;2.27999999424355;229;100 mA
27.9268769294914;-0.69964599609375;-0.125396728515625;2.28999999421831;230;100 mA
27.9368769294662;-0.699615478515625;-0.123504638671875;2.29999999419306;231;100 mA
27.9468769294409;-0.699615478515625;-0.126434326171875;2.30999999416781;232;100 mA
27.9568769294157;-0.699554443359375;-0.127166748046875;2.31999999414256;233;100 mA
27.9668769293904;-0.69964599609375;-0.126129150390625;2.32999999411732;234;100 mA
27.9768769293652;-0.699615478515625;-0.128662109375;2.33999999409207;235;100 mA
27.9868769293399;-0.699615478515625;-0.12835693359375;2.34999999406682;236;100 mA
27.9968769293147;-0.6995849609375;-0.126373291015625;2.35999999404157;237;100 mA
28.0068769292894;-0.699554443359375;-0.128692626953125;2.36999999401633;238;100 mA
28.0168769292642;-0.699615478515625;-0.128814697265625;2.37999999399108;239;100 mA
28.0268769292389;-0.69964599609375;-0.127044677734375;2.38999999396583;240;100 mA
28.0368769292137;-0.699615478515625;-0.12884521484375;2.39999999394058;241;100 mA
28.0468769291884;-0.699615478515625;-0.12841796875;2.40999999391533;242;100 mA
28.0568769291632;-0.69964599609375;-0.126708984375;2.41999999389009;243;100 mA
28.0668769291379;-0.699615478515625;-0.128631591796875;2.42999999386484;244;100 mA
28.0768769291127;-0.699676513671875;-0.128143310546875;2.43999999383959;245;100 mA
28.0868769290875;-0.699615478515625;-0.1263427734375;2.44999999381434;246;100 mA
28.0968769290622;-0.69964599609375;-0.127838134765625;2.4599999937891;247;100 mA
28.106876929037;-0.69964599609375;-0.1273193359375;2.46999999376385;248;100 mA
28.1168769290117;-0.6995849609375;-0.12567138671875;2.4799999937386;249;100 mA
28.1268769289865;-0.699554443359375;-0.1275634765625;2.48999999371335;250;100 mA
28.1368769289612;-0.699615478515625;-0.126708984375;2.49999999368811;251;100 mA
28.146876928936;-0.699615478515625;-0.125091552734375;2.50999999366286;252;100 mA
28.1568769289107;-0.6995849609375;-0.127227783203125;2.51999999363761;253;100 mA
28.1668769288855;-0.699615478515625;-0.127227783203125;2.52999999361236;254;100 mA
28.1768769288602;-0.6995849609375;-0.125518798828125;2.53999999358712;255;100 mA
28.186876928835;-0.699676513671875;-0.1278076171875;2.54999999356187;256;100 mA
28.1968769288097;-0.69964599609375;-0.12744140625;2.55999999353662;257;100 mA
28.2068769287845;-0.699554443359375;-0.12664794921875;2.56999999351137;258;100 mA
28.2168769287592;-0.69964599609375;-0.128570556640625;2.57999999348613;259;100 mA
28.226876928734;-0.69964599609375;-0.127349853515625;2.58999999346088;260;100 mA
28.2368769287087;-0.69964599609375;-0.125213623046875;2.59999999343563;261;100 mA
28.2468769286835;-0.69964599609375;-0.127960205078125;2.60999999341038;262;100 mA
28.2568769286582;-0.699615478515625;-0.12823486328125;2.61999999338514;263;100 mA
28.266876928633;-0.69964599609375;-0.12640380859375;2.62999999335989;264;100 mA
28.2768769286077;-0.699615478515625;-0.1282958984375;2.63999999333464;265;100 mA
28.2868769285825;-0.699676513671875;-0.126861572265625;2.64999999330939;266;100 mA
28.2968769285573;-0.699615478515625;-0.12518310546875;2.65999999328415;267;100 mA
28.306876928532;-0.699615478515625;-0.127532958984375;2.6699999932589;268;100 mA
28.3168769285068;-0.69964599609375;-0.12701416015625;2.67999999323365;269;100 mA
28.3268769284815;-0.69964599609375;-0.125701904296875;2.6899999932084;270;100 mA
28.3368769284563;-0.6995849609375;-0.128326416015625;2.69999999318316;271;100 mA
28.346876928431;-0.69964599609375;-0.1285400390625;2.70999999315791;272;100 mA
28.3568769284058;-0.699676513671875;-0.12701416015625;2.71999999313266;273;100 mA
28.3668769283805;-0.699615478515625;-0.12908935546875;2.72999999310741;274;100 mA
28.3768769283553;-0.699676513671875;-0.12750244140625;2.73999999308217;275;100 mA
28.38687692833;-0.6995849609375;-0.1256103515625;2.74999999305692;276;100 mA
28.3968769283048;-0.699615478515625;-0.127227783203125;2.75999999303167;277;100 mA
28.4068769282795;-0.69964599609375;-0.126373291015625;2.76999999300642;278;100 mA
28.4168769282543;-0.699615478515625;-0.125213623046875;2.77999999298117;279;100 mA
28.426876928229;-0.699676513671875;-0.127655029296875;2.78999999295593;280;100 mA
28.4368769282038;-0.6995849609375;-0.127166748046875;2.79999999293068;281;100 mA
28.4468769281785;-0.6995849609375;-0.12567138671875;2.80999999290543;282;100 mA
28.4568769281533;-0.69964599609375;-0.127349853515625;2.81999999288018;283;100 mA
28.466876928128;-0.699615478515625;-0.12652587890625;2.82999999285494;284;100 mA
28.4768769281028;-0.699676513671875;-0.124481201171875;2.83999999282969;285;100 mA
28.4868769280775;-0.699615478515625;-0.126495361328125;2.84999999280444;286;100 mA
28.4968769280523;-0.699615478515625;-0.126556396484375;2.85999999277919;287;100 mA
28.5068769280271;-0.69964599609375;-0.12493896484375;2.86999999275395;288;100 mA
28.5168769280018;-0.699554443359375;-0.1260986328125;2.8799999927287;289;100 mA
28.5268769279766;-0.6995849609375;-0.12481689453125;2.88999999270345;290;100 mA
28.5368769279513;-0.699615478515625;-0.123809814453125;2.8999999926782;291;100 mA
28.5468769279261;-0.699554443359375;-0.1263427734375;2.90999999265296;292;100 mA
28.5568769279008;-0.69964599609375;-0.12591552734375;2.91999999262771;293;100 mA
28.5668769278756;-0.699615478515625;-0.12408447265625;2.92999999260246;294;100 mA
28.5768769278503;-0.69964599609375;-0.12603759765625;2.93999999257721;295;100 mA
28.5868769278251;-0.699676513671875;-0.126007080078125;2.94999999255197;296;100 mA
28.5968769277998;-0.699615478515625;-0.12493896484375;2.95999999252672;297;100 mA
28.6068769277746;-0.6995849609375;-0.12701416015625;2.96999999250147;298;100 mA
28.6168769277493;-0.699615478515625;-0.12615966796875;2.97999999247622;299;100 mA
28.6268769277241;-0.6995849609375;-0.124786376953125;2.98999999245098;300;100 mA
28.6368769276988;-0.6995849609375;-0.126953125;2.99999999242573;301;100 mA
28.6468769276736;-0.699554443359375;-0.1268310546875;3.00999999240048;302;100 mA
28.6568769276483;-0.69952392578125;-0.12548828125;3.01999999237523;303;100 mA
28.6668769276231;-0.699615478515625;-0.126617431640625;3.02999999234999;304;100 mA
28.6768769275978;-0.69964599609375;-0.12518310546875;3.03999999232474;305;100 mA
28.6868769275726;-0.699615478515625;-0.123779296875;3.04999999229949;306;100 mA
28.6968769275474;-0.69964599609375;-0.126312255859375;3.05999999227424;307;100 mA
28.7068769275221;-0.699615478515625;-0.12646484375;3.069999992249;308;100 mA
28.7168769274969;-0.699615478515625;-0.125946044921875;3.07999999222375;309;100 mA
28.7268769274716;-0.69964599609375;-0.128814697265625;3.0899999921985;310;100 mA
28.7368769274464;-0.699676513671875;-0.129150390625;3.09999999217325;311;100 mA
28.7468769274211;-0.69964599609375;-0.12689208984375;3.109999992148;312;100 mA
28.7568769273959;-0.699676513671875;-0.1280517578125;3.11999999212276;313;100 mA
28.7668769273706;-0.69964599609375;-0.1263427734375;3.12999999209751;314;100 mA
28.7768769273454;-0.699615478515625;-0.124725341796875;3.13999999207226;315;100 mA
28.7868769273201;-0.699615478515625;-0.12689208984375;3.14999999204701;316;100 mA
28.7968769272949;-0.699615478515625;-0.12738037109375;3.15999999202177;317;100 mA
28.8068769272696;-0.6995849609375;-0.126312255859375;3.16999999199652;318;100 mA
28.8168769272444;-0.69964599609375;-0.127655029296875;3.17999999197127;319;100 mA
28.8268769272191;-0.6995849609375;-0.126739501953125;3.18999999194602;320;100 mA
28.8368769271939;-0.699615478515625;-0.12579345703125;3.19999999192078;321;100 mA
28.8468769271686;-0.699615478515625;-0.12750244140625;3.20999999189553;322;100 mA
28.8568769271434;-0.699676513671875;-0.126007080078125;3.21999999187028;323;100 mA
28.8668769271181;-0.699554443359375;-0.1239013671875;3.22999999184503;324;100 mA
28.8768769270929;-0.699615478515625;-0.125762939453125;3.23999999181979;325;100 mA
28.8868769270676;-0.699615478515625;-0.126251220703125;3.24999999179454;326;100 mA
28.8968769270424;-0.69964599609375;-0.12530517578125;3.25999999176929;327;100 mA
28.9068769270172;-0.69964599609375;-0.1268310546875;3.26999999174404;328;100 mA
28.9168769269919;-0.699615478515625;-0.125579833984375;3.2799999917188;329;100 mA
28.9268769269667;-0.69964599609375;-0.1239013671875;3.28999999169355;330;100 mA
28.9368769269414;-0.69964599609375;-0.1251220703125;3.2999999916683;331;100 mA
28.9468769269162;-0.69964599609375;-0.124542236328125;3.30999999164305;332;100 mA
28.9568769268909;-0.699615478515625;-0.122772216796875;3.31999999161781;333;100 mA
28.9668769268657;-0.699615478515625;-0.12457275390625;3.32999999159256;334;100 mA
28.9768769268404;-0.69964599609375;-0.12432861328125;3.33999999156731;335;100 mA
28.9868769268152;-0.6995849609375;-0.123748779296875;3.34999999154206;336;100 mA
28.9968769267899;-0.69964599609375;-0.125732421875;3.35999999151682;337;100 mA
29.0068769267647;-0.699615478515625;-0.125091552734375;3.36999999149157;338;100 mA
29.0168769267394;-0.699615478515625;-0.123504638671875;3.37999999146632;339;100 mA
29.0268769267142;-0.699615478515625;-0.125518798828125;3.38999999144107;340;100 mA
29.0368769266889;-0.699615478515625;-0.126190185546875;3.39999999141583;341;100 mA
29.0468769266637;-0.699615478515625;-0.124969482421875;3.40999999139058;342;100 mA
29.0568769266384;-0.69964599609375;-0.126190185546875;3.41999999136533;343;100 mA
29.0668769266132;-0.69964599609375;-0.124908447265625;3.42999999134008;344;100 mA
29.0768769265879;-0.6995849609375;-0.123291015625;3.43999999131483;345;100 mA
29.0868769265627;-0.6995849609375;-0.12542724609375;3.44999999128959;346;100 mA
29.0968769265374;-0.699615478515625;-0.125732421875;3.45999999126434;347;100 mA
29.1068769265122;-0.6995849609375;-0.124298095703125;3.46999999123909;348;100 mA
29.116876926487;-0.699615478515625;-0.126312255859375;3.47999999121384;349;100 mA
29.1268769264617;-0.69964599609375;-0.126007080078125;3.4899999911886;350;100 mA
29.1368769264365;-0.699676513671875;-0.124755859375;3.49999999116335;351;100 mA
29.1468769264112;-0.69964599609375;-0.12652587890625;3.5099999911381;352;100 mA
29.156876926386;-0.699554443359375;-0.124481201171875;3.51999999111285;353;100 mA
29.1668769263607;-0.69964599609375;-0.12249755859375;3.52999999108761;354;100 mA
29.1768769263355;-0.69964599609375;-0.12432861328125;3.53999999106236;355;100 mA
29.1868769263102;-0.699615478515625;-0.124664306640625;3.54999999103711;356;100 mA
29.196876926285;-0.699615478515625;-0.123565673828125;3.55999999101186;357;100 mA
29.2068769262597;-0.69964599609375;-0.12481689453125;3.56999999098662;358;100 mA
29.2168769262345;-0.699615478515625;-0.1251220703125;3.57999999096137;359;100 mA
29.2268769262092;-0.699615478515625;-0.12420654296875;3.58999999093612;360;100 mA
29.236876926184;-0.699676513671875;-0.12542724609375;3.59999999091087;361;100 mA
29.2468769261587;-0.69964599609375;-0.12469482421875;3.60999999088563;362;100 mA
29.2568769261335;-0.699615478515625;-0.1229248046875;3.61999999086038;363;100 mA
29.2668769261082;-0.69964599609375;-0.12451171875;3.62999999083513;364;100 mA
29.276876926083;-0.699615478515625;-0.1246337890625;3.63999999080988;365;100 mA
29.2868769260577;-0.69964599609375;-0.123992919921875;3.64999999078464;366;100 mA
29.2968769260325;-0.69964599609375;-0.125213623046875;3.65999999075939;367;100 mA
29.3068769260072;-0.699676513671875;-0.123626708984375;3.66999999073414;368;100 mA
29.316876925982;-0.69964599609375;-0.121826171875;3.67999999070889;369;100 mA
29.3268769259568;-0.69964599609375;-0.123443603515625;3.68999999068365;370;100 mA
29.3368769259315;-0.69964599609375;-0.123260498046875;3.6999999906584;371;100 mA
29.3468769259063;-0.699615478515625;-0.122406005859375;3.70999999063315;372;100 mA
29.356876925881;-0.69964599609375;-0.123626708984375;3.7199999906079;373;100 mA
29.3668769258558;-0.69964599609375;-0.1234130859375;3.72999999058266;374;100 mA
29.3768769258305;-0.699554443359375;-0.122100830078125;3.73999999055741;375;100 mA
29.3868769258053;-0.69964599609375;-0.12371826171875;3.74999999053216;376;100 mA
29.39687692578;-0.69964599609375;-0.123016357421875;3.75999999050691;377;100 mA
29.4068769257548;-0.699615478515625;-0.121490478515625;3.76999999048167;378;100 mA
29.4168769257295;-0.699554443359375;-0.1234130859375;3.77999999045642;379;100 mA
29.4268769257043;-0.6995849609375;-0.123504638671875;3.78999999043117;380;100 mA
29.436876925679;-0.69964599609375;-0.1224365234375;3.79999999040592;381;100 mA
29.4468769256538;-0.69970703125;-0.123809814453125;3.80999999038067;382;100 mA
29.4568769256285;-0.69964599609375;-0.122528076171875;3.81999999035543;383;100 mA
29.4668769256033;-0.69970703125;-0.12115478515625;3.82999999033018;384;100 mA
29.476876925578;-0.6995849609375;-0.12286376953125;3.83999999030493;385;100 mA
29.4868769255528;-0.699615478515625;-0.123046875;3.84999999027968;386;100 mA
29.4968769255275;-0.6995849609375;-0.12274169921875;3.85999999025444;387;100 mA
29.5068769255023;-0.69964599609375;-0.124237060546875;3.86999999022919;388;100 mA
29.516876925477;-0.69964599609375;-0.12432861328125;3.87999999020394;389;100 mA
29.5268769254518;-0.699554443359375;-0.12384033203125;3.88999999017869;390;100 mA
29.5368769254266;-0.69964599609375;-0.125274658203125;3.89999999015345;391;100 mA
29.5468769254013;-0.699676513671875;-0.123870849609375;3.9099999901282;392;100 mA
29.5568769253761;-0.69964599609375;-0.12237548828125;3.91999999010295;393;100 mA
29.5668769253508;-0.699615478515625;-0.12396240234375;3.9299999900777;394;100 mA
29.5768769253256;-0.69964599609375;-0.124542236328125;3.93999999005246;395;100 mA
29.5868769253003;-0.699615478515625;-0.123687744140625;3.94999999002721;396;100 mA
29.5968769252751;-0.699615478515625;-0.1248779296875;3.95999999000196;397;100 mA
29.6068769252498;-0.69964599609375;-0.1239013671875;3.96999998997671;398;100 mA
29.6168769252246;-0.699615478515625;-0.12188720703125;3.97999998995147;399;100 mA
29.6268769251993;-0.69970703125;-0.122711181640625;3.98999998992622;400;100 mA
29.6368769251741;-0.699676513671875;-0.121795654296875;3.99999998990097;401;100 mA
29.6468769251488;-0.699615478515625;-0.120147705078125;4.00999998987572;402;100 mA
29.6568769251236;-0.6995849609375;-0.1217041015625;4.01999998985048;403;100 mA
29.6668769250983;-0.6995849609375;-0.122711181640625;4.02999998982523;404;100 mA
29.6768769250731;-0.699615478515625;-0.122161865234375;4.03999998979998;405;100 mA
29.6868769250478;-0.69964599609375;-0.1234130859375;4.04999998977473;406;100 mA
29.6968769250226;-0.699554443359375;-0.122650146484375;4.05999998974949;407;100 mA
29.7068769249973;-0.69964599609375;-0.12103271484375;4.06999998972424;408;100 mA
29.7168769249721;-0.699554443359375;-0.122039794921875;4.07999998969899;409;100 mA
29.7268769249469;-0.69964599609375;-0.122039794921875;4.08999998967374;410;100 mA
29.7368769249216;-0.6995849609375;-0.121490478515625;4.0999999896485;411;100 mA
29.7468769248964;-0.6995849609375;-0.123443603515625;4.10999998962325;412;100 mA
29.7568769248711;-0.699676513671875;-0.12322998046875;4.119999989598;413;100 mA
29.7668769248459;-0.699676513671875;-0.12176513671875;4.12999998957275;414;100 mA
29.7768769248206;-0.69964599609375;-0.123321533203125;4.1399999895475;415;100 mA
29.7868769247954;-0.69964599609375;-0.123077392578125;4.14999998952226;416;100 mA
29.7968769247701;-0.699615478515625;-0.121917724609375;4.15999998949701;417;100 mA
29.8068769247449;-0.699615478515625;-0.123016357421875;4.16999998947176;418;100 mA
29.8168769247196;-0.69964599609375;-0.122955322265625;4.17999998944651;419;100 mA
29.8268769246944;-0.69964599609375;-0.12237548828125;4.18999998942127;420;100 mA
29.8368769246691;-0.699615478515625;-0.12353515625;4.19999998939602;421;100 mA
29.8468769246439;-0.699615478515625;-0.12249755859375;4.20999998937077;422;100 mA
29.8568769246186;-0.6995849609375;-0.12115478515625;4.21999998934552;423;100 mA
29.8668769245934;-0.69964599609375;-0.122344970703125;4.22999998932028;424;100 mA
29.8768769245681;-0.69964599609375;-0.121734619140625;4.23999998929503;425;100 mA
29.8868769245429;-0.6995849609375;-0.120330810546875;4.24999998926978;426;100 mA
29.8968769245176;-0.699615478515625;-0.122039794921875;4.25999998924453;427;100 mA
29.9068769244924;-0.699676513671875;-0.1219482421875;4.26999998921929;428;100 mA
29.9168769244671;-0.699615478515625;-0.121002197265625;4.27999998919404;429;100 mA
29.9268769244419;-0.69964599609375;-0.12249755859375;4.28999998916879;430;100 mA
29.9368769244167;-0.699676513671875;-0.121612548828125;4.29999998914354;431;100 mA
29.9468769243914;-0.69964599609375;-0.120086669921875;4.3099999891183;432;100 mA
29.9568769243662;-0.69964599609375;-0.1212158203125;4.31999998909305;433;100 mA
29.9668769243409;-0.699615478515625;-0.121368408203125;4.3299999890678;434;100 mA
29.9768769243157;-0.69964599609375;-0.1209716796875;4.33999998904255;435;100 mA
29.9868769242904;-0.69964599609375;-0.122344970703125;4.34999998901731;436;100 mA
29.9968769242652;-0.69964599609375;-0.121337890625;4.35999998899206;437;100 mA
30.0068769242399;-0.699615478515625;-0.12066650390625;4.36999998896681;438;100 mA
30.0168769242147;-0.699615478515625;-0.122802734375;4.37999998894156;439;100 mA
30.0268769241894;-0.699554443359375;-0.122344970703125;4.38999998891632;440;100 mA
30.0368769241642;-0.699615478515625;-0.1209716796875;4.39999998889107;441;100 mA
30.0468769241389;-0.69964599609375;-0.12255859375;4.40999998886582;442;100 mA
30.0568769241137;-0.699676513671875;-0.12237548828125;4.41999998884057;443;100 mA
30.0668769240884;-0.699615478515625;-0.121673583984375;4.42999998881533;444;100 mA
30.0768769240632;-0.699615478515625;-0.12237548828125;4.43999998879008;445;100 mA
30.0868769240379;-0.699676513671875;-0.12054443359375;4.44999998876483;446;100 mA
30.0968769240127;-0.69964599609375;-0.11920166015625;4.45999998873958;447;100 mA
30.1068769239874;-0.699615478515625;-0.12078857421875;4.46999998871433;448;100 mA
30.1168769239622;-0.699615478515625;-0.120819091796875;4.47999998868909;449;100 mA
30.1268769239369;-0.6995849609375;-0.119873046875;4.48999998866384;450;100 mA
30.1368769239117;-0.69964599609375;-0.120635986328125;4.49999998863859;451;100 mA
30.1468769238865;-0.699615478515625;-0.119781494140625;4.50999998861334;452;100 mA
30.1568769238612;-0.699615478515625;-0.118499755859375;4.5199999885881;453;100 mA
30.166876923836;-0.699615478515625;-0.120147705078125;4.52999998856285;454;100 mA
30.1768769238107;-0.699615478515625;-0.119903564453125;4.5399999885376;455;100 mA
30.1868769237855;-0.699615478515625;-0.118560791015625;4.54999998851235;456;100 mA
30.1968769237602;-0.69964599609375;-0.1199951171875;4.55999998848711;457;100 mA
30.206876923735;-0.699676513671875;-0.120391845703125;4.56999998846186;458;100 mA
30.2168769237097;-0.699676513671875;-0.1201171875;4.57999998843661;459;100 mA
30.2268769236845;-0.699615478515625;-0.12127685546875;4.58999998841136;460;100 mA
30.2368769236592;-0.69964599609375;-0.1204833984375;4.59999998838612;461;100 mA
30.246876923634;-0.699615478515625;-0.119537353515625;4.60999998836087;462;100 mA
30.2568769236087;-0.69964599609375;-0.121063232421875;4.61999998833562;463;100 mA
30.2668769235835;-0.699676513671875;-0.12060546875;4.62999998831037;464;100 mA
30.2768769235582;-0.69964599609375;-0.119781494140625;4.63999998828513;465;100 mA
30.286876923533;-0.6995849609375;-0.1214599609375;4.64999998825988;466;100 mA
30.2968769235077;-0.69970703125;-0.121368408203125;4.65999998823463;467;100 mA
30.3068769234825;-0.699615478515625;-0.120147705078125;4.66999998820938;468;100 mA
30.3168769234572;-0.6995849609375;-0.12109375;4.67999998818414;469;100 mA
30.326876923432;-0.69964599609375;-0.1204833984375;4.68999998815889;470;100 mA
30.3368769234067;-0.69964599609375;-0.119110107421875;4.69999998813364;471;100 mA
30.3468769233815;-0.69964599609375;-0.120880126953125;4.70999998810839;472;100 mA
30.3568769233563;-0.69964599609375;-0.12030029296875;4.71999998808315;473;100 mA
30.366876923331;-0.6995849609375;-0.119476318359375;4.7299999880579;474;100 mA
30.3768769233058;-0.6995849609375;-0.121063232421875;4.73999998803265;475;100 mA
30.3868769232805;-0.69964599609375;-0.120330810546875;4.7499999880074;476;100 mA
30.3968769232553;-0.6995849609375;-0.119110107421875;4.75999998798216;477;100 mA
30.40687692323;-0.699676513671875;-0.119873046875;4.76999998795691;478;100 mA
30.4168769232048;-0.699676513671875;-0.119476318359375;4.77999998793166;479;100 mA
30.4268769231795;-0.699615478515625;-0.119140625;4.78999998790641;480;100 mA
30.4368769231543;-0.69964599609375;-0.120849609375;4.79999998788116;481;100 mA
30.446876923129;-0.69964599609375;-0.12158203125;4.80999998785592;482;100 mA
30.4568769231038;-0.699615478515625;-0.121551513671875;4.81999998783067;483;100 mA
30.4668769230785;-0.699615478515625;-0.1231689453125;4.82999998780542;484;100 mA
30.4768769230533;-0.69964599609375;-0.12298583984375;4.83999998778017;485;100 mA
30.486876923028;-0.69964599609375;-0.1212158203125;4.84999998775493;486;100 mA
30.4968769230028;-0.699615478515625;-0.122222900390625;4.85999998772968;487;100 mA
30.5068769229775;-0.69964599609375;-0.1219482421875;4.86999998770443;488;100 mA
30.5168769229523;-0.699615478515625;-0.120819091796875;4.87999998767918;489;100 mA
30.526876922927;-0.69964599609375;-0.122406005859375;4.88999998765394;490;100 mA
30.5368769229018;-0.6995849609375;-0.121734619140625;4.89999998762869;491;100 mA
30.5468769228765;-0.69964599609375;-0.119964599609375;4.90999998760344;492;100 mA
30.5568769228513;-0.699676513671875;-0.121063232421875;4.91999998757819;493;100 mA
30.5668769228261;-0.699676513671875;-0.120513916015625;4.92999998755295;494;100 mA
30.5768769228008;-0.69964599609375;-0.119110107421875;4.9399999875277;495;100 mA
30.5868769227756;-0.6995849609375;-0.119903564453125;4.94999998750245;496;100 mA
30.5968769227503;-0.69964599609375;-0.120025634765625;4.9599999874772;497;100 mA
30.6068769227251;-0.699615478515625;-0.119110107421875;4.96999998745196;498;100 mA
30.6168769226998;-0.699615478515625;-0.11993408203125;4.97999998742671;499;100 mA
30.6268769226746;-0.699615478515625;-0.118865966796875;4.98999998740146;500;100 mA
30.6368769226493;-0.6995849609375;-0.1175537109375;4.99999998737621;501;100 mA
30.6468769226241;-0.699615478515625;-0.119140625;5.00999998735097;502;100 mA
30.6568769225988;-0.6995849609375;-0.1195068359375;5.01999998732572;503;100 mA
30.6668769225736;-0.69964599609375;-0.119049072265625;5.02999998730047;504;100 mA
30.6768769225483;-0.699615478515625;-0.12005615234375;5.03999998727522;505;100 mA
30.6868769225231;-0.699615478515625;-0.118865966796875;5.04999998724998;506;100 mA
30.6968769224978;-0.69964599609375;-0.118316650390625;5.05999998722473;507;100 mA
30.7068769224726;-0.699676513671875;-0.120361328125;5.06999998719948;508;100 mA
30.7168769224473;-0.699676513671875;-0.12054443359375;5.07999998717423;509;100 mA
30.7268769224221;-0.699615478515625;-0.11944580078125;5.08999998714899;510;100 mA
30.7368769223968;-0.699615478515625;-0.12030029296875;5.09999998712374;511;100 mA
30.7468769223716;-0.69970703125;-0.1199951171875;5.10999998709849;512;100 mA
30.7568769223464;-0.6995849609375;-0.119049072265625;5.11999998707324;513;100 mA
30.7668769223211;-0.69964599609375;-0.11993408203125;5.129999987048;514;100 mA
30.7768769222959;-0.699676513671875;-0.1192626953125;5.13999998702275;515;100 mA
30.7868769222706;-0.6995849609375;-0.11834716796875;5.1499999869975;516;100 mA
30.7968769222454;-0.699676513671875;-0.120025634765625;5.15999998697225;517;100 mA
30.8068769222201;-0.699676513671875;-0.120086669921875;5.169999986947;518;100 mA
30.8168769221949;-0.6995849609375;-0.11907958984375;5.17999998692176;519;100 mA
30.8268769221696;-0.699615478515625;-0.1207275390625;5.18999998689651;520;100 mA
30.8368769221444;-0.699676513671875;-0.121063232421875;5.19999998687126;521;100 mA
30.8468769221191;-0.699615478515625;-0.120208740234375;5.20999998684601;522;100 mA
30.8568769220939;-0.699676513671875;-0.1209716796875;5.21999998682077;523;100 mA
30.8668769220686;-0.69964599609375;-0.12005615234375;5.22999998679552;524;100 mA
30.8768769220434;-0.69964599609375;-0.118377685546875;5.23999998677027;525;100 mA
30.8868769220181;-0.699615478515625;-0.11920166015625;5.24999998674502;526;100 mA
30.8968769219929;-0.69964599609375;-0.118896484375;5.25999998671978;527;100 mA
30.9068769219676;-0.6995849609375;-0.118408203125;5.26999998669453;528;100 mA
30.9168769219424;-0.69964599609375;-0.119903564453125;5.27999998666928;529;100 mA
30.9268769219171;-0.699615478515625;-0.119873046875;5.28999998664403;530;100 mA
30.9368769218919;-0.69952392578125;-0.1192626953125;5.29999998661879;531;100 mA
30.9468769218666;-0.699615478515625;-0.120513916015625;5.30999998659354;532;100 mA
30.9568769218414;-0.69964599609375;-0.119964599609375;5.31999998656829;533;100 mA
30.9668769218162;-0.699615478515625;-0.118682861328125;5.32999998654304;534;100 mA
30.9768769217909;-0.69964599609375;-0.119781494140625;5.3399999865178;535;100 mA
30.9868769217657;-0.699676513671875;-0.11993408203125;5.34999998649255;536;100 mA
30.9968769217404;-0.6995849609375;-0.119537353515625;5.3599999864673;537;100 mA
31.0068769217152;-0.699676513671875;-0.1202392578125;5.36999998644205;538;100 mA
31.0168769216899;-0.699615478515625;-0.1190185546875;5.37999998641681;539;100 mA
31.0268769216647;-0.69964599609375;-0.117584228515625;5.38999998639156;540;100 mA
31.0368769216394;-0.69964599609375;-0.11871337890625;5.39999998636631;541;100 mA
31.0468769216142;-0.699676513671875;-0.118865966796875;5.40999998634106;542;100 mA
31.0568769215889;-0.69964599609375;-0.118316650390625;5.41999998631582;543;100 mA
31.0668769215637;-0.699615478515625;-0.119171142578125;5.42999998629057;544;100 mA
31.0768769215384;-0.699676513671875;-0.11822509765625;5.43999998626532;545;100 mA
31.0868769215132;-0.699615478515625;-0.117584228515625;5.44999998624007;546;100 mA
31.0968769214879;-0.69964599609375;-0.1192626953125;5.45999998621483;547;100 mA
31.1068769214627;-0.699676513671875;-0.11865234375;5.46999998618958;548;100 mA
31.1168769214374;-0.69964599609375;-0.11761474609375;5.47999998616433;549;100 mA
31.1268769214122;-0.699615478515625;-0.118255615234375;5.48999998613908;550;100 mA
31.1368769213869;-0.699615478515625;-0.11737060546875;5.49999998611383;551;100 mA
31.1468769213617;-0.699615478515625;-0.11676025390625;5.50999998608859;552;100 mA
31.1568769213364;-0.699554443359375;-0.1181640625;5.51999998606334;553;100 mA
31.1668769213112;-0.699615478515625;-0.11724853515625;5.52999998603809;554;100 mA
31.176876921286;-0.69964599609375;-0.1160888671875;5.53999998601284;555;100 mA
31.1868769212607;-0.699615478515625;-0.11749267578125;5.5499999859876;556;100 mA
31.1968769212355;-0.69964599609375;-0.1168212890625;5.55999998596235;557;100 mA
31.2068769212102;-0.69964599609375;-0.115570068359375;5.5699999859371;558;100 mA
31.216876921185;-0.6995849609375;-0.11688232421875;5.57999998591185;559;100 mA
31.2268769211597;-0.69964599609375;-0.11663818359375;5.58999998588661;560;100 mA
31.2368769211345;-0.69970703125;-0.11627197265625;5.59999998586136;561;100 mA
31.2468769211092;-0.699615478515625;-0.1180419921875;5.60999998583611;562;100 mA
31.256876921084;-0.6995849609375;-0.11724853515625;5.61999998581086;563;100 mA
31.2668769210587;-0.699615478515625;-0.115753173828125;5.62999998578562;564;100 mA
31.2768769210335;-0.6995849609375;-0.117218017578125;5.63999998576037;565;100 mA
31.2868769210082;-0.699615478515625;-0.1175537109375;5.64999998573512;566;100 mA
31.296876920983;-0.69964599609375;-0.117218017578125;5.65999998570987;567;100 mA
31.3068769209577;-0.69964599609375;-0.118438720703125;5.66999998568463;568;100 mA
31.3168769209325;-0.69964599609375;-0.118133544921875;5.67999998565938;569;100 mA
31.3268769209072;-0.69964599609375;-0.1173095703125;5.68999998563413;570;100 mA
31.336876920882;-0.699615478515625;-0.11846923828125;5.69999998560888;571;100 mA
31.3468769208567;-0.69970703125;-0.118438720703125;5.70999998558364;572;100 mA
31.3568769208315;-0.699615478515625;-0.117401123046875;5.71999998555839;573;100 mA
31.3668769208062;-0.699615478515625;-0.118621826171875;5.72999998553314;574;100 mA
31.376876920781;-0.6995849609375;-0.118560791015625;5.73999998550789;575;100 mA
31.3868769207558;-0.69964599609375;-0.118194580078125;5.74999998548265;576;100 mA
31.3968769207305;-0.69964599609375;-0.119476318359375;5.7599999854574;577;100 mA
31.4068769207053;-0.699615478515625;-0.1187744140625;5.76999998543215;578;100 mA
31.41687692068;-0.699676513671875;-0.11767578125;5.7799999854069;579;100 mA
31.4268769206548;-0.699615478515625;-0.118896484375;5.78999998538166;580;100 mA
31.4368769206295;-0.699615478515625;-0.11810302734375;5.79999998535641;581;100 mA
31.4468769206043;-0.699615478515625;-0.11676025390625;5.80999998533116;582;100 mA
31.456876920579;-0.699615478515625;-0.118194580078125;5.81999998530591;583;100 mA
31.4668769205538;-0.6995849609375;-0.118072509765625;5.82999998528066;584;100 mA
31.4768769205285;-0.699554443359375;-0.11724853515625;5.83999998525542;585;100 mA
31.4868769205033;-0.6995849609375;-0.11865234375;5.84999998523017;586;100 mA
31.496876920478;-0.69964599609375;-0.11810302734375;5.85999998520492;587;100 mA
31.5068769204528;-0.69964599609375;-0.116973876953125;5.86999998517967;588;100 mA
31.5168769204275;-0.699615478515625;-0.118072509765625;5.87999998515443;589;100 mA
31.5268769204023;-0.699676513671875;-0.1181640625;5.88999998512918;590;100 mA
31.536876920377;-0.699615478515625;-0.117095947265625;5.89999998510393;591;100 mA
31.5468769203518;-0.699676513671875;-0.118743896484375;5.90999998507868;592;100 mA
31.5568769203265;-0.69970703125;-0.118316650390625;5.91999998505344;593;100 mA
31.5668769203013;-0.69964599609375;-0.11712646484375;5.92999998502819;594;100 mA
31.576876920276;-0.69964599609375;-0.1185302734375;5.93999998500294;595;100 mA
31.5868769202508;-0.699676513671875;-0.118255615234375;5.94999998497769;596;100 mA
31.5968769202256;-0.699676513671875;-0.11700439453125;5.95999998495245;597;100 mA
31.6068769202003;-0.699615478515625;-0.118194580078125;5.9699999849272;598;100 mA
31.6168769201751;-0.699676513671875;-0.117767333984375;5.97999998490195;599;100 mA
31.6268769201498;-0.6995849609375;-0.11700439453125;5.9899999848767;600;100 mA
31.6368769201246;-0.6995849609375;-0.118255615234375;5.99999998485146;601;100 mA
31.6468769200993;-0.69952392578125;-0.117950439453125;6.00999998482621;602;100 mA
31.6568769200741;-0.699615478515625;-0.11663818359375;6.01999998480096;603;100 mA
31.6668769200488;-0.699615478515625;-0.118133544921875;6.02999998477571;604;100 mA
31.6768769200236;-0.69970703125;-0.11883544921875;6.03999998475047;605;100 mA
31.6868769199983;-0.699615478515625;-0.117767333984375;6.04999998472522;606;100 mA
31.6968769199731;-0.69964599609375;-0.119293212890625;6.05999998469997;607;100 mA
31.7068769199478;-0.69964599609375;-0.119537353515625;6.06999998467472;608;100 mA
31.7168769199226;-0.6995849609375;-0.118408203125;6.07999998464948;609;100 mA
31.7268769198973;-0.699676513671875;-0.11956787109375;6.08999998462423;610;100 mA
31.7368769198721;-0.69964599609375;-0.118743896484375;6.09999998459898;611;100 mA
31.7468769198468;-0.699615478515625;-0.117431640625;6.10999998457373;612;100 mA
31.7568769198216;-0.69964599609375;-0.118743896484375;6.11999998454849;613;100 mA
31.7668769197963;-0.699615478515625;-0.1190185546875;6.12999998452324;614;100 mA
31.7768769197711;-0.699615478515625;-0.118194580078125;6.13999998449799;615;100 mA
31.7868769197459;-0.69970703125;-0.11883544921875;6.14999998447274;616;100 mA
31.7968769197206;-0.699676513671875;-0.117584228515625;6.1599999844475;617;100 mA
31.8068769196954;-0.6995849609375;-0.11627197265625;6.16999998442225;618;100 mA
31.8168769196701;-0.6995849609375;-0.1173095703125;6.179999984397;619;100 mA
31.8268769196449;-0.699615478515625;-0.117095947265625;6.18999998437175;620;100 mA
31.8368769196196;-0.6995849609375;-0.11578369140625;6.1999999843465;621;100 mA
31.8468769195944;-0.69964599609375;-0.11724853515625;6.20999998432126;622;100 mA
31.8568769195691;-0.6995849609375;-0.117706298828125;6.21999998429601;623;100 mA
31.8668769195439;-0.699676513671875;-0.116607666015625;6.22999998427076;624;100 mA
31.8768769195186;-0.69964599609375;-0.1175537109375;6.23999998424551;625;100 mA
31.8868769194934;-0.69964599609375;-0.1171875;6.24999998422027;626;100 mA
31.8968769194681;-0.6995849609375;-0.115570068359375;6.25999998419502;627;100 mA
31.9068769194429;-0.69964599609375;-0.116424560546875;6.26999998416977;628;100 mA
31.9168769194176;-0.699615478515625;-0.116668701171875;6.27999998414452;629;100 mA
31.9268769193924;-0.699615478515625;-0.11572265625;6.28999998411928;630;100 mA
31.9368769193671;-0.699676513671875;-0.1163330078125;6.29999998409403;631;100 mA
31.9468769193419;-0.699615478515625;-0.115631103515625;6.30999998406878;632;100 mA
31.9568769193166;-0.6995849609375;-0.114501953125;6.31999998404353;633;100 mA
31.9668769192914;-0.6995849609375;-0.11572265625;6.32999998401829;634;100 mA
31.9768769192661;-0.6995849609375;-0.115692138671875;6.33999998399304;635;100 mA
31.9868769192409;-0.699615478515625;-0.11474609375;6.34999998396779;636;100 mA
31.9968769192157;-0.699615478515625;-0.11602783203125;6.35999998394254;637;100 mA
32.0068769191904;-0.699615478515625;-0.116058349609375;6.3699999839173;638;100 mA
32.0168769191652;-0.699676513671875;-0.11566162109375;6.37999998389205;639;100 mA
32.0268769191399;-0.69964599609375;-0.117095947265625;6.3899999838668;640;100 mA
32.0368769191147;-0.699676513671875;-0.1170654296875;6.39999998384155;641;100 mA
32.0468769190894;-0.699615478515625;-0.11578369140625;6.40999998381631;642;100 mA
32.0568769190642;-0.699615478515625;-0.117218017578125;6.41999998379106;643;100 mA
32.0668769190389;-0.699615478515625;-0.11712646484375;6.42999998376581;644;100 mA
32.0768769190137;-0.699615478515625;-0.116119384765625;6.43999998374056;645;100 mA
32.0868769189884;-0.6995849609375;-0.11737060546875;6.44999998371532;646;100 mA
32.0968769189632;-0.699615478515625;-0.11688232421875;6.45999998369007;647;100 mA
32.1068769189379;-0.69964599609375;-0.115570068359375;6.46999998366482;648;100 mA
32.1168769189127;-0.69964599609375;-0.117034912109375;6.47999998363957;649;100 mA
32.1268769188874;-0.699615478515625;-0.117095947265625;6.48999998361433;650;100 mA
32.1368769188622;-0.6995849609375;-0.11663818359375;6.49999998358908;651;100 mA
32.1468769188369;-0.699676513671875;-0.117919921875;6.50999998356383;652;100 mA
32.1568769188117;-0.699615478515625;-0.11834716796875;6.51999998353858;653;100 mA
32.1668769187864;-0.69964599609375;-0.117828369140625;6.52999998351333;654;100 mA
32.1768769187612;-0.6995849609375;-0.11871337890625;6.53999998348809;655;100 mA
32.1868769187359;-0.69964599609375;-0.11773681640625;6.54999998346284;656;100 mA
32.1968769187107;-0.699676513671875;-0.116455078125;6.55999998343759;657;100 mA
32.2068769186855;-0.699615478515625;-0.11798095703125;6.56999998341234;658;100 mA
32.2168769186602;-0.699615478515625;-0.117950439453125;6.5799999833871;659;100 mA
32.226876918635;-0.69970703125;-0.117523193359375;6.58999998336185;660;100 mA
32.2368769186097;-0.699615478515625;-0.118560791015625;6.5999999833366;661;100 mA
32.2468769185845;-0.699676513671875;-0.118255615234375;6.60999998331135;662;100 mA
32.2568769185592;-0.69964599609375;-0.117523193359375;6.61999998328611;663;100 mA
32.266876918534;-0.699676513671875;-0.118865966796875;6.62999998326086;664;100 mA
32.2768769185087;-0.6995849609375;-0.118499755859375;6.63999998323561;665;100 mA
32.2868769184835;-0.699676513671875;-0.11676025390625;6.64999998321036;666;100 mA
32.2968769184582;-0.699615478515625;-0.11773681640625;6.65999998318512;667;100 mA
32.306876918433;-0.69964599609375;-0.1180419921875;6.66999998315987;668;100 mA
32.3168769184077;-0.6995849609375;-0.1175537109375;6.67999998313462;669;100 mA
32.3268769183825;-0.6995849609375;-0.118011474609375;6.68999998310937;670;100 mA
32.3368769183572;-0.699676513671875;-0.117431640625;6.69999998308413;671;100 mA
32.346876918332;-0.6995849609375;-0.1165771484375;6.70999998305888;672;100 mA
32.3568769183067;-0.69964599609375;-0.11810302734375;6.71999998303363;673;100 mA
32.3668769182815;-0.69964599609375;-0.11785888671875;6.72999998300838;674;100 mA
32.3768769182562;-0.69964599609375;-0.116363525390625;6.73999998298314;675;100 mA
32.386876918231;-0.69970703125;-0.117218017578125;6.74999998295789;676;100 mA
32.3968769182057;-0.6995849609375;-0.116912841796875;6.75999998293264;677;100 mA
32.4068769181805;-0.69964599609375;-0.11590576171875;6.76999998290739;678;100 mA
32.4168769181553;-0.69964599609375;-0.116668701171875;6.77999998288215;679;100 mA
32.42687691813;-0.69964599609375;-0.115753173828125;6.7899999828569;680;100 mA
32.4368769181048;-0.699676513671875;-0.11468505859375;6.79999998283165;681;100 mA
32.4468769180795;-0.699676513671875;-0.115875244140625;6.8099999828064;682;100 mA
32.4568769180543;-0.699676513671875;-0.1160888671875;6.81999998278116;683;100 mA
32.466876918029;-0.69964599609375;-0.115997314453125;6.82999998275591;684;100 mA
32.4768769180038;-0.699615478515625;-0.116729736328125;6.83999998273066;685;100 mA
32.4868769179785;-0.699615478515625;-0.1160888671875;6.84999998270541;686;100 mA
32.4968769179533;-0.699737548828125;-0.115692138671875;6.85999998268016;687;100 mA
32.506876917928;-0.69964599609375;-0.117034912109375;6.86999998265492;688;100 mA
32.5168769179028;-0.699615478515625;-0.116424560546875;6.87999998262967;689;100 mA
32.5268769178775;-0.699676513671875;-0.114776611328125;6.88999998260442;690;100 mA
32.5368769178523;-0.69964599609375;-0.1158447265625;6.89999998257917;691;100 mA
32.546876917827;-0.699676513671875;-0.11627197265625;6.90999998255393;692;100 mA
32.5568769178018;-0.699676513671875;-0.116241455078125;6.91999998252868;693;100 mA
32.5668769177765;-0.699615478515625;-0.117462158203125;6.92999998250343;694;100 mA
32.5768769177513;-0.699737548828125;-0.116485595703125;6.93999998247818;695;100 mA
32.586876917726;-0.699676513671875;-0.11517333984375;6.94999998245294;696;100 mA
32.5968769177008;-0.699615478515625;-0.116058349609375;6.95999998242769;697;100 mA
32.6068769176755;-0.69964599609375;-0.11669921875;6.96999998240244;698;100 mA
32.6168769176503;-0.69964599609375;-0.11688232421875;6.97999998237719;699;100 mA
32.6268769176251;-0.699615478515625;-0.118072509765625;6.98999998235195;700;100 mA
