Time (s);WE(1).Potential (V);WE(1).Current (A);Corrected time (s);Index;Current range
48.2931428780715;-0.80047607421875;-0.315155029296875;0;1;100 mA
48.3031428780463;-0.8001708984375;-0.242889404296875;0.00999999997475243;2;100 mA
48.313142878021;-0.79986572265625;-0.207794189453125;0.0199999999495049;3;100 mA
48.3231428779958;-0.79925537109375;-0.1844482421875;0.0299999999242573;4;100 mA
48.3331428779705;-0.799560546875;-0.173004150390625;0.0399999998990097;5;100 mA
48.3431428779453;-0.799560546875;-0.163330078125;0.0499999998737621;6;100 mA
48.35314287792;-0.79925537109375;-0.157379150390625;0.0599999998485146;7;100 mA
48.3631428778948;-0.79925537109375;-0.15618896484375;0.069999999823267;8;100 mA
48.3731428778696;-0.79925537109375;-0.152435302734375;0.0799999997980194;9;100 mA
48.3831428778443;-0.8001708984375;-0.1513671875;0.0899999997727718;10;100 mA
48.3931428778191;-0.79925537109375;-0.15142822265625;0.0999999997475243;11;100 mA
48.4031428777938;-0.799560546875;-0.1483154296875;0.109999999722277;12;100 mA
48.4131428777686;-0.79925537109375;-0.146514892578125;0.119999999697029;13;100 mA
48.4231428777433;-0.79925537109375;-0.1453857421875;0.129999999671782;14;100 mA
48.4331428777181;-0.799560546875;-0.1414794921875;0.139999999646534;15;100 mA
48.4431428776928;-0.79986572265625;-0.140411376953125;0.149999999621286;16;100 mA
48.4531428776676;-0.799560546875;-0.142120361328125;0.159999999596039;17;100 mA
48.4631428776423;-0.79986572265625;-0.140228271484375;0.169999999570791;18;100 mA
48.4731428776171;-0.79986572265625;-0.139617919921875;0.179999999545544;19;100 mA
48.4831428775918;-0.79925537109375;-0.14141845703125;0.189999999520296;20;100 mA
48.4931428775666;-0.799560546875;-0.1402587890625;0.199999999495049;21;100 mA
48.5031428775413;-0.79925537109375;-0.14013671875;0.209999999469801;22;100 mA
48.5131428775161;-0.7989501953125;-0.143890380859375;0.219999999444553;23;100 mA
48.5231428774908;-0.79925537109375;-0.1395263671875;0.229999999419306;24;100 mA
48.5331428774656;-0.79925537109375;-0.13946533203125;0.239999999394058;25;100 mA
48.5431428774403;-0.799560546875;-0.14044189453125;0.249999999368811;26;100 mA
48.5531428774151;-0.799560546875;-0.13922119140625;0.259999999343563;27;100 mA
48.5631428773899;-0.799560546875;-0.13916015625;0.269999999318316;28;100 mA
48.5731428773646;-0.799560546875;-0.1405029296875;0.279999999293068;29;100 mA
48.5831428773394;-0.799560546875;-0.13739013671875;0.28999999926782;30;100 mA
48.5931428773141;-0.799560546875;-0.137359619140625;0.299999999242573;31;100 mA
48.6031428772889;-0.799560546875;-0.1392822265625;0.309999999217325;32;100 mA
48.6131428772636;-0.8001708984375;-0.13720703125;0.319999999192078;33;100 mA
48.6231428772384;-0.799560546875;-0.137054443359375;0.32999999916683;34;100 mA
48.6331428772131;-0.799560546875;-0.138946533203125;0.339999999141583;35;100 mA
48.6431428771879;-0.799560546875;-0.13763427734375;0.349999999116335;36;100 mA
48.6531428771626;-0.79986572265625;-0.13775634765625;0.359999999091087;37;100 mA
48.6631428771374;-0.79986572265625;-0.140625;0.36999999906584;38;100 mA
48.6731428771121;-0.799560546875;-0.1370849609375;0.379999999040592;39;100 mA
48.6831428770869;-0.79986572265625;-0.1373291015625;0.389999999015345;40;100 mA
48.6931428770616;-0.799560546875;-0.1397705078125;0.399999998990097;41;100 mA
48.7031428770364;-0.799560546875;-0.140228271484375;0.40999999896485;42;100 mA
48.7131428770111;-0.8001708984375;-0.140594482421875;0.419999998939602;43;100 mA
48.7231428769859;-0.799560546875;-0.142059326171875;0.429999998914354;44;100 mA
48.7331428769606;-0.799560546875;-0.138671875;0.439999998889107;45;100 mA
48.7431428769354;-0.799560546875;-0.13861083984375;0.449999998863859;46;100 mA
48.7531428769101;-0.7989501953125;-0.1409912109375;0.459999998838612;47;100 mA
48.7631428768849;-0.79925537109375;-0.13836669921875;0.469999998813364;48;100 mA
48.7731428768597;-0.79986572265625;-0.139007568359375;0.479999998788116;49;100 mA
48.7831428768344;-0.8001708984375;-0.14068603515625;0.489999998762869;50;100 mA
48.7931428768092;-0.799560546875;-0.13824462890625;0.499999998737621;51;100 mA
48.8031428767839;-0.79986572265625;-0.13739013671875;0.509999998712374;52;100 mA
48.8131428767587;-0.799560546875;-0.13836669921875;0.519999998687126;53;100 mA
48.8231428767334;-0.79986572265625;-0.13470458984375;0.529999998661879;54;100 mA
48.8331428767082;-0.79986572265625;-0.136383056640625;0.539999998636631;55;100 mA
48.8431428766829;-0.799560546875;-0.14013671875;0.549999998611383;56;100 mA
48.8531428766577;-0.79925537109375;-0.13885498046875;0.559999998586136;57;100 mA
48.8631428766324;-0.79986572265625;-0.1376953125;0.569999998560888;58;100 mA
48.8731428766072;-0.8001708984375;-0.13946533203125;0.579999998535641;59;100 mA
48.8831428765819;-0.799560546875;-0.1370849609375;0.589999998510393;60;100 mA
48.8931428765567;-0.79986572265625;-0.136322021484375;0.599999998485146;61;100 mA
48.9031428765314;-0.8001708984375;-0.138336181640625;0.609999998459898;62;100 mA
48.9131428765062;-0.799560546875;-0.134979248046875;0.61999999843465;63;100 mA
48.9231428764809;-0.799560546875;-0.1358642578125;0.629999998409403;64;100 mA
48.9331428764557;-0.79925537109375;-0.1385498046875;0.639999998384155;65;100 mA
48.9431428764304;-0.799560546875;-0.137054443359375;0.649999998358908;66;100 mA
48.9531428764052;-0.799560546875;-0.135986328125;0.65999999833366;67;100 mA
48.9631428763799;-0.79925537109375;-0.137115478515625;0.669999998308413;68;100 mA
48.9731428763547;-0.8001708984375;-0.133148193359375;0.679999998283165;69;100 mA
48.9831428763295;-0.79986572265625;-0.133514404296875;0.689999998257917;70;100 mA
48.9931428763042;-0.799560546875;-0.137176513671875;0.69999999823267;71;100 mA
49.003142876279;-0.79925537109375;-0.134765625;0.709999998207422;72;100 mA
49.0131428762537;-0.79986572265625;-0.134307861328125;0.719999998182175;73;100 mA
49.0231428762285;-0.79986572265625;-0.13751220703125;0.729999998156927;74;100 mA
49.0331428762032;-0.79925537109375;-0.136962890625;0.73999999813168;75;100 mA
49.043142876178;-0.79986572265625;-0.13604736328125;0.749999998106432;76;100 mA
49.0531428761527;-0.79925537109375;-0.139617919921875;0.759999998081184;77;100 mA
49.0631428761275;-0.799560546875;-0.135711669921875;0.769999998055937;78;100 mA
49.0731428761022;-0.79925537109375;-0.13629150390625;0.779999998030689;79;100 mA
49.083142876077;-0.79986572265625;-0.13873291015625;0.789999998005442;80;100 mA
49.0931428760517;-0.799560546875;-0.138824462890625;0.799999997980194;81;100 mA
49.1031428760265;-0.799560546875;-0.138092041015625;0.809999997954947;82;100 mA
49.1131428760012;-0.79925537109375;-0.1390380859375;0.819999997929699;83;100 mA
49.123142875976;-0.7989501953125;-0.13616943359375;0.829999997904451;84;100 mA
49.1331428759507;-0.799560546875;-0.13641357421875;0.839999997879204;85;100 mA
49.1431428759255;-0.79986572265625;-0.1387939453125;0.849999997853956;86;100 mA
49.1531428759002;-0.79986572265625;-0.135498046875;0.859999997828709;87;100 mA
49.163142875875;-0.79986572265625;-0.13470458984375;0.869999997803461;88;100 mA
49.1731428758497;-0.799560546875;-0.137237548828125;0.879999997778214;89;100 mA
49.1831428758245;-0.799560546875;-0.13739013671875;0.889999997752966;90;100 mA
49.1931428757993;-0.799560546875;-0.13775634765625;0.899999997727718;91;100 mA
49.203142875774;-0.799560546875;-0.139923095703125;0.909999997702471;92;100 mA
49.2131428757488;-0.79925537109375;-0.1356201171875;0.919999997677223;93;100 mA
49.2231428757235;-0.799560546875;-0.136322021484375;0.929999997651976;94;100 mA
49.2331428756983;-0.799560546875;-0.137237548828125;0.939999997626728;95;100 mA
49.243142875673;-0.799560546875;-0.13580322265625;0.949999997601481;96;100 mA
49.2531428756478;-0.799560546875;-0.13580322265625;0.959999997576233;97;100 mA
49.2631428756225;-0.79925537109375;-0.13763427734375;0.969999997550985;98;100 mA
49.2731428755973;-0.799560546875;-0.13482666015625;0.979999997525738;99;100 mA
49.283142875572;-0.79925537109375;-0.134918212890625;0.98999999750049;100;100 mA
49.2931428755468;-0.79986572265625;-0.13702392578125;0.999999997475243;101;100 mA
49.3031428755215;-0.79925537109375;-0.1341552734375;1.00999999745;102;100 mA
49.3131428754963;-0.79925537109375;-0.134246826171875;1.01999999742475;103;100 mA
49.323142875471;-0.799560546875;-0.136962890625;1.0299999973995;104;100 mA
49.3331428754458;-0.799560546875;-0.13604736328125;1.03999999737425;105;100 mA
49.3431428754205;-0.79986572265625;-0.135772705078125;1.049999997349;106;100 mA
49.3531428753953;-0.799560546875;-0.138641357421875;1.05999999732376;107;100 mA
49.36314287537;-0.799560546875;-0.13427734375;1.06999999729851;108;100 mA
49.3731428753448;-0.79925537109375;-0.13433837890625;1.07999999727326;109;100 mA
49.3831428753195;-0.79986572265625;-0.1373291015625;1.08999999724801;110;100 mA
49.3931428752943;-0.79925537109375;-0.135894775390625;1.09999999722277;111;100 mA
49.4031428752691;-0.79986572265625;-0.1363525390625;1.10999999719752;112;100 mA
49.4131428752438;-0.799560546875;-0.1383056640625;1.11999999717227;113;100 mA
49.4231428752186;-0.799560546875;-0.13555908203125;1.12999999714702;114;100 mA
49.4331428751933;-0.79925537109375;-0.13580322265625;1.13999999712178;115;100 mA
49.4431428751681;-0.799560546875;-0.13800048828125;1.14999999709653;116;100 mA
49.4531428751428;-0.799560546875;-0.13372802734375;1.15999999707128;117;100 mA
49.4631428751176;-0.799560546875;-0.1334228515625;1.16999999704603;118;100 mA
49.4731428750923;-0.79986572265625;-0.135406494140625;1.17999999702079;119;100 mA
49.4831428750671;-0.799560546875;-0.134613037109375;1.18999999699554;120;100 mA
49.4931428750418;-0.79925537109375;-0.13446044921875;1.19999999697029;121;100 mA
49.5031428750166;-0.79925537109375;-0.13568115234375;1.20999999694504;122;100 mA
49.5131428749913;-0.799560546875;-0.1318359375;1.2199999969198;123;100 mA
49.5231428749661;-0.79925537109375;-0.13250732421875;1.22999999689455;124;100 mA
49.5331428749408;-0.8001708984375;-0.1353759765625;1.2399999968693;125;100 mA
49.5431428749156;-0.79986572265625;-0.133056640625;1.24999999684405;126;100 mA
49.5531428748903;-0.79925537109375;-0.1341552734375;1.25999999681881;127;100 mA
49.5631428748651;-0.79925537109375;-0.137420654296875;1.26999999679356;128;100 mA
49.5731428748398;-0.79925537109375;-0.136749267578125;1.27999999676831;129;100 mA
49.5831428748146;-0.799560546875;-0.1363525390625;1.28999999674306;130;100 mA
49.5931428747894;-0.79925537109375;-0.138275146484375;1.29999999671782;131;100 mA
49.6031428747641;-0.79986572265625;-0.133636474609375;1.30999999669257;132;100 mA
49.6131428747389;-0.79986572265625;-0.133941650390625;1.31999999666732;133;100 mA
49.6231428747136;-0.799560546875;-0.137176513671875;1.32999999664207;134;100 mA
49.6331428746884;-0.79925537109375;-0.136505126953125;1.33999999661683;135;100 mA
49.6431428746631;-0.8001708984375;-0.136322021484375;1.34999999659158;136;100 mA
49.6531428746379;-0.79986572265625;-0.1392822265625;1.35999999656633;137;100 mA
49.6631428746126;-0.7989501953125;-0.136505126953125;1.36999999654108;138;100 mA
49.6731428745874;-0.799560546875;-0.13568115234375;1.37999999651583;139;100 mA
49.6831428745621;-0.79986572265625;-0.1383056640625;1.38999999649059;140;100 mA
49.6931428745369;-0.79925537109375;-0.135955810546875;1.39999999646534;141;100 mA
49.7031428745116;-0.79925537109375;-0.13555908203125;1.40999999644009;142;100 mA
49.7131428744864;-0.799560546875;-0.137939453125;1.41999999641484;143;100 mA
49.7231428744611;-0.79925537109375;-0.135955810546875;1.4299999963896;144;100 mA
49.7331428744359;-0.799560546875;-0.134674072265625;1.43999999636435;145;100 mA
49.7431428744106;-0.79925537109375;-0.136810302734375;1.4499999963391;146;100 mA
49.7531428743854;-0.799560546875;-0.13421630859375;1.45999999631385;147;100 mA
49.7631428743601;-0.79986572265625;-0.134429931640625;1.46999999628861;148;100 mA
49.7731428743349;-0.79986572265625;-0.136383056640625;1.47999999626336;149;100 mA
49.7831428743096;-0.799560546875;-0.134735107421875;1.48999999623811;150;100 mA
49.7931428742844;-0.799560546875;-0.135223388671875;1.49999999621286;151;100 mA
49.8031428742592;-0.79925537109375;-0.137054443359375;1.50999999618762;152;100 mA
49.8131428742339;-0.79986572265625;-0.135833740234375;1.51999999616237;153;100 mA
49.8231428742087;-0.8001708984375;-0.1351318359375;1.52999999613712;154;100 mA
49.8331428741834;-0.79925537109375;-0.1368408203125;1.53999999611187;155;100 mA
49.8431428741582;-0.799560546875;-0.13330078125;1.54999999608663;156;100 mA
49.8531428741329;-0.79925537109375;-0.132354736328125;1.55999999606138;157;100 mA
49.8631428741077;-0.799560546875;-0.13519287109375;1.56999999603613;158;100 mA
49.8731428740824;-0.799560546875;-0.13482666015625;1.57999999601088;159;100 mA
49.8831428740572;-0.79986572265625;-0.1331787109375;1.58999999598564;160;100 mA
49.8931428740319;-0.79925537109375;-0.133941650390625;1.59999999596039;161;100 mA
49.9031428740067;-0.799560546875;-0.13104248046875;1.60999999593514;162;100 mA
49.9131428739814;-0.79925537109375;-0.131134033203125;1.61999999590989;163;100 mA
49.9231428739562;-0.79925537109375;-0.133331298828125;1.62999999588465;164;100 mA
49.9331428739309;-0.79925537109375;-0.13134765625;1.6399999958594;165;100 mA
49.9431428739057;-0.799560546875;-0.131591796875;1.64999999583415;166;100 mA
49.9531428738804;-0.799560546875;-0.13360595703125;1.6599999958089;167;100 mA
49.9631428738552;-0.799560546875;-0.13226318359375;1.66999999578366;168;100 mA
49.9731428738299;-0.79986572265625;-0.132354736328125;1.67999999575841;169;100 mA
49.9831428738047;-0.7989501953125;-0.134552001953125;1.68999999573316;170;100 mA
49.9931428737794;-0.79925537109375;-0.131866455078125;1.69999999570791;171;100 mA
50.0031428737542;-0.79925537109375;-0.13189697265625;1.70999999568267;172;100 mA
50.013142873729;-0.799560546875;-0.133575439453125;1.71999999565742;173;100 mA
50.0231428737037;-0.799560546875;-0.131378173828125;1.72999999563217;174;100 mA
50.0331428736785;-0.79925537109375;-0.130645751953125;1.73999999560692;175;100 mA
50.0431428736532;-0.79925537109375;-0.133087158203125;1.74999999558167;176;100 mA
50.053142873628;-0.799560546875;-0.13140869140625;1.75999999555643;177;100 mA
50.0631428736027;-0.79925537109375;-0.131134033203125;1.76999999553118;178;100 mA
50.0731428735775;-0.79925537109375;-0.1326904296875;1.77999999550593;179;100 mA
50.0831428735522;-0.799560546875;-0.1298828125;1.78999999548068;180;100 mA
50.093142873527;-0.7989501953125;-0.1309814453125;1.79999999545544;181;100 mA
50.1031428735017;-0.8001708984375;-0.134613037109375;1.80999999543019;182;100 mA
50.1131428734765;-0.79864501953125;-0.13385009765625;1.81999999540494;183;100 mA
50.1231428734512;-0.799560546875;-0.133697509765625;1.82999999537969;184;100 mA
50.133142873426;-0.799560546875;-0.1348876953125;1.83999999535445;185;100 mA
50.1431428734007;-0.799560546875;-0.13140869140625;1.8499999953292;186;100 mA
50.1531428733755;-0.79925537109375;-0.13079833984375;1.85999999530395;187;100 mA
50.1631428733502;-0.8001708984375;-0.1334228515625;1.8699999952787;188;100 mA
50.173142873325;-0.79925537109375;-0.13262939453125;1.87999999525346;189;100 mA
50.1831428732997;-0.799560546875;-0.132110595703125;1.88999999522821;190;100 mA
50.1931428732745;-0.8001708984375;-0.13446044921875;1.89999999520296;191;100 mA
50.2031428732492;-0.79986572265625;-0.1326904296875;1.90999999517771;192;100 mA
50.213142873224;-0.79986572265625;-0.132354736328125;1.91999999515247;193;100 mA
50.2231428731988;-0.79986572265625;-0.134613037109375;1.92999999512722;194;100 mA
50.2331428731735;-0.79925537109375;-0.130828857421875;1.93999999510197;195;100 mA
50.2431428731483;-0.799560546875;-0.1309814453125;1.94999999507672;196;100 mA
50.253142873123;-0.79925537109375;-0.132965087890625;1.95999999505148;197;100 mA
50.2631428730978;-0.79986572265625;-0.1322021484375;1.96999999502623;198;100 mA
50.2731428730725;-0.799560546875;-0.132080078125;1.97999999500098;199;100 mA
50.2831428730473;-0.79986572265625;-0.133453369140625;1.98999999497573;200;100 mA
50.293142873022;-0.799560546875;-0.130523681640625;1.99999999495049;201;100 mA
50.3031428729968;-0.79986572265625;-0.130523681640625;2.00999999492524;202;100 mA
50.3131428729715;-0.79986572265625;-0.13189697265625;2.01999999489999;203;100 mA
50.3231428729463;-0.8001708984375;-0.129913330078125;2.02999999487474;204;100 mA
50.333142872921;-0.79925537109375;-0.1302490234375;2.0399999948495;205;100 mA
50.3431428728958;-0.79925537109375;-0.131805419921875;2.04999999482425;206;100 mA
50.3531428728705;-0.79925537109375;-0.130706787109375;2.059999994799;207;100 mA
50.3631428728453;-0.799560546875;-0.130340576171875;2.06999999477375;208;100 mA
50.37314287282;-0.799560546875;-0.132537841796875;2.0799999947485;209;100 mA
50.3831428727948;-0.79925537109375;-0.12908935546875;2.08999999472326;210;100 mA
50.3931428727695;-0.799560546875;-0.128448486328125;2.09999999469801;211;100 mA
50.4031428727443;-0.799560546875;-0.13043212890625;2.10999999467276;212;100 mA
50.413142872719;-0.799560546875;-0.12994384765625;2.11999999464751;213;100 mA
50.4231428726938;-0.799560546875;-0.13067626953125;2.12999999462227;214;100 mA
50.4331428726686;-0.799560546875;-0.13385009765625;2.13999999459702;215;100 mA
50.4431428726433;-0.79986572265625;-0.131866455078125;2.14999999457177;216;100 mA
50.4531428726181;-0.79925537109375;-0.13140869140625;2.15999999454652;217;100 mA
50.4631428725928;-0.79986572265625;-0.13287353515625;2.16999999452128;218;100 mA
50.4731428725676;-0.79986572265625;-0.130340576171875;2.17999999449603;219;100 mA
50.4831428725423;-0.79925537109375;-0.12957763671875;2.18999999447078;220;100 mA
50.4931428725171;-0.79986572265625;-0.130859375;2.19999999444553;221;100 mA
50.5031428724918;-0.79925537109375;-0.12945556640625;2.20999999442029;222;100 mA
50.5131428724666;-0.7989501953125;-0.128173828125;2.21999999439504;223;100 mA
50.5231428724413;-0.7989501953125;-0.1298828125;2.22999999436979;224;100 mA
50.5331428724161;-0.79986572265625;-0.127166748046875;2.23999999434454;225;100 mA
50.5431428723908;-0.799560546875;-0.12762451171875;2.2499999943193;226;100 mA
50.5531428723656;-0.79925537109375;-0.129608154296875;2.25999999429405;227;100 mA
50.5631428723403;-0.799560546875;-0.1279296875;2.2699999942688;228;100 mA
50.5731428723151;-0.799560546875;-0.128662109375;2.27999999424355;229;100 mA
50.5831428722898;-0.799560546875;-0.13079833984375;2.28999999421831;230;100 mA
50.5931428722646;-0.79925537109375;-0.129608154296875;2.29999999419306;231;100 mA
50.6031428722393;-0.79925537109375;-0.12896728515625;2.30999999416781;232;100 mA
50.6131428722141;-0.799560546875;-0.1300048828125;2.31999999414256;233;100 mA
50.6231428721889;-0.799560546875;-0.12677001953125;2.32999999411732;234;100 mA
50.6331428721636;-0.79986572265625;-0.127105712890625;2.33999999409207;235;100 mA
50.6431428721384;-0.799560546875;-0.12896728515625;2.34999999406682;236;100 mA
50.6531428721131;-0.79925537109375;-0.128387451171875;2.35999999404157;237;100 mA
50.6631428720879;-0.79925537109375;-0.127685546875;2.36999999401633;238;100 mA
50.6731428720626;-0.79986572265625;-0.129547119140625;2.37999999399108;239;100 mA
50.6831428720374;-0.79986572265625;-0.127960205078125;2.38999999396583;240;100 mA
50.6931428720121;-0.799560546875;-0.12713623046875;2.39999999394058;241;100 mA
50.7031428719869;-0.79925537109375;-0.129730224609375;2.40999999391533;242;100 mA
50.7131428719616;-0.799560546875;-0.128875732421875;2.41999999389009;243;100 mA
50.7231428719364;-0.79925537109375;-0.12786865234375;2.42999999386484;244;100 mA
50.7331428719111;-0.79986572265625;-0.128875732421875;2.43999999383959;245;100 mA
50.7431428718859;-0.799560546875;-0.126861572265625;2.44999999381434;246;100 mA
50.7531428718606;-0.799560546875;-0.126617431640625;2.4599999937891;247;100 mA
50.7631428718354;-0.799560546875;-0.128814697265625;2.46999999376385;248;100 mA
50.7731428718101;-0.79986572265625;-0.12554931640625;2.4799999937386;249;100 mA
50.7831428717849;-0.799560546875;-0.12554931640625;2.48999999371335;250;100 mA
50.7931428717596;-0.79925537109375;-0.127655029296875;2.49999999368811;251;100 mA
50.8031428717344;-0.79925537109375;-0.126220703125;2.50999999366286;252;100 mA
50.8131428717091;-0.79986572265625;-0.1258544921875;2.51999999363761;253;100 mA
50.8231428716839;-0.79925537109375;-0.12786865234375;2.52999999361236;254;100 mA
50.8331428716587;-0.79986572265625;-0.126678466796875;2.53999999358712;255;100 mA
50.8431428716334;-0.799560546875;-0.126708984375;2.54999999356187;256;100 mA
50.8531428716082;-0.799560546875;-0.1282958984375;2.55999999353662;257;100 mA
50.8631428715829;-0.799560546875;-0.1260986328125;2.56999999351137;258;100 mA
50.8731428715577;-0.799560546875;-0.12603759765625;2.57999999348613;259;100 mA
50.8831428715324;-0.79925537109375;-0.1278076171875;2.58999999346088;260;100 mA
50.8931428715072;-0.799560546875;-0.1268310546875;2.59999999343563;261;100 mA
50.9031428714819;-0.799560546875;-0.126678466796875;2.60999999341038;262;100 mA
50.9131428714567;-0.799560546875;-0.129425048828125;2.61999999338514;263;100 mA
50.9231428714314;-0.79925537109375;-0.127349853515625;2.62999999335989;264;100 mA
50.9331428714062;-0.799560546875;-0.12738037109375;2.63999999333464;265;100 mA
50.9431428713809;-0.79925537109375;-0.129791259765625;2.64999999330939;266;100 mA
50.9531428713557;-0.799560546875;-0.128814697265625;2.65999999328415;267;100 mA
50.9631428713304;-0.799560546875;-0.128021240234375;2.6699999932589;268;100 mA
50.9731428713052;-0.79925537109375;-0.1297607421875;2.67999999323365;269;100 mA
50.9831428712799;-0.79925537109375;-0.128662109375;2.6899999932084;270;100 mA
50.9931428712547;-0.79986572265625;-0.12786865234375;2.69999999318316;271;100 mA
51.0031428712294;-0.79986572265625;-0.12939453125;2.70999999315791;272;100 mA
51.0131428712042;-0.79925537109375;-0.128021240234375;2.71999999313266;273;100 mA
51.0231428711789;-0.79986572265625;-0.1287841796875;2.72999999310741;274;100 mA
51.0331428711537;-0.79925537109375;-0.13043212890625;2.73999999308217;275;100 mA
51.0431428711285;-0.79986572265625;-0.1298828125;2.74999999305692;276;100 mA
51.0531428711032;-0.799560546875;-0.129241943359375;2.75999999303167;277;100 mA
51.063142871078;-0.79986572265625;-0.130401611328125;2.76999999300642;278;100 mA
51.0731428710527;-0.799560546875;-0.12835693359375;2.77999999298117;279;100 mA
51.0831428710275;-0.799560546875;-0.128265380859375;2.78999999295593;280;100 mA
51.0931428710022;-0.79925537109375;-0.12945556640625;2.79999999293068;281;100 mA
51.103142870977;-0.799560546875;-0.12872314453125;2.80999999290543;282;100 mA
51.1131428709517;-0.799560546875;-0.128936767578125;2.81999999288018;283;100 mA
51.1231428709265;-0.799560546875;-0.131256103515625;2.82999999285494;284;100 mA
51.1331428709012;-0.8001708984375;-0.130706787109375;2.83999999282969;285;100 mA
51.143142870876;-0.79925537109375;-0.129730224609375;2.84999999280444;286;100 mA
51.1531428708507;-0.799560546875;-0.1314697265625;2.85999999277919;287;100 mA
51.1631428708255;-0.79925537109375;-0.12896728515625;2.86999999275395;288;100 mA
51.1731428708002;-0.79925537109375;-0.128753662109375;2.8799999927287;289;100 mA
51.183142870775;-0.79986572265625;-0.131072998046875;2.88999999270345;290;100 mA
51.1931428707497;-0.79986572265625;-0.130035400390625;2.8999999926782;291;100 mA
51.2031428707245;-0.79925537109375;-0.128875732421875;2.90999999265296;292;100 mA
51.2131428706992;-0.79986572265625;-0.129913330078125;2.91999999262771;293;100 mA
51.223142870674;-0.7989501953125;-0.127044677734375;2.92999999260246;294;100 mA
51.2331428706487;-0.799560546875;-0.12646484375;2.93999999257721;295;100 mA
51.2431428706235;-0.799560546875;-0.128662109375;2.94999999255197;296;100 mA
51.2531428705983;-0.799560546875;-0.127288818359375;2.95999999252672;297;100 mA
51.263142870573;-0.7989501953125;-0.12774658203125;2.96999999250147;298;100 mA
51.2731428705478;-0.799560546875;-0.1304931640625;2.97999999247622;299;100 mA
51.2831428705225;-0.799560546875;-0.129669189453125;2.98999999245098;300;100 mA
51.2931428704973;-0.799560546875;-0.12921142578125;2.99999999242573;301;100 mA
51.303142870472;-0.79986572265625;-0.132080078125;3.00999999240048;302;100 mA
51.3131428704468;-0.7989501953125;-0.12908935546875;3.01999999237523;303;100 mA
51.3231428704215;-0.79925537109375;-0.1280517578125;3.02999999234999;304;100 mA
51.3331428703963;-0.79986572265625;-0.130584716796875;3.03999999232474;305;100 mA
51.343142870371;-0.79986572265625;-0.130035400390625;3.04999999229949;306;100 mA
51.3531428703458;-0.79986572265625;-0.12921142578125;3.05999999227424;307;100 mA
51.3631428703205;-0.79986572265625;-0.131439208984375;3.069999992249;308;100 mA
51.3731428702953;-0.79986572265625;-0.1300048828125;3.07999999222375;309;100 mA
51.38314287027;-0.79986572265625;-0.129730224609375;3.0899999921985;310;100 mA
51.3931428702448;-0.79925537109375;-0.13189697265625;3.09999999217325;311;100 mA
51.4031428702195;-0.799560546875;-0.129608154296875;3.109999992148;312;100 mA
51.4131428701943;-0.7989501953125;-0.12890625;3.11999999212276;313;100 mA
51.423142870169;-0.79925537109375;-0.1304931640625;3.12999999209751;314;100 mA
51.4331428701438;-0.7989501953125;-0.12896728515625;3.13999999207226;315;100 mA
51.4431428701185;-0.79986572265625;-0.127349853515625;3.14999999204701;316;100 mA
51.4531428700933;-0.799560546875;-0.129425048828125;3.15999999202177;317;100 mA
51.4631428700681;-0.799560546875;-0.1282958984375;3.16999999199652;318;100 mA
51.4731428700428;-0.799560546875;-0.127899169921875;3.17999999197127;319;100 mA
51.4831428700176;-0.79925537109375;-0.130096435546875;3.18999999194602;320;100 mA
51.4931428699923;-0.79925537109375;-0.128692626953125;3.19999999192078;321;100 mA
51.5031428699671;-0.799560546875;-0.127777099609375;3.20999999189553;322;100 mA
51.5131428699418;-0.799560546875;-0.129150390625;3.21999999187028;323;100 mA
51.5231428699166;-0.8001708984375;-0.127777099609375;3.22999999184503;324;100 mA
51.5331428698913;-0.799560546875;-0.126495361328125;3.23999999181979;325;100 mA
51.5431428698661;-0.79986572265625;-0.12933349609375;3.24999999179454;326;100 mA
51.5531428698408;-0.79925537109375;-0.128021240234375;3.25999999176929;327;100 mA
51.5631428698156;-0.79986572265625;-0.127532958984375;3.26999999174404;328;100 mA
51.5731428697903;-0.799560546875;-0.1290283203125;3.2799999917188;329;100 mA
51.5831428697651;-0.799560546875;-0.127960205078125;3.28999999169355;330;100 mA
51.5931428697398;-0.799560546875;-0.126953125;3.2999999916683;331;100 mA
51.6031428697146;-0.79925537109375;-0.12896728515625;3.30999999164305;332;100 mA
51.6131428696893;-0.799560546875;-0.128570556640625;3.31999999161781;333;100 mA
51.6231428696641;-0.799560546875;-0.12811279296875;3.32999999159256;334;100 mA
51.6331428696388;-0.79925537109375;-0.128692626953125;3.33999999156731;335;100 mA
51.6431428696136;-0.8001708984375;-0.126251220703125;3.34999999154206;336;100 mA
51.6531428695884;-0.79986572265625;-0.126068115234375;3.35999999151682;337;100 mA
51.6631428695631;-0.799560546875;-0.1280517578125;3.36999999149157;338;100 mA
51.6731428695379;-0.79925537109375;-0.127349853515625;3.37999999146632;339;100 mA
51.6831428695126;-0.79925537109375;-0.12677001953125;3.38999999144107;340;100 mA
51.6931428694874;-0.7989501953125;-0.12823486328125;3.39999999141583;341;100 mA
51.7031428694621;-0.79925537109375;-0.12579345703125;3.40999999139058;342;100 mA
51.7131428694369;-0.79986572265625;-0.125396728515625;3.41999999136533;343;100 mA
51.7231428694116;-0.79925537109375;-0.12664794921875;3.42999999134008;344;100 mA
51.7331428693864;-0.799560546875;-0.125701904296875;3.43999999131483;345;100 mA
51.7431428693611;-0.8001708984375;-0.125885009765625;3.44999999128959;346;100 mA
51.7531428693359;-0.799560546875;-0.1278076171875;3.45999999126434;347;100 mA
51.7631428693106;-0.79925537109375;-0.12646484375;3.46999999123909;348;100 mA
51.7731428692854;-0.79986572265625;-0.1263427734375;3.47999999121384;349;100 mA
51.7831428692601;-0.799560546875;-0.128326416015625;3.4899999911886;350;100 mA
51.7931428692349;-0.799560546875;-0.12652587890625;3.49999999116335;351;100 mA
51.8031428692096;-0.79925537109375;-0.126495361328125;3.5099999911381;352;100 mA
51.8131428691844;-0.799560546875;-0.1279296875;3.51999999111285;353;100 mA
51.8231428691591;-0.79925537109375;-0.127288818359375;3.52999999108761;354;100 mA
51.8331428691339;-0.79986572265625;-0.126861572265625;3.53999999106236;355;100 mA
51.8431428691086;-0.79925537109375;-0.12890625;3.54999999103711;356;100 mA
51.8531428690834;-0.79986572265625;-0.127532958984375;3.55999999101186;357;100 mA
51.8631428690582;-0.7989501953125;-0.127105712890625;3.56999999098662;358;100 mA
51.8731428690329;-0.799560546875;-0.127960205078125;3.57999999096137;359;100 mA
51.8831428690077;-0.79925537109375;-0.12603759765625;3.58999999093612;360;100 mA
51.8931428689824;-0.79986572265625;-0.1260986328125;3.59999999091087;361;100 mA
51.9031428689572;-0.79986572265625;-0.127410888671875;3.60999999088563;362;100 mA
51.9131428689319;-0.799560546875;-0.126678466796875;3.61999999086038;363;100 mA
51.9231428689067;-0.799560546875;-0.1268310546875;3.62999999083513;364;100 mA
51.9331428688814;-0.79925537109375;-0.129302978515625;3.63999999080988;365;100 mA
51.9431428688562;-0.7989501953125;-0.1273193359375;3.64999999078464;366;100 mA
51.9531428688309;-0.79925537109375;-0.127685546875;3.65999999075939;367;100 mA
51.9631428688057;-0.799560546875;-0.12982177734375;3.66999999073414;368;100 mA
51.9731428687804;-0.79925537109375;-0.129180908203125;3.67999999070889;369;100 mA
51.9831428687552;-0.79986572265625;-0.1282958984375;3.68999999068365;370;100 mA
51.9931428687299;-0.79986572265625;-0.129669189453125;3.6999999906584;371;100 mA
52.0031428687047;-0.799560546875;-0.128662109375;3.70999999063315;372;100 mA
52.0131428686794;-0.79925537109375;-0.12823486328125;3.7199999906079;373;100 mA
52.0231428686542;-0.799560546875;-0.1298828125;3.72999999058266;374;100 mA
52.0331428686289;-0.79925537109375;-0.127777099609375;3.73999999055741;375;100 mA
52.0431428686037;-0.799560546875;-0.12774658203125;3.74999999053216;376;100 mA
52.0531428685784;-0.79986572265625;-0.129058837890625;3.75999999050691;377;100 mA
52.0631428685532;-0.79925537109375;-0.127655029296875;3.76999999048167;378;100 mA
52.073142868528;-0.799560546875;-0.127166748046875;3.77999999045642;379;100 mA
52.0831428685027;-0.79986572265625;-0.128753662109375;3.78999999043117;380;100 mA
52.0931428684775;-0.799560546875;-0.126800537109375;3.79999999040592;381;100 mA
52.1031428684522;-0.799560546875;-0.126739501953125;3.80999999038067;382;100 mA
52.113142868427;-0.79986572265625;-0.127349853515625;3.81999999035543;383;100 mA
52.1231428684017;-0.8001708984375;-0.125701904296875;3.82999999033018;384;100 mA
52.1331428683765;-0.799560546875;-0.125640869140625;3.83999999030493;385;100 mA
52.1431428683512;-0.799560546875;-0.126739501953125;3.84999999027968;386;100 mA
52.153142868326;-0.799560546875;-0.125030517578125;3.85999999025444;387;100 mA
52.1631428683007;-0.79925537109375;-0.1241455078125;3.86999999022919;388;100 mA
52.1731428682755;-0.799560546875;-0.12542724609375;3.87999999020394;389;100 mA
52.1831428682502;-0.79986572265625;-0.1236572265625;3.88999999017869;390;100 mA
52.193142868225;-0.799560546875;-0.1236572265625;3.89999999015345;391;100 mA
52.2031428681997;-0.79925537109375;-0.125274658203125;3.9099999901282;392;100 mA
52.2131428681745;-0.79986572265625;-0.125;3.91999999010295;393;100 mA
52.2231428681492;-0.79925537109375;-0.12493896484375;3.9299999900777;394;100 mA
52.233142868124;-0.79925537109375;-0.126953125;3.93999999005246;395;100 mA
52.2431428680987;-0.799560546875;-0.1259765625;3.94999999002721;396;100 mA
52.2531428680735;-0.79925537109375;-0.1253662109375;3.95999999000196;397;100 mA
52.2631428680482;-0.79925537109375;-0.12646484375;3.96999998997671;398;100 mA
52.273142868023;-0.799560546875;-0.12518310546875;3.97999998995147;399;100 mA
52.2831428679978;-0.79925537109375;-0.125457763671875;3.98999998992622;400;100 mA
52.2931428679725;-0.799560546875;-0.126495361328125;3.99999998990097;401;100 mA
52.3031428679473;-0.79986572265625;-0.124755859375;4.00999998987572;402;100 mA
52.313142867922;-0.79986572265625;-0.12347412109375;4.01999998985048;403;100 mA
52.3231428678968;-0.799560546875;-0.124267578125;4.02999998982523;404;100 mA
52.3331428678715;-0.799560546875;-0.122100830078125;4.03999998979998;405;100 mA
52.3431428678463;-0.799560546875;-0.12213134765625;4.04999998977473;406;100 mA
52.353142867821;-0.799560546875;-0.124053955078125;4.05999998974949;407;100 mA
52.3631428677958;-0.799560546875;-0.12335205078125;4.06999998972424;408;100 mA
52.3731428677705;-0.799560546875;-0.12310791015625;4.07999998969899;409;100 mA
52.3831428677453;-0.79925537109375;-0.12469482421875;4.08999998967374;410;100 mA
52.39314286772;-0.79986572265625;-0.12310791015625;4.0999999896485;411;100 mA
52.4031428676948;-0.799560546875;-0.12286376953125;4.10999998962325;412;100 mA
52.4131428676695;-0.79925537109375;-0.124053955078125;4.119999989598;413;100 mA
52.4231428676443;-0.79986572265625;-0.12213134765625;4.12999998957275;414;100 mA
52.433142867619;-0.799560546875;-0.1220703125;4.1399999895475;415;100 mA
52.4431428675938;-0.799560546875;-0.123443603515625;4.14999998952226;416;100 mA
52.4531428675685;-0.7989501953125;-0.123077392578125;4.15999998949701;417;100 mA
52.4631428675433;-0.799560546875;-0.122894287109375;4.16999998947176;418;100 mA
52.473142867518;-0.799560546875;-0.123779296875;4.17999998944651;419;100 mA
52.4831428674928;-0.79925537109375;-0.12188720703125;4.18999998942127;420;100 mA
52.4931428674676;-0.79986572265625;-0.122314453125;4.19999998939602;421;100 mA
52.5031428674423;-0.799560546875;-0.123779296875;4.20999998937077;422;100 mA
52.5131428674171;-0.799560546875;-0.122833251953125;4.21999998934552;423;100 mA
52.5231428673918;-0.799560546875;-0.12237548828125;4.22999998932028;424;100 mA
52.5331428673666;-0.79925537109375;-0.123931884765625;4.23999998929503;425;100 mA
52.5431428673413;-0.7989501953125;-0.123260498046875;4.24999998926978;426;100 mA
52.5531428673161;-0.7989501953125;-0.122772216796875;4.25999998924453;427;100 mA
52.5631428672908;-0.7989501953125;-0.1241455078125;4.26999998921929;428;100 mA
52.5731428672656;-0.79986572265625;-0.122802734375;4.27999998919404;429;100 mA
52.5831428672403;-0.79925537109375;-0.122711181640625;4.28999998916879;430;100 mA
52.5931428672151;-0.79925537109375;-0.123931884765625;4.29999998914354;431;100 mA
52.6031428671898;-0.79925537109375;-0.1234130859375;4.3099999891183;432;100 mA
52.6131428671646;-0.79986572265625;-0.123199462890625;4.31999998909305;433;100 mA
52.6231428671393;-0.79986572265625;-0.123992919921875;4.3299999890678;434;100 mA
52.6331428671141;-0.79925537109375;-0.121978759765625;4.33999998904255;435;100 mA
52.6431428670888;-0.799560546875;-0.121826171875;4.34999998901731;436;100 mA
52.6531428670636;-0.799560546875;-0.122894287109375;4.35999998899206;437;100 mA
52.6631428670383;-0.799560546875;-0.1219482421875;4.36999998896681;438;100 mA
52.6731428670131;-0.799560546875;-0.12188720703125;4.37999998894156;439;100 mA
52.6831428669879;-0.79925537109375;-0.122711181640625;4.38999998891632;440;100 mA
52.6931428669626;-0.799560546875;-0.12109375;4.39999998889107;441;100 mA
52.7031428669374;-0.79986572265625;-0.120758056640625;4.40999998886582;442;100 mA
52.7131428669121;-0.799560546875;-0.12261962890625;4.41999998884057;443;100 mA
52.7231428668869;-0.79925537109375;-0.120269775390625;4.42999998881533;444;100 mA
52.7331428668616;-0.79925537109375;-0.119781494140625;4.43999998879008;445;100 mA
52.7431428668364;-0.79986572265625;-0.120697021484375;4.44999998876483;446;100 mA
52.7531428668111;-0.79986572265625;-0.1197509765625;4.45999998873958;447;100 mA
52.7631428667859;-0.799560546875;-0.119598388671875;4.46999998871433;448;100 mA
52.7731428667606;-0.799560546875;-0.12127685546875;4.47999998868909;449;100 mA
52.7831428667354;-0.799560546875;-0.120697021484375;4.48999998866384;450;100 mA
52.7931428667101;-0.799560546875;-0.120819091796875;4.49999998863859;451;100 mA
52.8031428666849;-0.79864501953125;-0.122314453125;4.50999998861334;452;100 mA
52.8131428666596;-0.79925537109375;-0.1209716796875;4.5199999885881;453;100 mA
52.8231428666344;-0.799560546875;-0.12078857421875;4.52999998856285;454;100 mA
52.8331428666091;-0.799560546875;-0.12164306640625;4.5399999885376;455;100 mA
52.8431428665839;-0.799560546875;-0.12139892578125;4.54999998851235;456;100 mA
52.8531428665586;-0.799560546875;-0.12127685546875;4.55999998848711;457;100 mA
52.8631428665334;-0.79986572265625;-0.123016357421875;4.56999998846186;458;100 mA
52.8731428665081;-0.79986572265625;-0.121063232421875;4.57999998843661;459;100 mA
52.8831428664829;-0.8001708984375;-0.120880126953125;4.58999998841136;460;100 mA
52.8931428664577;-0.79925537109375;-0.12225341796875;4.59999998838612;461;100 mA
52.9031428664324;-0.799560546875;-0.121307373046875;4.60999998836087;462;100 mA
52.9131428664072;-0.79986572265625;-0.1209716796875;4.61999998833562;463;100 mA
52.9231428663819;-0.79986572265625;-0.121917724609375;4.62999998831037;464;100 mA
52.9331428663567;-0.79986572265625;-0.12060546875;4.63999998828513;465;100 mA
52.9431428663314;-0.79925537109375;-0.12054443359375;4.64999998825988;466;100 mA
52.9531428663062;-0.79925537109375;-0.122894287109375;4.65999998823463;467;100 mA
52.9631428662809;-0.79986572265625;-0.121795654296875;4.66999998820938;468;100 mA
52.9731428662557;-0.79925537109375;-0.121734619140625;4.67999998818414;469;100 mA
52.9831428662304;-0.799560546875;-0.12310791015625;4.68999998815889;470;100 mA
52.9931428662052;-0.79986572265625;-0.122222900390625;4.69999998813364;471;100 mA
53.0031428661799;-0.79986572265625;-0.121734619140625;4.70999998810839;472;100 mA
53.0131428661547;-0.79925537109375;-0.12335205078125;4.71999998808315;473;100 mA
53.0231428661294;-0.799560546875;-0.121673583984375;4.7299999880579;474;100 mA
53.0331428661042;-0.79986572265625;-0.121185302734375;4.73999998803265;475;100 mA
53.0431428660789;-0.79986572265625;-0.12249755859375;4.7499999880074;476;100 mA
53.0531428660537;-0.79986572265625;-0.12109375;4.75999998798216;477;100 mA
53.0631428660284;-0.79986572265625;-0.120849609375;4.76999998795691;478;100 mA
53.0731428660032;-0.799560546875;-0.122283935546875;4.77999998793166;479;100 mA
53.0831428659779;-0.799560546875;-0.121673583984375;4.78999998790641;480;100 mA
53.0931428659527;-0.799560546875;-0.1214599609375;4.79999998788116;481;100 mA
53.1031428659275;-0.799560546875;-0.123291015625;4.80999998785592;482;100 mA
53.1131428659022;-0.7989501953125;-0.121185302734375;4.81999998783067;483;100 mA
53.123142865877;-0.79986572265625;-0.120697021484375;4.82999998780542;484;100 mA
53.1331428658517;-0.799560546875;-0.12158203125;4.83999998778017;485;100 mA
53.1431428658265;-0.79925537109375;-0.120391845703125;4.84999998775493;486;100 mA
53.1531428658012;-0.79986572265625;-0.120391845703125;4.85999998772968;487;100 mA
53.163142865776;-0.799560546875;-0.121490478515625;4.86999998770443;488;100 mA
53.1731428657507;-0.799560546875;-0.11932373046875;4.87999998767918;489;100 mA
53.1831428657255;-0.79925537109375;-0.11956787109375;4.88999998765394;490;100 mA
53.1931428657002;-0.799560546875;-0.121429443359375;4.89999998762869;491;100 mA
53.203142865675;-0.79986572265625;-0.120147705078125;4.90999998760344;492;100 mA
53.2131428656497;-0.79925537109375;-0.120361328125;4.91999998757819;493;100 mA
53.2231428656245;-0.799560546875;-0.12152099609375;4.92999998755295;494;100 mA
53.2331428655992;-0.8001708984375;-0.12078857421875;4.9399999875277;495;100 mA
53.243142865574;-0.799560546875;-0.120452880859375;4.94999998750245;496;100 mA
53.2531428655487;-0.799560546875;-0.122711181640625;4.9599999874772;497;100 mA
53.2631428655235;-0.79986572265625;-0.121490478515625;4.96999998745196;498;100 mA
53.2731428654982;-0.79986572265625;-0.121124267578125;4.97999998742671;499;100 mA
53.283142865473;-0.79925537109375;-0.122100830078125;4.98999998740146;500;100 mA
53.2931428654477;-0.7989501953125;-0.12103271484375;4.99999998737621;501;100 mA
53.3031428654225;-0.799560546875;-0.1204833984375;5.00999998735097;502;100 mA
53.3131428653973;-0.799560546875;-0.122314453125;5.01999998732572;503;100 mA
53.323142865372;-0.799560546875;-0.12139892578125;5.02999998730047;504;100 mA
53.3331428653468;-0.799560546875;-0.121337890625;5.03999998727522;505;100 mA
53.3431428653215;-0.79925537109375;-0.12322998046875;5.04999998724998;506;100 mA
53.3531428652963;-0.79925537109375;-0.121246337890625;5.05999998722473;507;100 mA
53.363142865271;-0.79925537109375;-0.12091064453125;5.06999998719948;508;100 mA
53.3731428652458;-0.79925537109375;-0.121826171875;5.07999998717423;509;100 mA
53.3831428652205;-0.799560546875;-0.12115478515625;5.08999998714899;510;100 mA
53.3931428651953;-0.79986572265625;-0.121002197265625;5.09999998712374;511;100 mA
53.40314286517;-0.799560546875;-0.12261962890625;5.10999998709849;512;100 mA
53.4131428651448;-0.799560546875;-0.121734619140625;5.11999998707324;513;100 mA
53.4231428651195;-0.799560546875;-0.12158203125;5.129999987048;514;100 mA
53.4331428650943;-0.79925537109375;-0.12261962890625;5.13999998702275;515;100 mA
53.443142865069;-0.799560546875;-0.121826171875;5.1499999869975;516;100 mA
53.4531428650438;-0.7989501953125;-0.121337890625;5.15999998697225;517;100 mA
53.4631428650185;-0.79925537109375;-0.12237548828125;5.169999986947;518;100 mA
53.4731428649933;-0.799560546875;-0.12158203125;5.17999998692176;519;100 mA
53.483142864968;-0.799560546875;-0.120758056640625;5.18999998689651;520;100 mA
53.4931428649428;-0.79925537109375;-0.1219482421875;5.19999998687126;521;100 mA
53.5031428649175;-0.79925537109375;-0.119873046875;5.20999998684601;522;100 mA
53.5131428648923;-0.799560546875;-0.11981201171875;5.21999998682077;523;100 mA
53.5231428648671;-0.799560546875;-0.12115478515625;5.22999998679552;524;100 mA
53.5331428648418;-0.79925537109375;-0.12115478515625;5.23999998677027;525;100 mA
53.5431428648166;-0.799560546875;-0.12091064453125;5.24999998674502;526;100 mA
53.5531428647913;-0.799560546875;-0.121673583984375;5.25999998671978;527;100 mA
53.5631428647661;-0.799560546875;-0.120452880859375;5.26999998669453;528;100 mA
53.5731428647408;-0.79986572265625;-0.120025634765625;5.27999998666928;529;100 mA
53.5831428647156;-0.79986572265625;-0.12060546875;5.28999998664403;530;100 mA
53.5931428646903;-0.799560546875;-0.1197509765625;5.29999998661879;531;100 mA
53.6031428646651;-0.7989501953125;-0.11962890625;5.30999998659354;532;100 mA
53.6131428646398;-0.79986572265625;-0.12078857421875;5.31999998656829;533;100 mA
53.6231428646146;-0.79986572265625;-0.12005615234375;5.32999998654304;534;100 mA
53.6331428645893;-0.799560546875;-0.119415283203125;5.3399999865178;535;100 mA
53.6431428645641;-0.7989501953125;-0.12109375;5.34999998649255;536;100 mA
53.6531428645388;-0.79986572265625;-0.1192626953125;5.3599999864673;537;100 mA
53.6631428645136;-0.79986572265625;-0.118438720703125;5.36999998644205;538;100 mA
53.6731428644883;-0.79925537109375;-0.119476318359375;5.37999998641681;539;100 mA
53.6831428644631;-0.799560546875;-0.119140625;5.38999998639156;540;100 mA
53.6931428644378;-0.79986572265625;-0.118988037109375;5.39999998636631;541;100 mA
53.7031428644126;-0.79925537109375;-0.11981201171875;5.40999998634106;542;100 mA
53.7131428643874;-0.799560546875;-0.119049072265625;5.41999998631582;543;100 mA
53.7231428643621;-0.799560546875;-0.119232177734375;5.42999998629057;544;100 mA
53.7331428643369;-0.799560546875;-0.120208740234375;5.43999998626532;545;100 mA
53.7431428643116;-0.799560546875;-0.11907958984375;5.44999998624007;546;100 mA
53.7531428642864;-0.8001708984375;-0.118682861328125;5.45999998621483;547;100 mA
53.7631428642611;-0.799560546875;-0.11956787109375;5.46999998618958;548;100 mA
53.7731428642359;-0.799560546875;-0.11920166015625;5.47999998616433;549;100 mA
53.7831428642106;-0.79986572265625;-0.118804931640625;5.48999998613908;550;100 mA
53.7931428641854;-0.79925537109375;-0.119964599609375;5.49999998611383;551;100 mA
53.8031428641601;-0.799560546875;-0.11865234375;5.50999998608859;552;100 mA
53.8131428641349;-0.79925537109375;-0.11895751953125;5.51999998606334;553;100 mA
53.8231428641096;-0.799560546875;-0.120574951171875;5.52999998603809;554;100 mA
53.8331428640844;-0.79925537109375;-0.120025634765625;5.53999998601284;555;100 mA
53.8431428640591;-0.799560546875;-0.120025634765625;5.5499999859876;556;100 mA
53.8531428640339;-0.799560546875;-0.12103271484375;5.55999998596235;557;100 mA
53.8631428640086;-0.7989501953125;-0.1201171875;5.5699999859371;558;100 mA
53.8731428639834;-0.79986572265625;-0.1199951171875;5.57999998591185;559;100 mA
53.8831428639581;-0.799560546875;-0.12213134765625;5.58999998588661;560;100 mA
53.8931428639329;-0.79986572265625;-0.12176513671875;5.59999998586136;561;100 mA
53.9031428639076;-0.79925537109375;-0.12188720703125;5.60999998583611;562;100 mA
53.9131428638824;-0.79986572265625;-0.12310791015625;5.61999998581086;563;100 mA
53.9231428638572;-0.799560546875;-0.1226806640625;5.62999998578562;564;100 mA
53.9331428638319;-0.79986572265625;-0.1217041015625;5.63999998576037;565;100 mA
53.9431428638067;-0.79925537109375;-0.122314453125;5.64999998573512;566;100 mA
53.9531428637814;-0.79925537109375;-0.121307373046875;5.65999998570987;567;100 mA
53.9631428637562;-0.79986572265625;-0.120880126953125;5.66999998568463;568;100 mA
53.9731428637309;-0.79925537109375;-0.121978759765625;5.67999998565938;569;100 mA
53.9831428637057;-0.79986572265625;-0.121002197265625;5.68999998563413;570;100 mA
53.9931428636804;-0.79986572265625;-0.12060546875;5.69999998560888;571;100 mA
54.0031428636552;-0.799560546875;-0.121551513671875;5.70999998558364;572;100 mA
54.0131428636299;-0.79986572265625;-0.121002197265625;5.71999998555839;573;100 mA
54.0231428636047;-0.79986572265625;-0.120513916015625;5.72999998553314;574;100 mA
54.0331428635794;-0.799560546875;-0.121551513671875;5.73999998550789;575;100 mA
54.0431428635542;-0.79925537109375;-0.119964599609375;5.74999998548265;576;100 mA
54.0531428635289;-0.79925537109375;-0.11920166015625;5.7599999854574;577;100 mA
54.0631428635037;-0.799560546875;-0.120086669921875;5.76999998543215;578;100 mA
54.0731428634784;-0.79925537109375;-0.12030029296875;5.7799999854069;579;100 mA
54.0831428634532;-0.79925537109375;-0.1199951171875;5.78999998538166;580;100 mA
54.0931428634279;-0.79925537109375;-0.120361328125;5.79999998535641;581;100 mA
54.1031428634027;-0.79925537109375;-0.118896484375;5.80999998533116;582;100 mA
54.1131428633774;-0.79925537109375;-0.118438720703125;5.81999998530591;583;100 mA
54.1231428633522;-0.799560546875;-0.12030029296875;5.82999998528066;584;100 mA
54.133142863327;-0.79925537109375;-0.119537353515625;5.83999998525542;585;100 mA
54.1431428633017;-0.79986572265625;-0.11871337890625;5.84999998523017;586;100 mA
54.1531428632765;-0.79986572265625;-0.119903564453125;5.85999998520492;587;100 mA
54.1631428632512;-0.7989501953125;-0.119842529296875;5.86999998517967;588;100 mA
54.173142863226;-0.79986572265625;-0.119232177734375;5.87999998515443;589;100 mA
54.1831428632007;-0.79925537109375;-0.120391845703125;5.88999998512918;590;100 mA
54.1931428631755;-0.799560546875;-0.118682861328125;5.89999998510393;591;100 mA
54.2031428631502;-0.799560546875;-0.1182861328125;5.90999998507868;592;100 mA
54.213142863125;-0.79925537109375;-0.119476318359375;5.91999998505344;593;100 mA
54.2231428630997;-0.79986572265625;-0.11883544921875;5.92999998502819;594;100 mA
54.2331428630745;-0.799560546875;-0.118408203125;5.93999998500294;595;100 mA
54.2431428630492;-0.799560546875;-0.119598388671875;5.94999998497769;596;100 mA
54.253142863024;-0.79925537109375;-0.11956787109375;5.95999998495245;597;100 mA
54.2631428629987;-0.799560546875;-0.11993408203125;5.9699999849272;598;100 mA
54.2731428629735;-0.79925537109375;-0.1219482421875;5.97999998490195;599;100 mA
54.2831428629482;-0.799560546875;-0.120513916015625;5.9899999848767;600;100 mA
54.293142862923;-0.799560546875;-0.12005615234375;5.99999998485146;601;100 mA
54.3031428628977;-0.8001708984375;-0.1209716796875;6.00999998482621;602;100 mA
54.3131428628725;-0.79986572265625;-0.1207275390625;6.01999998480096;603;100 mA
54.3231428628472;-0.79925537109375;-0.1199951171875;6.02999998477571;604;100 mA
54.333142862822;-0.799560546875;-0.1207275390625;6.03999998475047;605;100 mA
54.3431428627968;-0.7989501953125;-0.119415283203125;6.04999998472522;606;100 mA
54.3531428627715;-0.799560546875;-0.118988037109375;6.05999998469997;607;100 mA
54.3631428627463;-0.79986572265625;-0.1197509765625;6.06999998467472;608;100 mA
54.373142862721;-0.79986572265625;-0.119140625;6.07999998464948;609;100 mA
54.3831428626958;-0.79986572265625;-0.118927001953125;6.08999998462423;610;100 mA
54.3931428626705;-0.799560546875;-0.120086669921875;6.09999998459898;611;100 mA
54.4031428626453;-0.799560546875;-0.11944580078125;6.10999998457373;612;100 mA
54.41314286262;-0.79986572265625;-0.11920166015625;6.11999998454849;613;100 mA
54.4231428625948;-0.799560546875;-0.12060546875;6.12999998452324;614;100 mA
54.4331428625695;-0.7989501953125;-0.11871337890625;6.13999998449799;615;100 mA
54.4431428625443;-0.799560546875;-0.118621826171875;6.14999998447274;616;100 mA
54.453142862519;-0.79925537109375;-0.120574951171875;6.1599999844475;617;100 mA
54.4631428624938;-0.799560546875;-0.12109375;6.16999998442225;618;100 mA
54.4731428624685;-0.799560546875;-0.12042236328125;6.179999984397;619;100 mA
54.4831428624433;-0.79925537109375;-0.120697021484375;6.18999998437175;620;100 mA
54.493142862418;-0.79986572265625;-0.1192626953125;6.1999999843465;621;100 mA
54.5031428623928;-0.799560546875;-0.1185302734375;6.20999998432126;622;100 mA
54.5131428623675;-0.79925537109375;-0.119598388671875;6.21999998429601;623;100 mA
54.5231428623423;-0.799560546875;-0.11846923828125;6.22999998427076;624;100 mA
54.533142862317;-0.799560546875;-0.11834716796875;6.23999998424551;625;100 mA
54.5431428622918;-0.7989501953125;-0.119659423828125;6.24999998422027;626;100 mA
54.5531428622666;-0.799560546875;-0.1195068359375;6.25999998419502;627;100 mA
54.5631428622413;-0.799560546875;-0.119232177734375;6.26999998416977;628;100 mA
54.5731428622161;-0.799560546875;-0.12066650390625;6.27999998414452;629;100 mA
54.5831428621908;-0.79925537109375;-0.11932373046875;6.28999998411928;630;100 mA
54.5931428621656;-0.79986572265625;-0.119110107421875;6.29999998409403;631;100 mA
54.6031428621403;-0.799560546875;-0.120269775390625;6.30999998406878;632;100 mA
54.6131428621151;-0.8001708984375;-0.119873046875;6.31999998404353;633;100 mA
54.6231428620898;-0.79986572265625;-0.119354248046875;6.32999998401829;634;100 mA
54.6331428620646;-0.799560546875;-0.120208740234375;6.33999998399304;635;100 mA
54.6431428620393;-0.799560546875;-0.11993408203125;6.34999998396779;636;100 mA
54.6531428620141;-0.79986572265625;-0.119842529296875;6.35999998394254;637;100 mA
54.6631428619888;-0.79986572265625;-0.12091064453125;6.3699999839173;638;100 mA
54.6731428619636;-0.79986572265625;-0.11920166015625;6.37999998389205;639;100 mA
54.6831428619383;-0.79986572265625;-0.118682861328125;6.3899999838668;640;100 mA
54.6931428619131;-0.79925537109375;-0.11932373046875;6.39999998384155;641;100 mA
54.7031428618878;-0.799560546875;-0.11895751953125;6.40999998381631;642;100 mA
54.7131428618626;-0.79986572265625;-0.118927001953125;6.41999998379106;643;100 mA
54.7231428618373;-0.79925537109375;-0.119842529296875;6.42999998376581;644;100 mA
54.7331428618121;-0.79925537109375;-0.11859130859375;6.43999998374056;645;100 mA
54.7431428617869;-0.79925537109375;-0.118194580078125;6.44999998371532;646;100 mA
54.7531428617616;-0.799560546875;-0.11871337890625;6.45999998369007;647;100 mA
54.7631428617364;-0.799560546875;-0.118316650390625;6.46999998366482;648;100 mA
54.7731428617111;-0.799560546875;-0.118255615234375;6.47999998363957;649;100 mA
54.7831428616859;-0.79925537109375;-0.119293212890625;6.48999998361433;650;100 mA
54.7931428616606;-0.79986572265625;-0.11883544921875;6.49999998358908;651;100 mA
54.8031428616354;-0.7989501953125;-0.118255615234375;6.50999998356383;652;100 mA
54.8131428616101;-0.799560546875;-0.119384765625;6.51999998353858;653;100 mA
54.8231428615849;-0.79986572265625;-0.11767578125;6.52999998351333;654;100 mA
54.8331428615596;-0.799560546875;-0.117156982421875;6.53999998348809;655;100 mA
54.8431428615344;-0.79925537109375;-0.11785888671875;6.54999998346284;656;100 mA
54.8531428615091;-0.799560546875;-0.11761474609375;6.55999998343759;657;100 mA
54.8631428614839;-0.79925537109375;-0.11785888671875;6.56999998341234;658;100 mA
54.8731428614586;-0.7989501953125;-0.11846923828125;6.5799999833871;659;100 mA
54.8831428614334;-0.79925537109375;-0.117156982421875;6.58999998336185;660;100 mA
54.8931428614081;-0.799560546875;-0.117156982421875;6.5999999833366;661;100 mA
54.9031428613829;-0.7989501953125;-0.11810302734375;6.60999998331135;662;100 mA
54.9131428613576;-0.799560546875;-0.117401123046875;6.61999998328611;663;100 mA
54.9231428613324;-0.79925537109375;-0.11737060546875;6.62999998326086;664;100 mA
54.9331428613071;-0.79986572265625;-0.11798095703125;6.63999998323561;665;100 mA
54.9431428612819;-0.799560546875;-0.1173095703125;6.64999998321036;666;100 mA
54.9531428612567;-0.799560546875;-0.116851806640625;6.65999998318512;667;100 mA
54.9631428612314;-0.799560546875;-0.118011474609375;6.66999998315987;668;100 mA
54.9731428612062;-0.79925537109375;-0.11724853515625;6.67999998313462;669;100 mA
54.9831428611809;-0.79925537109375;-0.117156982421875;6.68999998310937;670;100 mA
54.9931428611557;-0.7989501953125;-0.118194580078125;6.69999998308413;671;100 mA
55.0031428611304;-0.79925537109375;-0.118072509765625;6.70999998305888;672;100 mA
55.0131428611052;-0.799560546875;-0.11859130859375;6.71999998303363;673;100 mA
55.0231428610799;-0.799560546875;-0.11962890625;6.72999998300838;674;100 mA
55.0331428610547;-0.799560546875;-0.118408203125;6.73999998298314;675;100 mA
55.0431428610294;-0.799560546875;-0.118316650390625;6.74999998295789;676;100 mA
55.0531428610042;-0.7989501953125;-0.119354248046875;6.75999998293264;677;100 mA
55.0631428609789;-0.79925537109375;-0.11871337890625;6.76999998290739;678;100 mA
55.0731428609537;-0.799560546875;-0.1187744140625;6.77999998288215;679;100 mA
55.0831428609284;-0.79986572265625;-0.118865966796875;6.7899999828569;680;100 mA
55.0931428609032;-0.79986572265625;-0.118072509765625;6.79999998283165;681;100 mA
55.1031428608779;-0.79925537109375;-0.11773681640625;6.8099999828064;682;100 mA
55.1131428608527;-0.8001708984375;-0.11865234375;6.81999998278116;683;100 mA
55.1231428608274;-0.79925537109375;-0.117156982421875;6.82999998275591;684;100 mA
55.1331428608022;-0.799560546875;-0.11724853515625;6.83999998273066;685;100 mA
55.1431428607769;-0.79925537109375;-0.118804931640625;6.84999998270541;686;100 mA
55.1531428607517;-0.79925537109375;-0.11834716796875;6.85999998268016;687;100 mA
55.1631428607265;-0.79925537109375;-0.11798095703125;6.86999998265492;688;100 mA
55.1731428607012;-0.79925537109375;-0.118560791015625;6.87999998262967;689;100 mA
55.183142860676;-0.79925537109375;-0.117950439453125;6.88999998260442;690;100 mA
55.1931428606507;-0.79925537109375;-0.118255615234375;6.89999998257917;691;100 mA
55.2031428606255;-0.79925537109375;-0.119415283203125;6.90999998255393;692;100 mA
55.2131428606002;-0.799560546875;-0.117706298828125;6.91999998252868;693;100 mA
55.223142860575;-0.79925537109375;-0.117431640625;6.92999998250343;694;100 mA
55.2331428605497;-0.79925537109375;-0.117706298828125;6.93999998247818;695;100 mA
55.2431428605245;-0.799560546875;-0.116912841796875;6.94999998245294;696;100 mA
55.2531428604992;-0.799560546875;-0.116851806640625;6.95999998242769;697;100 mA
55.263142860474;-0.79925537109375;-0.11798095703125;6.96999998240244;698;100 mA
55.2731428604487;-0.79986572265625;-0.117034912109375;6.97999998237719;699;100 mA
55.2831428604235;-0.79986572265625;-0.116973876953125;6.98999998235195;700;100 mA
