Time (s);WE(1).Potential (V);WE(1).Current (A);Corrected time (s);Index;Current range
71.1737108203037;-0.89996337890625;-0.31976318359375;0;1;100 mA
71.1837108202784;-0.899658203125;-0.2423095703125;0.00999999997475243;2;100 mA
71.1937108202532;-0.8990478515625;-0.20684814453125;0.0199999999495049;3;100 mA
71.2037108202279;-0.89935302734375;-0.18890380859375;0.0299999999242573;4;100 mA
71.2137108202027;-0.89996337890625;-0.173370361328125;0.0399999998990097;5;100 mA
71.2237108201774;-0.899658203125;-0.16400146484375;0.0499999998737621;6;100 mA
71.2337108201522;-0.899658203125;-0.162261962890625;0.0599999998485146;7;100 mA
71.2437108201269;-0.899658203125;-0.157196044921875;0.069999999823267;8;100 mA
71.2537108201017;-0.899658203125;-0.153228759765625;0.0799999997980194;9;100 mA
71.2637108200764;-0.89935302734375;-0.15350341796875;0.0899999997727718;10;100 mA
71.2737108200512;-0.899658203125;-0.148162841796875;0.0999999997475243;11;100 mA
71.2837108200259;-0.89935302734375;-0.146270751953125;0.109999999722277;12;100 mA
71.2937108200007;-0.899658203125;-0.147552490234375;0.119999999697029;13;100 mA
71.3037108199754;-0.8990478515625;-0.14385986328125;0.129999999671782;14;100 mA
71.3137108199502;-0.89935302734375;-0.143646240234375;0.139999999646534;15;100 mA
71.3237108199249;-0.899658203125;-0.145477294921875;0.149999999621286;16;100 mA
71.3337108198997;-0.899658203125;-0.143890380859375;0.159999999596039;17;100 mA
71.3437108198744;-0.89935302734375;-0.14208984375;0.169999999570791;18;100 mA
71.3537108198492;-0.89935302734375;-0.14324951171875;0.179999999545544;19;100 mA
71.363710819824;-0.89935302734375;-0.139190673828125;0.189999999520296;20;100 mA
71.3737108197987;-0.89935302734375;-0.139251708984375;0.199999999495049;21;100 mA
71.3837108197735;-0.899658203125;-0.14337158203125;0.209999999469801;22;100 mA
71.3937108197482;-0.899658203125;-0.1405029296875;0.219999999444553;23;100 mA
71.403710819723;-0.8990478515625;-0.139434814453125;0.229999999419306;24;100 mA
71.4137108196977;-0.899658203125;-0.142730712890625;0.239999999394058;25;100 mA
71.4237108196725;-0.89935302734375;-0.140472412109375;0.249999999368811;26;100 mA
71.4337108196472;-0.8990478515625;-0.13922119140625;0.259999999343563;27;100 mA
71.443710819622;-0.899658203125;-0.14202880859375;0.269999999318316;28;100 mA
71.4537108195967;-0.89935302734375;-0.138763427734375;0.279999999293068;29;100 mA
71.4637108195715;-0.89935302734375;-0.138885498046875;0.28999999926782;30;100 mA
71.4737108195462;-0.899658203125;-0.142242431640625;0.299999999242573;31;100 mA
71.483710819521;-0.899658203125;-0.14111328125;0.309999999217325;32;100 mA
71.4937108194957;-0.89935302734375;-0.14031982421875;0.319999999192078;33;100 mA
71.5037108194705;-0.8990478515625;-0.143310546875;0.32999999916683;34;100 mA
71.5137108194452;-0.89996337890625;-0.140411376953125;0.339999999141583;35;100 mA
71.52371081942;-0.89996337890625;-0.140228271484375;0.349999999116335;36;100 mA
71.5337108193947;-0.89935302734375;-0.142547607421875;0.359999999091087;37;100 mA
71.5437108193695;-0.899658203125;-0.13995361328125;0.36999999906584;38;100 mA
71.5537108193442;-0.89935302734375;-0.138946533203125;0.379999999040592;39;100 mA
71.563710819319;-0.899658203125;-0.14227294921875;0.389999999015345;40;100 mA
71.5737108192938;-0.899658203125;-0.141021728515625;0.399999998990097;41;100 mA
71.5837108192685;-0.899658203125;-0.140045166015625;0.40999999896485;42;100 mA
71.5937108192433;-0.899658203125;-0.1429443359375;0.419999998939602;43;100 mA
71.603710819218;-0.8990478515625;-0.139190673828125;0.429999998914354;44;100 mA
71.6137108191928;-0.89935302734375;-0.13885498046875;0.439999998889107;45;100 mA
71.6237108191675;-0.89935302734375;-0.141448974609375;0.449999998863859;46;100 mA
71.6337108191423;-0.89935302734375;-0.139862060546875;0.459999998838612;47;100 mA
71.643710819117;-0.899658203125;-0.140045166015625;0.469999998813364;48;100 mA
71.6537108190918;-0.89935302734375;-0.142608642578125;0.479999998788116;49;100 mA
71.6637108190665;-0.899658203125;-0.140380859375;0.489999998762869;50;100 mA
71.6737108190413;-0.899658203125;-0.13970947265625;0.499999998737621;51;100 mA
71.683710819016;-0.899658203125;-0.141265869140625;0.509999998712374;52;100 mA
71.6937108189908;-0.89935302734375;-0.137725830078125;0.519999998687126;53;100 mA
71.7037108189655;-0.89935302734375;-0.137939453125;0.529999998661879;54;100 mA
71.7137108189403;-0.89996337890625;-0.13983154296875;0.539999998636631;55;100 mA
71.723710818915;-0.899658203125;-0.138763427734375;0.549999998611383;56;100 mA
71.7337108188898;-0.8990478515625;-0.136871337890625;0.559999998586136;57;100 mA
71.7437108188645;-0.89996337890625;-0.138092041015625;0.569999998560888;58;100 mA
71.7537108188393;-0.899658203125;-0.1341552734375;0.579999998535641;59;100 mA
71.763710818814;-0.899658203125;-0.1343994140625;0.589999998510393;60;100 mA
71.7737108187888;-0.899658203125;-0.13836669921875;0.599999998485146;61;100 mA
71.7837108187636;-0.89996337890625;-0.137298583984375;0.609999998459898;62;100 mA
71.7937108187383;-0.89935302734375;-0.136810302734375;0.61999999843465;63;100 mA
71.8037108187131;-0.8990478515625;-0.1383056640625;0.629999998409403;64;100 mA
71.8137108186878;-0.89996337890625;-0.13604736328125;0.639999998384155;65;100 mA
71.8237108186626;-0.89935302734375;-0.13555908203125;0.649999998358908;66;100 mA
71.8337108186373;-0.89935302734375;-0.137939453125;0.65999999833366;67;100 mA
71.8437108186121;-0.89935302734375;-0.134033203125;0.669999998308413;68;100 mA
71.8537108185868;-0.899658203125;-0.13427734375;0.679999998283165;69;100 mA
71.8637108185616;-0.899658203125;-0.13775634765625;0.689999998257917;70;100 mA
71.8737108185363;-0.8990478515625;-0.13720703125;0.69999999823267;71;100 mA
71.8837108185111;-0.899658203125;-0.136260986328125;0.709999998207422;72;100 mA
71.8937108184858;-0.899658203125;-0.138397216796875;0.719999998182175;73;100 mA
71.9037108184606;-0.89996337890625;-0.13531494140625;0.729999998156927;74;100 mA
71.9137108184353;-0.899658203125;-0.134857177734375;0.73999999813168;75;100 mA
71.9237108184101;-0.899658203125;-0.138885498046875;0.749999998106432;76;100 mA
71.9337108183848;-0.89996337890625;-0.1380615234375;0.759999998081184;77;100 mA
71.9437108183596;-0.899658203125;-0.13720703125;0.769999998055937;78;100 mA
71.9537108183343;-0.8990478515625;-0.13885498046875;0.779999998030689;79;100 mA
71.9637108183091;-0.89935302734375;-0.13690185546875;0.789999998005442;80;100 mA
71.9737108182838;-0.8990478515625;-0.13671875;0.799999997980194;81;100 mA
71.9837108182586;-0.899658203125;-0.1397705078125;0.809999997954947;82;100 mA
71.9937108182334;-0.89996337890625;-0.135894775390625;0.819999997929699;83;100 mA
72.0037108182081;-0.89935302734375;-0.135833740234375;0.829999997904451;84;100 mA
72.0137108181829;-0.89935302734375;-0.1392822265625;0.839999997879204;85;100 mA
72.0237108181576;-0.899658203125;-0.138702392578125;0.849999997853956;86;100 mA
72.0337108181324;-0.899658203125;-0.13739013671875;0.859999997828709;87;100 mA
72.0437108181071;-0.89935302734375;-0.1397705078125;0.869999997803461;88;100 mA
72.0537108180819;-0.89935302734375;-0.137237548828125;0.879999997778214;89;100 mA
72.0637108180566;-0.89996337890625;-0.136962890625;0.889999997752966;90;100 mA
72.0737108180314;-0.899658203125;-0.141143798828125;0.899999997727718;91;100 mA
72.0837108180061;-0.8990478515625;-0.1378173828125;0.909999997702471;92;100 mA
72.0937108179809;-0.899658203125;-0.137451171875;0.919999997677223;93;100 mA
72.1037108179556;-0.89996337890625;-0.1396484375;0.929999997651976;94;100 mA
72.1137108179304;-0.89935302734375;-0.137908935546875;0.939999997626728;95;100 mA
72.1237108179051;-0.89935302734375;-0.136993408203125;0.949999997601481;96;100 mA
72.1337108178799;-0.8990478515625;-0.1397705078125;0.959999997576233;97;100 mA
72.1437108178546;-0.89935302734375;-0.13714599609375;0.969999997550985;98;100 mA
72.1537108178294;-0.89996337890625;-0.13714599609375;0.979999997525738;99;100 mA
72.1637108178041;-0.8990478515625;-0.139801025390625;0.98999999750049;100;100 mA
72.1737108177789;-0.899658203125;-0.138336181640625;0.999999997475243;101;100 mA
72.1837108177536;-0.89996337890625;-0.139129638671875;1.00999999745;102;100 mA
72.1937108177284;-0.89935302734375;-0.1435546875;1.01999999742475;103;100 mA
72.2037108177032;-0.89996337890625;-0.142425537109375;1.0299999973995;104;100 mA
72.2137108176779;-0.899658203125;-0.140625;1.03999999737425;105;100 mA
72.2237108176527;-0.89935302734375;-0.144683837890625;1.049999997349;106;100 mA
72.2337108176274;-0.899658203125;-0.140838623046875;1.05999999732376;107;100 mA
72.2437108176022;-0.899658203125;-0.139862060546875;1.06999999729851;108;100 mA
72.2537108175769;-0.899658203125;-0.14263916015625;1.07999999727326;109;100 mA
72.2637108175517;-0.89935302734375;-0.1396484375;1.08999999724801;110;100 mA
72.2737108175264;-0.89935302734375;-0.1383056640625;1.09999999722277;111;100 mA
72.2837108175012;-0.89935302734375;-0.139984130859375;1.10999999719752;112;100 mA
72.2937108174759;-0.89935302734375;-0.136199951171875;1.11999999717227;113;100 mA
72.3037108174507;-0.899658203125;-0.1351318359375;1.12999999714702;114;100 mA
72.3137108174254;-0.89935302734375;-0.137420654296875;1.13999999712178;115;100 mA
72.3237108174002;-0.899658203125;-0.135040283203125;1.14999999709653;116;100 mA
72.3337108173749;-0.89935302734375;-0.134552001953125;1.15999999707128;117;100 mA
72.3437108173497;-0.89935302734375;-0.1370849609375;1.16999999704603;118;100 mA
72.3537108173244;-0.89935302734375;-0.136688232421875;1.17999999702079;119;100 mA
72.3637108172992;-0.89935302734375;-0.136444091796875;1.18999999699554;120;100 mA
72.3737108172739;-0.899658203125;-0.13909912109375;1.19999999697029;121;100 mA
72.3837108172487;-0.899658203125;-0.135986328125;1.20999999694504;122;100 mA
72.3937108172235;-0.89935302734375;-0.136260986328125;1.2199999969198;123;100 mA
72.4037108171982;-0.89935302734375;-0.139404296875;1.22999999689455;124;100 mA
72.413710817173;-0.899658203125;-0.138275146484375;1.2399999968693;125;100 mA
72.4237108171477;-0.899658203125;-0.13702392578125;1.24999999684405;126;100 mA
72.4337108171225;-0.89996337890625;-0.140625;1.25999999681881;127;100 mA
72.4437108170972;-0.8990478515625;-0.13848876953125;1.26999999679356;128;100 mA
72.453710817072;-0.899658203125;-0.13671875;1.27999999676831;129;100 mA
72.4637108170467;-0.89935302734375;-0.139678955078125;1.28999999674306;130;100 mA
72.4737108170215;-0.89996337890625;-0.136505126953125;1.29999999671782;131;100 mA
72.4837108169962;-0.89935302734375;-0.135528564453125;1.30999999669257;132;100 mA
72.493710816971;-0.89935302734375;-0.138580322265625;1.31999999666732;133;100 mA
72.5037108169457;-0.899658203125;-0.1390380859375;1.32999999664207;134;100 mA
72.5137108169205;-0.8990478515625;-0.138580322265625;1.33999999661683;135;100 mA
72.5237108168952;-0.899658203125;-0.14031982421875;1.34999999659158;136;100 mA
72.53371081687;-0.899658203125;-0.1363525390625;1.35999999656633;137;100 mA
72.5437108168447;-0.89996337890625;-0.135894775390625;1.36999999654108;138;100 mA
72.5537108168195;-0.899658203125;-0.139068603515625;1.37999999651583;139;100 mA
72.5637108167942;-0.89996337890625;-0.137664794921875;1.38999999649059;140;100 mA
72.573710816769;-0.89935302734375;-0.13665771484375;1.39999999646534;141;100 mA
72.5837108167437;-0.899658203125;-0.13922119140625;1.40999999644009;142;100 mA
72.5937108167185;-0.89935302734375;-0.136566162109375;1.41999999641484;143;100 mA
72.6037108166933;-0.89935302734375;-0.135284423828125;1.4299999963896;144;100 mA
72.613710816668;-0.8990478515625;-0.138519287109375;1.43999999636435;145;100 mA
72.6237108166428;-0.89935302734375;-0.13623046875;1.4499999963391;146;100 mA
72.6337108166175;-0.89996337890625;-0.13531494140625;1.45999999631385;147;100 mA
72.6437108165923;-0.899658203125;-0.13800048828125;1.46999999628861;148;100 mA
72.653710816567;-0.89935302734375;-0.137237548828125;1.47999999626336;149;100 mA
72.6637108165418;-0.899658203125;-0.1365966796875;1.48999999623811;150;100 mA
72.6737108165165;-0.899658203125;-0.139404296875;1.49999999621286;151;100 mA
72.6837108164913;-0.899658203125;-0.13653564453125;1.50999999618762;152;100 mA
72.693710816466;-0.899658203125;-0.136199951171875;1.51999999616237;153;100 mA
72.7037108164408;-0.8990478515625;-0.139434814453125;1.52999999613712;154;100 mA
72.7137108164155;-0.89935302734375;-0.137298583984375;1.53999999611187;155;100 mA
72.7237108163903;-0.89935302734375;-0.1358642578125;1.54999999608663;156;100 mA
72.733710816365;-0.899658203125;-0.13848876953125;1.55999999606138;157;100 mA
72.7437108163398;-0.89935302734375;-0.13775634765625;1.56999999603613;158;100 mA
72.7537108163145;-0.899658203125;-0.13592529296875;1.57999999601088;159;100 mA
72.7637108162893;-0.89935302734375;-0.1368408203125;1.58999999598564;160;100 mA
72.773710816264;-0.89935302734375;-0.132598876953125;1.59999999596039;161;100 mA
72.7837108162388;-0.89935302734375;-0.132476806640625;1.60999999593514;162;100 mA
72.7937108162135;-0.89935302734375;-0.134979248046875;1.61999999590989;163;100 mA
72.8037108161883;-0.89996337890625;-0.1334228515625;1.62999999588465;164;100 mA
72.8137108161631;-0.899658203125;-0.1328125;1.6399999958594;165;100 mA
72.8237108161378;-0.89935302734375;-0.13555908203125;1.64999999583415;166;100 mA
72.8337108161126;-0.899658203125;-0.133392333984375;1.6599999958089;167;100 mA
72.8437108160873;-0.899658203125;-0.1331787109375;1.66999999578366;168;100 mA
72.8537108160621;-0.89935302734375;-0.135040283203125;1.67999999575841;169;100 mA
72.8637108160368;-0.89935302734375;-0.132049560546875;1.68999999573316;170;100 mA
72.8737108160116;-0.8990478515625;-0.132568359375;1.69999999570791;171;100 mA
72.8837108159863;-0.899658203125;-0.135040283203125;1.70999999568267;172;100 mA
72.8937108159611;-0.89935302734375;-0.133880615234375;1.71999999565742;173;100 mA
72.9037108159358;-0.899658203125;-0.1322021484375;1.72999999563217;174;100 mA
72.9137108159106;-0.89996337890625;-0.1346435546875;1.73999999560692;175;100 mA
72.9237108158853;-0.89935302734375;-0.131500244140625;1.74999999558167;176;100 mA
72.9337108158601;-0.89935302734375;-0.130706787109375;1.75999999555643;177;100 mA
72.9437108158348;-0.899658203125;-0.132904052734375;1.76999999553118;178;100 mA
72.9537108158096;-0.899658203125;-0.131378173828125;1.77999999550593;179;100 mA
72.9637108157843;-0.899658203125;-0.13165283203125;1.78999999548068;180;100 mA
72.9737108157591;-0.89935302734375;-0.13427734375;1.79999999545544;181;100 mA
72.9837108157338;-0.899658203125;-0.1331787109375;1.80999999543019;182;100 mA
72.9937108157086;-0.899658203125;-0.132659912109375;1.81999999540494;183;100 mA
73.0037108156833;-0.8990478515625;-0.13543701171875;1.82999999537969;184;100 mA
73.0137108156581;-0.899658203125;-0.132537841796875;1.83999999535445;185;100 mA
73.0237108156329;-0.89996337890625;-0.13177490234375;1.8499999953292;186;100 mA
73.0337108156076;-0.89935302734375;-0.134307861328125;1.85999999530395;187;100 mA
73.0437108155824;-0.899658203125;-0.13336181640625;1.8699999952787;188;100 mA
73.0537108155571;-0.89935302734375;-0.131988525390625;1.87999999525346;189;100 mA
73.0637108155319;-0.899658203125;-0.1343994140625;1.88999999522821;190;100 mA
73.0737108155066;-0.89935302734375;-0.131439208984375;1.89999999520296;191;100 mA
73.0837108154814;-0.89935302734375;-0.130462646484375;1.90999999517771;192;100 mA
73.0937108154561;-0.89935302734375;-0.1331787109375;1.91999999515247;193;100 mA
73.1037108154309;-0.89935302734375;-0.131439208984375;1.92999999512722;194;100 mA
73.1137108154056;-0.89935302734375;-0.1319580078125;1.93999999510197;195;100 mA
73.1237108153804;-0.89935302734375;-0.13507080078125;1.94999999507672;196;100 mA
73.1337108153551;-0.89935302734375;-0.13409423828125;1.95999999505148;197;100 mA
73.1437108153299;-0.8990478515625;-0.133331298828125;1.96999999502623;198;100 mA
73.1537108153046;-0.89935302734375;-0.134857177734375;1.97999999500098;199;100 mA
73.1637108152794;-0.899658203125;-0.130462646484375;1.98999999497573;200;100 mA
73.1737108152541;-0.89996337890625;-0.12994384765625;1.99999999495049;201;100 mA
73.1837108152289;-0.89935302734375;-0.132598876953125;2.00999999492524;202;100 mA
73.1937108152036;-0.9002685546875;-0.133209228515625;2.01999999489999;203;100 mA
73.2037108151784;-0.8990478515625;-0.132904052734375;2.02999999487474;204;100 mA
73.2137108151531;-0.8990478515625;-0.13519287109375;2.0399999948495;205;100 mA
73.2237108151279;-0.899658203125;-0.13262939453125;2.04999999482425;206;100 mA
73.2337108151027;-0.89935302734375;-0.1319580078125;2.059999994799;207;100 mA
73.2437108150774;-0.899658203125;-0.134796142578125;2.06999999477375;208;100 mA
73.2537108150522;-0.899658203125;-0.1324462890625;2.0799999947485;209;100 mA
73.2637108150269;-0.899658203125;-0.131927490234375;2.08999999472326;210;100 mA
73.2737108150017;-0.899658203125;-0.13494873046875;2.09999999469801;211;100 mA
73.2837108149764;-0.89996337890625;-0.133880615234375;2.10999999467276;212;100 mA
73.2937108149512;-0.899658203125;-0.13299560546875;2.11999999464751;213;100 mA
73.3037108149259;-0.899658203125;-0.135711669921875;2.12999999462227;214;100 mA
73.3137108149007;-0.9002685546875;-0.131591796875;2.13999999459702;215;100 mA
73.3237108148754;-0.89935302734375;-0.131378173828125;2.14999999457177;216;100 mA
73.3337108148502;-0.89996337890625;-0.133941650390625;2.15999999454652;217;100 mA
73.3437108148249;-0.899658203125;-0.13323974609375;2.16999999452128;218;100 mA
73.3537108147997;-0.89935302734375;-0.132965087890625;2.17999999449603;219;100 mA
73.3637108147744;-0.899658203125;-0.134765625;2.18999999447078;220;100 mA
73.3737108147492;-0.899658203125;-0.133453369140625;2.19999999444553;221;100 mA
73.3837108147239;-0.9002685546875;-0.132720947265625;2.20999999442029;222;100 mA
73.3937108146987;-0.8990478515625;-0.135498046875;2.21999999439504;223;100 mA
73.4037108146734;-0.89935302734375;-0.132232666015625;2.22999999436979;224;100 mA
73.4137108146482;-0.89996337890625;-0.13177490234375;2.23999999434454;225;100 mA
73.423710814623;-0.89935302734375;-0.134429931640625;2.2499999943193;226;100 mA
73.4337108145977;-0.89935302734375;-0.134002685546875;2.25999999429405;227;100 mA
73.4437108145725;-0.899658203125;-0.132568359375;2.2699999942688;228;100 mA
73.4537108145472;-0.89935302734375;-0.13531494140625;2.27999999424355;229;100 mA
73.463710814522;-0.89935302734375;-0.13311767578125;2.28999999421831;230;100 mA
73.4737108144967;-0.899658203125;-0.1324462890625;2.29999999419306;231;100 mA
73.4837108144715;-0.89935302734375;-0.135284423828125;2.30999999416781;232;100 mA
73.4937108144462;-0.8990478515625;-0.13446044921875;2.31999999414256;233;100 mA
73.503710814421;-0.89996337890625;-0.134368896484375;2.32999999411732;234;100 mA
73.5137108143957;-0.8990478515625;-0.136688232421875;2.33999999409207;235;100 mA
73.5237108143705;-0.89935302734375;-0.13555908203125;2.34999999406682;236;100 mA
73.5337108143452;-0.89935302734375;-0.133697509765625;2.35999999404157;237;100 mA
73.54371081432;-0.89935302734375;-0.1356201171875;2.36999999401633;238;100 mA
73.5537108142947;-0.89935302734375;-0.132232666015625;2.37999999399108;239;100 mA
73.5637108142695;-0.89996337890625;-0.131378173828125;2.38999999396583;240;100 mA
73.5737108142442;-0.89935302734375;-0.133819580078125;2.39999999394058;241;100 mA
73.583710814219;-0.899658203125;-0.131988525390625;2.40999999391533;242;100 mA
73.5937108141937;-0.89935302734375;-0.1304931640625;2.41999999389009;243;100 mA
73.6037108141685;-0.899658203125;-0.134246826171875;2.42999999386484;244;100 mA
73.6137108141432;-0.899658203125;-0.131683349609375;2.43999999383959;245;100 mA
73.623710814118;-0.899658203125;-0.130279541015625;2.44999999381434;246;100 mA
73.6337108140928;-0.899658203125;-0.13299560546875;2.4599999937891;247;100 mA
73.6437108140675;-0.89996337890625;-0.130645751953125;2.46999999376385;248;100 mA
73.6537108140423;-0.8990478515625;-0.130401611328125;2.4799999937386;249;100 mA
73.663710814017;-0.89935302734375;-0.13287353515625;2.48999999371335;250;100 mA
73.6737108139918;-0.89935302734375;-0.133148193359375;2.49999999368811;251;100 mA
73.6837108139665;-0.899658203125;-0.13287353515625;2.50999999366286;252;100 mA
73.6937108139413;-0.89935302734375;-0.134521484375;2.51999999363761;253;100 mA
73.703710813916;-0.899658203125;-0.130706787109375;2.52999999361236;254;100 mA
73.7137108138908;-0.89935302734375;-0.130401611328125;2.53999999358712;255;100 mA
73.7237108138655;-0.8990478515625;-0.133575439453125;2.54999999356187;256;100 mA
73.7337108138403;-0.89935302734375;-0.132965087890625;2.55999999353662;257;100 mA
73.743710813815;-0.89996337890625;-0.132049560546875;2.56999999351137;258;100 mA
73.7537108137898;-0.89996337890625;-0.13397216796875;2.57999999348613;259;100 mA
73.7637108137645;-0.89996337890625;-0.13262939453125;2.58999999346088;260;100 mA
73.7737108137393;-0.89935302734375;-0.1314697265625;2.59999999343563;261;100 mA
73.783710813714;-0.8990478515625;-0.133544921875;2.60999999341038;262;100 mA
73.7937108136888;-0.899658203125;-0.130584716796875;2.61999999338514;263;100 mA
73.8037108136635;-0.89935302734375;-0.12957763671875;2.62999999335989;264;100 mA
73.8137108136383;-0.89996337890625;-0.1314697265625;2.63999999333464;265;100 mA
73.823710813613;-0.899658203125;-0.1312255859375;2.64999999330939;266;100 mA
73.8337108135878;-0.89935302734375;-0.130950927734375;2.65999999328415;267;100 mA
73.8437108135626;-0.89996337890625;-0.13299560546875;2.6699999932589;268;100 mA
73.8537108135373;-0.89996337890625;-0.130859375;2.67999999323365;269;100 mA
73.8637108135121;-0.899658203125;-0.130218505859375;2.6899999932084;270;100 mA
73.8737108134868;-0.89996337890625;-0.132537841796875;2.69999999318316;271;100 mA
73.8837108134616;-0.89935302734375;-0.131103515625;2.70999999315791;272;100 mA
73.8937108134363;-0.89935302734375;-0.1302490234375;2.71999999313266;273;100 mA
73.9037108134111;-0.89935302734375;-0.132232666015625;2.72999999310741;274;100 mA
73.9137108133858;-0.9002685546875;-0.13201904296875;2.73999999308217;275;100 mA
73.9237108133606;-0.899658203125;-0.130950927734375;2.74999999305692;276;100 mA
73.9337108133353;-0.899658203125;-0.133148193359375;2.75999999303167;277;100 mA
73.9437108133101;-0.89935302734375;-0.130889892578125;2.76999999300642;278;100 mA
73.9537108132848;-0.8990478515625;-0.13031005859375;2.77999999298117;279;100 mA
73.9637108132596;-0.899658203125;-0.132354736328125;2.78999999295593;280;100 mA
73.9737108132343;-0.89996337890625;-0.131072998046875;2.79999999293068;281;100 mA
73.9837108132091;-0.89935302734375;-0.1298828125;2.80999999290543;282;100 mA
73.9937108131838;-0.899658203125;-0.131988525390625;2.81999999288018;283;100 mA
74.0037108131586;-0.899658203125;-0.130828857421875;2.82999999285494;284;100 mA
74.0137108131333;-0.89874267578125;-0.130859375;2.83999999282969;285;100 mA
74.0237108131081;-0.89996337890625;-0.132904052734375;2.84999999280444;286;100 mA
74.0337108130828;-0.899658203125;-0.131072998046875;2.85999999277919;287;100 mA
74.0437108130576;-0.89935302734375;-0.130889892578125;2.86999999275395;288;100 mA
74.0537108130324;-0.89935302734375;-0.1328125;2.8799999927287;289;100 mA
74.0637108130071;-0.89996337890625;-0.133056640625;2.88999999270345;290;100 mA
74.0737108129819;-0.89935302734375;-0.131622314453125;2.8999999926782;291;100 mA
74.0837108129566;-0.89996337890625;-0.132843017578125;2.90999999265296;292;100 mA
74.0937108129314;-0.89935302734375;-0.130615234375;2.91999999262771;293;100 mA
74.1037108129061;-0.899658203125;-0.130218505859375;2.92999999260246;294;100 mA
74.1137108128809;-0.8990478515625;-0.132843017578125;2.93999999257721;295;100 mA
74.1237108128556;-0.899658203125;-0.13177490234375;2.94999999255197;296;100 mA
74.1337108128304;-0.89996337890625;-0.130615234375;2.95999999252672;297;100 mA
74.1437108128051;-0.89935302734375;-0.132568359375;2.96999999250147;298;100 mA
74.1537108127799;-0.899658203125;-0.1322021484375;2.97999999247622;299;100 mA
74.1637108127546;-0.89935302734375;-0.13128662109375;2.98999999245098;300;100 mA
74.1737108127294;-0.89935302734375;-0.13360595703125;2.99999999242573;301;100 mA
74.1837108127041;-0.8990478515625;-0.131195068359375;3.00999999240048;302;100 mA
74.1937108126789;-0.89996337890625;-0.130767822265625;3.01999999237523;303;100 mA
74.2037108126536;-0.899658203125;-0.132110595703125;3.02999999234999;304;100 mA
74.2137108126284;-0.89996337890625;-0.130584716796875;3.03999999232474;305;100 mA
74.2237108126031;-0.899658203125;-0.1298828125;3.04999999229949;306;100 mA
74.2337108125779;-0.899658203125;-0.1318359375;3.05999999227424;307;100 mA
74.2437108125526;-0.8990478515625;-0.129852294921875;3.069999992249;308;100 mA
74.2537108125274;-0.89935302734375;-0.129241943359375;3.07999999222375;309;100 mA
74.2637108125022;-0.89935302734375;-0.1314697265625;3.0899999921985;310;100 mA
74.2737108124769;-0.899658203125;-0.130279541015625;3.09999999217325;311;100 mA
74.2837108124517;-0.89935302734375;-0.12994384765625;3.109999992148;312;100 mA
74.2937108124264;-0.89935302734375;-0.1322021484375;3.11999999212276;313;100 mA
74.3037108124012;-0.89996337890625;-0.131378173828125;3.12999999209751;314;100 mA
74.3137108123759;-0.89935302734375;-0.130706787109375;3.13999999207226;315;100 mA
74.3237108123507;-0.89996337890625;-0.13287353515625;3.14999999204701;316;100 mA
74.3337108123254;-0.899658203125;-0.13055419921875;3.15999999202177;317;100 mA
74.3437108123002;-0.89935302734375;-0.13018798828125;3.16999999199652;318;100 mA
74.3537108122749;-0.899658203125;-0.1322021484375;3.17999999197127;319;100 mA
74.3637108122497;-0.89935302734375;-0.131591796875;3.18999999194602;320;100 mA
74.3737108122244;-0.89874267578125;-0.130615234375;3.19999999192078;321;100 mA
74.3837108121992;-0.89935302734375;-0.1317138671875;3.20999999189553;322;100 mA
74.3937108121739;-0.8990478515625;-0.130157470703125;3.21999999187028;323;100 mA
74.4037108121487;-0.89935302734375;-0.129486083984375;3.22999999184503;324;100 mA
74.4137108121234;-0.89935302734375;-0.131500244140625;3.23999999181979;325;100 mA
74.4237108120982;-0.899658203125;-0.13031005859375;3.24999999179454;326;100 mA
74.4337108120729;-0.899658203125;-0.130035400390625;3.25999999176929;327;100 mA
74.4437108120477;-0.8990478515625;-0.131622314453125;3.26999999174404;328;100 mA
74.4537108120225;-0.899658203125;-0.131439208984375;3.2799999917188;329;100 mA
74.4637108119972;-0.89996337890625;-0.130523681640625;3.28999999169355;330;100 mA
74.473710811972;-0.899658203125;-0.1328125;3.2999999916683;331;100 mA
74.4837108119467;-0.899658203125;-0.13079833984375;3.30999999164305;332;100 mA
74.4937108119215;-0.899658203125;-0.130218505859375;3.31999999161781;333;100 mA
74.5037108118962;-0.89935302734375;-0.13140869140625;3.32999999159256;334;100 mA
74.513710811871;-0.89935302734375;-0.1290283203125;3.33999999156731;335;100 mA
74.5237108118457;-0.89996337890625;-0.12847900390625;3.34999999154206;336;100 mA
74.5337108118205;-0.89935302734375;-0.131195068359375;3.35999999151682;337;100 mA
74.5437108117952;-0.89935302734375;-0.131866455078125;3.36999999149157;338;100 mA
74.55371081177;-0.8990478515625;-0.13055419921875;3.37999999146632;339;100 mA
74.5637108117447;-0.8990478515625;-0.13214111328125;3.38999999144107;340;100 mA
74.5737108117195;-0.89935302734375;-0.1300048828125;3.39999999141583;341;100 mA
74.5837108116942;-0.899658203125;-0.1297607421875;3.40999999139058;342;100 mA
74.593710811669;-0.89935302734375;-0.131561279296875;3.41999999136533;343;100 mA
74.6037108116437;-0.899658203125;-0.130828857421875;3.42999999134008;344;100 mA
74.6137108116185;-0.89935302734375;-0.130035400390625;3.43999999131483;345;100 mA
74.6237108115932;-0.899658203125;-0.131683349609375;3.44999999128959;346;100 mA
74.633710811568;-0.899658203125;-0.129425048828125;3.45999999126434;347;100 mA
74.6437108115427;-0.89935302734375;-0.12872314453125;3.46999999123909;348;100 mA
74.6537108115175;-0.899658203125;-0.12994384765625;3.47999999121384;349;100 mA
74.6637108114923;-0.899658203125;-0.127593994140625;3.4899999911886;350;100 mA
74.673710811467;-0.9002685546875;-0.127532958984375;3.49999999116335;351;100 mA
74.6837108114418;-0.89935302734375;-0.12908935546875;3.5099999911381;352;100 mA
74.6937108114165;-0.899658203125;-0.128753662109375;3.51999999111285;353;100 mA
74.7037108113913;-0.899658203125;-0.1278076171875;3.52999999108761;354;100 mA
74.713710811366;-0.89935302734375;-0.12945556640625;3.53999999106236;355;100 mA
74.7237108113408;-0.89935302734375;-0.127105712890625;3.54999999103711;356;100 mA
74.7337108113155;-0.89996337890625;-0.12603759765625;3.55999999101186;357;100 mA
74.7437108112903;-0.89935302734375;-0.128173828125;3.56999999098662;358;100 mA
74.753710811265;-0.8990478515625;-0.12841796875;3.57999999096137;359;100 mA
74.7637108112398;-0.899658203125;-0.127777099609375;3.58999999093612;360;100 mA
74.7737108112145;-0.899658203125;-0.1290283203125;3.59999999091087;361;100 mA
74.7837108111893;-0.89935302734375;-0.12762451171875;3.60999999088563;362;100 mA
74.793710811164;-0.8990478515625;-0.12725830078125;3.61999999086038;363;100 mA
74.8037108111388;-0.899658203125;-0.1292724609375;3.62999999083513;364;100 mA
74.8137108111135;-0.8990478515625;-0.126678466796875;3.63999999080988;365;100 mA
74.8237108110883;-0.899658203125;-0.12615966796875;3.64999999078464;366;100 mA
74.833710811063;-0.89935302734375;-0.1280517578125;3.65999999075939;367;100 mA
74.8437108110378;-0.89996337890625;-0.127471923828125;3.66999999073414;368;100 mA
74.8537108110125;-0.899658203125;-0.126617431640625;3.67999999070889;369;100 mA
74.8637108109873;-0.899658203125;-0.128265380859375;3.68999999068365;370;100 mA
74.8737108109621;-0.89935302734375;-0.12567138671875;3.6999999906584;371;100 mA
74.8837108109368;-0.89996337890625;-0.125091552734375;3.70999999063315;372;100 mA
74.8937108109116;-0.89935302734375;-0.1278076171875;3.7199999906079;373;100 mA
74.9037108108863;-0.899658203125;-0.12738037109375;3.72999999058266;374;100 mA
74.9137108108611;-0.899658203125;-0.127532958984375;3.73999999055741;375;100 mA
74.9237108108358;-0.89935302734375;-0.129608154296875;3.74999999053216;376;100 mA
74.9337108108106;-0.89935302734375;-0.128997802734375;3.75999999050691;377;100 mA
74.9437108107853;-0.89935302734375;-0.128326416015625;3.76999999048167;378;100 mA
74.9537108107601;-0.89996337890625;-0.1300048828125;3.77999999045642;379;100 mA
74.9637108107348;-0.89996337890625;-0.1275634765625;3.78999999043117;380;100 mA
74.9737108107096;-0.89935302734375;-0.126953125;3.79999999040592;381;100 mA
74.9837108106843;-0.899658203125;-0.128509521484375;3.80999999038067;382;100 mA
74.9937108106591;-0.899658203125;-0.128082275390625;3.81999999035543;383;100 mA
75.0037108106338;-0.8990478515625;-0.128021240234375;3.82999999033018;384;100 mA
75.0137108106086;-0.89935302734375;-0.129608154296875;3.83999999030493;385;100 mA
75.0237108105833;-0.899658203125;-0.126922607421875;3.84999999027968;386;100 mA
75.0337108105581;-0.899658203125;-0.126373291015625;3.85999999025444;387;100 mA
75.0437108105328;-0.8990478515625;-0.128082275390625;3.86999999022919;388;100 mA
75.0537108105076;-0.89996337890625;-0.125579833984375;3.87999999020394;389;100 mA
75.0637108104823;-0.89935302734375;-0.1253662109375;3.88999999017869;390;100 mA
75.0737108104571;-0.89935302734375;-0.127899169921875;3.89999999015345;391;100 mA
75.0837108104319;-0.89935302734375;-0.12744140625;3.9099999901282;392;100 mA
75.0937108104066;-0.89935302734375;-0.12689208984375;3.91999999010295;393;100 mA
75.1037108103814;-0.899658203125;-0.12841796875;3.9299999900777;394;100 mA
75.1137108103561;-0.899658203125;-0.126556396484375;3.93999999005246;395;100 mA
75.1237108103309;-0.899658203125;-0.1260986328125;3.94999999002721;396;100 mA
75.1337108103056;-0.899658203125;-0.1280517578125;3.95999999000196;397;100 mA
75.1437108102804;-0.899658203125;-0.126953125;3.96999998997671;398;100 mA
75.1537108102551;-0.899658203125;-0.126312255859375;3.97999998995147;399;100 mA
75.1637108102299;-0.8990478515625;-0.128387451171875;3.98999998992622;400;100 mA
75.1737108102046;-0.8990478515625;-0.1268310546875;3.99999998990097;401;100 mA
75.1837108101794;-0.89935302734375;-0.125701904296875;4.00999998987572;402;100 mA
75.1937108101541;-0.8990478515625;-0.127044677734375;4.01999998985048;403;100 mA
75.2037108101289;-0.89935302734375;-0.12408447265625;4.02999998982523;404;100 mA
75.2137108101036;-0.899658203125;-0.124237060546875;4.03999998979998;405;100 mA
75.2237108100784;-0.89996337890625;-0.12554931640625;4.04999998977473;406;100 mA
75.2337108100531;-0.899658203125;-0.12506103515625;4.05999998974949;407;100 mA
75.2437108100279;-0.8990478515625;-0.12396240234375;4.06999998972424;408;100 mA
75.2537108100026;-0.899658203125;-0.125091552734375;4.07999998969899;409;100 mA
75.2637108099774;-0.89935302734375;-0.123809814453125;4.08999998967374;410;100 mA
75.2737108099521;-0.89996337890625;-0.1234130859375;4.0999999896485;411;100 mA
75.2837108099269;-0.89996337890625;-0.124664306640625;4.10999998962325;412;100 mA
75.2937108099017;-0.89996337890625;-0.123291015625;4.119999989598;413;100 mA
75.3037108098764;-0.899658203125;-0.123382568359375;4.12999998957275;414;100 mA
75.3137108098512;-0.899658203125;-0.124969482421875;4.1399999895475;415;100 mA
75.3237108098259;-0.89996337890625;-0.12408447265625;4.14999998952226;416;100 mA
75.3337108098007;-0.89996337890625;-0.1236572265625;4.15999998949701;417;100 mA
75.3437108097754;-0.89935302734375;-0.1258544921875;4.16999998947176;418;100 mA
75.3537108097502;-0.8990478515625;-0.123748779296875;4.17999998944651;419;100 mA
75.3637108097249;-0.89935302734375;-0.123504638671875;4.18999998942127;420;100 mA
75.3737108096997;-0.899658203125;-0.12451171875;4.19999998939602;421;100 mA
75.3837108096744;-0.89935302734375;-0.123809814453125;4.20999998937077;422;100 mA
75.3937108096492;-0.89996337890625;-0.123748779296875;4.21999998934552;423;100 mA
75.4037108096239;-0.899658203125;-0.124908447265625;4.22999998932028;424;100 mA
75.4137108095987;-0.89935302734375;-0.123992919921875;4.23999998929503;425;100 mA
75.4237108095734;-0.899658203125;-0.123077392578125;4.24999998926978;426;100 mA
75.4337108095482;-0.899658203125;-0.123931884765625;4.25999998924453;427;100 mA
75.4437108095229;-0.899658203125;-0.122802734375;4.26999998921929;428;100 mA
75.4537108094977;-0.899658203125;-0.122650146484375;4.27999998919404;429;100 mA
75.4637108094724;-0.89935302734375;-0.124237060546875;4.28999998916879;430;100 mA
75.4737108094472;-0.89935302734375;-0.123748779296875;4.29999998914354;431;100 mA
75.483710809422;-0.899658203125;-0.12286376953125;4.3099999891183;432;100 mA
75.4937108093967;-0.899658203125;-0.125274658203125;4.31999998909305;433;100 mA
75.5037108093715;-0.8990478515625;-0.123382568359375;4.3299999890678;434;100 mA
75.5137108093462;-0.89935302734375;-0.1234130859375;4.33999998904255;435;100 mA
75.523710809321;-0.89935302734375;-0.125152587890625;4.34999998901731;436;100 mA
75.5337108092957;-0.899658203125;-0.124542236328125;4.35999998899206;437;100 mA
75.5437108092705;-0.899658203125;-0.12432861328125;4.36999998896681;438;100 mA
75.5537108092452;-0.89935302734375;-0.1263427734375;4.37999998894156;439;100 mA
75.56371080922;-0.899658203125;-0.125335693359375;4.38999998891632;440;100 mA
75.5737108091947;-0.899658203125;-0.123809814453125;4.39999998889107;441;100 mA
75.5837108091695;-0.89996337890625;-0.124603271484375;4.40999998886582;442;100 mA
75.5937108091442;-0.8990478515625;-0.122711181640625;4.41999998884057;443;100 mA
75.603710809119;-0.899658203125;-0.123046875;4.42999998881533;444;100 mA
75.6137108090937;-0.899658203125;-0.1253662109375;4.43999998879008;445;100 mA
75.6237108090685;-0.899658203125;-0.12493896484375;4.44999998876483;446;100 mA
75.6337108090432;-0.89935302734375;-0.1236572265625;4.45999998873958;447;100 mA
75.643710809018;-0.899658203125;-0.1253662109375;4.46999998871433;448;100 mA
75.6537108089927;-0.899658203125;-0.123260498046875;4.47999998868909;449;100 mA
75.6637108089675;-0.8990478515625;-0.12274169921875;4.48999998866384;450;100 mA
75.6737108089422;-0.899658203125;-0.124481201171875;4.49999998863859;451;100 mA
75.683710808917;-0.899658203125;-0.12420654296875;4.50999998861334;452;100 mA
75.6937108088918;-0.89935302734375;-0.124237060546875;4.5199999885881;453;100 mA
75.7037108088665;-0.89935302734375;-0.12567138671875;4.52999998856285;454;100 mA
75.7137108088413;-0.89996337890625;-0.125030517578125;4.5399999885376;455;100 mA
75.723710808816;-0.89935302734375;-0.1243896484375;4.54999998851235;456;100 mA
75.7337108087908;-0.899658203125;-0.1259765625;4.55999998848711;457;100 mA
75.7437108087655;-0.89935302734375;-0.12432861328125;4.56999998846186;458;100 mA
75.7537108087403;-0.899658203125;-0.123748779296875;4.57999998843661;459;100 mA
75.763710808715;-0.899658203125;-0.1260986328125;4.58999998841136;460;100 mA
75.7737108086898;-0.899658203125;-0.1259765625;4.59999998838612;461;100 mA
75.7837108086645;-0.899658203125;-0.12542724609375;4.60999998836087;462;100 mA
75.7937108086393;-0.899658203125;-0.1270751953125;4.61999998833562;463;100 mA
75.803710808614;-0.899658203125;-0.125030517578125;4.62999998831037;464;100 mA
75.8137108085888;-0.899658203125;-0.1241455078125;4.63999998828513;465;100 mA
75.8237108085635;-0.899658203125;-0.125640869140625;4.64999998825988;466;100 mA
75.8337108085383;-0.9002685546875;-0.1239013671875;4.65999998823463;467;100 mA
75.843710808513;-0.89935302734375;-0.12335205078125;4.66999998820938;468;100 mA
75.8537108084878;-0.899658203125;-0.124542236328125;4.67999998818414;469;100 mA
75.8637108084625;-0.89935302734375;-0.1243896484375;4.68999998815889;470;100 mA
75.8737108084373;-0.89935302734375;-0.12384033203125;4.69999998813364;471;100 mA
75.883710808412;-0.89935302734375;-0.124969482421875;4.70999998810839;472;100 mA
75.8937108083868;-0.89935302734375;-0.12371826171875;4.71999998808315;473;100 mA
75.9037108083616;-0.89996337890625;-0.123046875;4.7299999880579;474;100 mA
75.9137108083363;-0.899658203125;-0.124359130859375;4.73999998803265;475;100 mA
75.9237108083111;-0.89996337890625;-0.124053955078125;4.7499999880074;476;100 mA
75.9337108082858;-0.89935302734375;-0.1231689453125;4.75999998798216;477;100 mA
75.9437108082606;-0.89996337890625;-0.1243896484375;4.76999998795691;478;100 mA
75.9537108082353;-0.8990478515625;-0.123016357421875;4.77999998793166;479;100 mA
75.9637108082101;-0.89935302734375;-0.122406005859375;4.78999998790641;480;100 mA
75.9737108081848;-0.89935302734375;-0.124298095703125;4.79999998788116;481;100 mA
75.9837108081596;-0.89996337890625;-0.123016357421875;4.80999998785592;482;100 mA
75.9937108081343;-0.89935302734375;-0.12249755859375;4.81999998783067;483;100 mA
76.0037108081091;-0.89935302734375;-0.123260498046875;4.82999998780542;484;100 mA
76.0137108080838;-0.89935302734375;-0.12274169921875;4.83999998778017;485;100 mA
76.0237108080586;-0.899658203125;-0.122344970703125;4.84999998775493;486;100 mA
76.0337108080333;-0.8990478515625;-0.124298095703125;4.85999998772968;487;100 mA
76.0437108080081;-0.8990478515625;-0.12347412109375;4.86999998770443;488;100 mA
76.0537108079828;-0.899658203125;-0.123077392578125;4.87999998767918;489;100 mA
76.0637108079576;-0.8990478515625;-0.12432861328125;4.88999998765394;490;100 mA
76.0737108079323;-0.89935302734375;-0.12347412109375;4.89999998762869;491;100 mA
76.0837108079071;-0.899658203125;-0.122650146484375;4.90999998760344;492;100 mA
76.0937108078818;-0.89996337890625;-0.124481201171875;4.91999998757819;493;100 mA
76.1037108078566;-0.89935302734375;-0.123870849609375;4.92999998755295;494;100 mA
76.1137108078314;-0.89996337890625;-0.123016357421875;4.9399999875277;495;100 mA
76.1237108078061;-0.899658203125;-0.12451171875;4.94999998750245;496;100 mA
76.1337108077809;-0.89935302734375;-0.122467041015625;4.9599999874772;497;100 mA
76.1437108077556;-0.899658203125;-0.121826171875;4.96999998745196;498;100 mA
76.1537108077304;-0.89935302734375;-0.12255859375;4.97999998742671;499;100 mA
76.1637108077051;-0.89935302734375;-0.1220703125;4.98999998740146;500;100 mA
76.1737108076799;-0.899658203125;-0.121917724609375;4.99999998737621;501;100 mA
76.1837108076546;-0.899658203125;-0.1234130859375;5.00999998735097;502;100 mA
76.1937108076294;-0.8990478515625;-0.121551513671875;5.01999998732572;503;100 mA
76.2037108076041;-0.89935302734375;-0.120758056640625;5.02999998730047;504;100 mA
76.2137108075789;-0.899658203125;-0.122344970703125;5.03999998727522;505;100 mA
76.2237108075536;-0.899658203125;-0.120819091796875;5.04999998724998;506;100 mA
76.2337108075284;-0.89935302734375;-0.12054443359375;5.05999998722473;507;100 mA
76.2437108075031;-0.899658203125;-0.122528076171875;5.06999998719948;508;100 mA
76.2537108074779;-0.899658203125;-0.123443603515625;5.07999998717423;509;100 mA
76.2637108074526;-0.89935302734375;-0.12286376953125;5.08999998714899;510;100 mA
76.2737108074274;-0.89935302734375;-0.123931884765625;5.09999998712374;511;100 mA
76.2837108074021;-0.89935302734375;-0.1214599609375;5.10999998709849;512;100 mA
76.2937108073769;-0.89935302734375;-0.121063232421875;5.11999998707324;513;100 mA
76.3037108073516;-0.89935302734375;-0.123077392578125;5.129999987048;514;100 mA
76.3137108073264;-0.89935302734375;-0.12261962890625;5.13999998702275;515;100 mA
76.3237108073012;-0.89935302734375;-0.121612548828125;5.1499999869975;516;100 mA
76.3337108072759;-0.89935302734375;-0.1226806640625;5.15999998697225;517;100 mA
76.3437108072507;-0.89996337890625;-0.121734619140625;5.169999986947;518;100 mA
76.3537108072254;-0.8990478515625;-0.12176513671875;5.17999998692176;519;100 mA
76.3637108072002;-0.899658203125;-0.123626708984375;5.18999998689651;520;100 mA
76.3737108071749;-0.89935302734375;-0.12286376953125;5.19999998687126;521;100 mA
76.3837108071497;-0.899658203125;-0.122467041015625;5.20999998684601;522;100 mA
76.3937108071244;-0.899658203125;-0.123809814453125;5.21999998682077;523;100 mA
76.4037108070992;-0.89935302734375;-0.1236572265625;5.22999998679552;524;100 mA
76.4137108070739;-0.89935302734375;-0.123321533203125;5.23999998677027;525;100 mA
76.4237108070487;-0.89935302734375;-0.124267578125;5.24999998674502;526;100 mA
76.4337108070234;-0.89996337890625;-0.122222900390625;5.25999998671978;527;100 mA
76.4437108069982;-0.89996337890625;-0.12152099609375;5.26999998669453;528;100 mA
76.4537108069729;-0.89935302734375;-0.12274169921875;5.27999998666928;529;100 mA
76.4637108069477;-0.89935302734375;-0.121826171875;5.28999998664403;530;100 mA
76.4737108069224;-0.899658203125;-0.121002197265625;5.29999998661879;531;100 mA
76.4837108068972;-0.899658203125;-0.12286376953125;5.30999998659354;532;100 mA
76.4937108068719;-0.89935302734375;-0.1221923828125;5.31999998656829;533;100 mA
76.5037108068467;-0.89996337890625;-0.121673583984375;5.32999998654304;534;100 mA
76.5137108068215;-0.8990478515625;-0.123809814453125;5.3399999865178;535;100 mA
76.5237108067962;-0.8990478515625;-0.122406005859375;5.34999998649255;536;100 mA
76.533710806771;-0.89935302734375;-0.1221923828125;5.3599999864673;537;100 mA
76.5437108067457;-0.899658203125;-0.12353515625;5.36999998644205;538;100 mA
76.5537108067205;-0.8990478515625;-0.1234130859375;5.37999998641681;539;100 mA
76.5637108066952;-0.89935302734375;-0.123626708984375;5.38999998639156;540;100 mA
76.57371080667;-0.8990478515625;-0.125152587890625;5.39999998636631;541;100 mA
76.5837108066447;-0.8990478515625;-0.1241455078125;5.40999998634106;542;100 mA
76.5937108066195;-0.899658203125;-0.123504638671875;5.41999998631582;543;100 mA
76.6037108065942;-0.89996337890625;-0.124420166015625;5.42999998629057;544;100 mA
76.613710806569;-0.899658203125;-0.123626708984375;5.43999998626532;545;100 mA
76.6237108065437;-0.89935302734375;-0.1224365234375;5.44999998624007;546;100 mA
76.6337108065185;-0.899658203125;-0.123260498046875;5.45999998621483;547;100 mA
76.6437108064932;-0.899658203125;-0.122955322265625;5.46999998618958;548;100 mA
76.653710806468;-0.8990478515625;-0.121826171875;5.47999998616433;549;100 mA
76.6637108064427;-0.899658203125;-0.123443603515625;5.48999998613908;550;100 mA
76.6737108064175;-0.899658203125;-0.12200927734375;5.49999998611383;551;100 mA
76.6837108063922;-0.899658203125;-0.121490478515625;5.50999998608859;552;100 mA
76.693710806367;-0.89935302734375;-0.122772216796875;5.51999998606334;553;100 mA
76.7037108063417;-0.899658203125;-0.122314453125;5.52999998603809;554;100 mA
76.7137108063165;-0.899658203125;-0.122222900390625;5.53999998601284;555;100 mA
76.7237108062913;-0.8990478515625;-0.122955322265625;5.5499999859876;556;100 mA
76.733710806266;-0.899658203125;-0.122314453125;5.55999998596235;557;100 mA
76.7437108062408;-0.899658203125;-0.122161865234375;5.5699999859371;558;100 mA
76.7537108062155;-0.89935302734375;-0.122772216796875;5.57999998591185;559;100 mA
76.7637108061903;-0.89996337890625;-0.1217041015625;5.58999998588661;560;100 mA
76.773710806165;-0.899658203125;-0.121490478515625;5.59999998586136;561;100 mA
76.7837108061398;-0.89935302734375;-0.12249755859375;5.60999998583611;562;100 mA
76.7937108061145;-0.89935302734375;-0.122283935546875;5.61999998581086;563;100 mA
76.8037108060893;-0.899658203125;-0.121185302734375;5.62999998578562;564;100 mA
76.813710806064;-0.899658203125;-0.122283935546875;5.63999998576037;565;100 mA
76.8237108060388;-0.9002685546875;-0.121063232421875;5.64999998573512;566;100 mA
76.8337108060135;-0.899658203125;-0.120208740234375;5.65999998570987;567;100 mA
76.8437108059883;-0.899658203125;-0.121429443359375;5.66999998568463;568;100 mA
76.853710805963;-0.8990478515625;-0.120635986328125;5.67999998565938;569;100 mA
76.8637108059378;-0.899658203125;-0.120269775390625;5.68999998563413;570;100 mA
76.8737108059125;-0.899658203125;-0.121185302734375;5.69999998560888;571;100 mA
76.8837108058873;-0.899658203125;-0.120208740234375;5.70999998558364;572;100 mA
76.893710805862;-0.89935302734375;-0.119598388671875;5.71999998555839;573;100 mA
76.9037108058368;-0.899658203125;-0.12115478515625;5.72999998553314;574;100 mA
76.9137108058115;-0.899658203125;-0.119964599609375;5.73999998550789;575;100 mA
76.9237108057863;-0.8990478515625;-0.11944580078125;5.74999998548265;576;100 mA
76.9337108057611;-0.89935302734375;-0.1204833984375;5.7599999854574;577;100 mA
76.9437108057358;-0.9002685546875;-0.120025634765625;5.76999998543215;578;100 mA
76.9537108057106;-0.89935302734375;-0.119537353515625;5.7799999854069;579;100 mA
76.9637108056853;-0.899658203125;-0.121551513671875;5.78999998538166;580;100 mA
76.9737108056601;-0.89874267578125;-0.120574951171875;5.79999998535641;581;100 mA
76.9837108056348;-0.899658203125;-0.120086669921875;5.80999998533116;582;100 mA
76.9937108056096;-0.899658203125;-0.121612548828125;5.81999998530591;583;100 mA
77.0037108055843;-0.89935302734375;-0.120086669921875;5.82999998528066;584;100 mA
77.0137108055591;-0.899658203125;-0.119873046875;5.83999998525542;585;100 mA
77.0237108055338;-0.89996337890625;-0.121856689453125;5.84999998523017;586;100 mA
77.0337108055086;-0.89935302734375;-0.12200927734375;5.85999998520492;587;100 mA
77.0437108054833;-0.89935302734375;-0.122100830078125;5.86999998517967;588;100 mA
77.0537108054581;-0.899658203125;-0.122894287109375;5.87999998515443;589;100 mA
77.0637108054328;-0.89935302734375;-0.120941162109375;5.88999998512918;590;100 mA
77.0737108054076;-0.899658203125;-0.12054443359375;5.89999998510393;591;100 mA
77.0837108053823;-0.8990478515625;-0.12158203125;5.90999998507868;592;100 mA
77.0937108053571;-0.89935302734375;-0.120941162109375;5.91999998505344;593;100 mA
77.1037108053318;-0.8990478515625;-0.1209716796875;5.92999998502819;594;100 mA
77.1137108053066;-0.89935302734375;-0.122528076171875;5.93999998500294;595;100 mA
77.1237108052813;-0.89935302734375;-0.121795654296875;5.94999998497769;596;100 mA
77.1337108052561;-0.899658203125;-0.120819091796875;5.95999998495245;597;100 mA
77.1437108052309;-0.89935302734375;-0.121856689453125;5.9699999849272;598;100 mA
77.1537108052056;-0.899658203125;-0.119842529296875;5.97999998490195;599;100 mA
77.1637108051804;-0.899658203125;-0.11895751953125;5.9899999848767;600;100 mA
77.1737108051551;-0.89935302734375;-0.12030029296875;5.99999998485146;601;100 mA
77.1837108051299;-0.8990478515625;-0.119873046875;6.00999998482621;602;100 mA
77.1937108051046;-0.89935302734375;-0.119659423828125;6.01999998480096;603;100 mA
77.2037108050794;-0.89935302734375;-0.12109375;6.02999998477571;604;100 mA
77.2137108050541;-0.899658203125;-0.119537353515625;6.03999998475047;605;100 mA
77.2237108050289;-0.89935302734375;-0.1195068359375;6.04999998472522;606;100 mA
77.2337108050036;-0.899658203125;-0.12060546875;6.05999998469997;607;100 mA
77.2437108049784;-0.899658203125;-0.120208740234375;6.06999998467472;608;100 mA
77.2537108049531;-0.899658203125;-0.120208740234375;6.07999998464948;609;100 mA
77.2637108049279;-0.89935302734375;-0.12109375;6.08999998462423;610;100 mA
77.2737108049026;-0.899658203125;-0.120849609375;6.09999998459898;611;100 mA
77.2837108048774;-0.89935302734375;-0.120574951171875;6.10999998457373;612;100 mA
77.2937108048521;-0.899658203125;-0.121612548828125;6.11999998454849;613;100 mA
77.3037108048269;-0.9002685546875;-0.119842529296875;6.12999998452324;614;100 mA
77.3137108048016;-0.89935302734375;-0.1195068359375;6.13999998449799;615;100 mA
77.3237108047764;-0.89935302734375;-0.120635986328125;6.14999998447274;616;100 mA
77.3337108047511;-0.89874267578125;-0.1202392578125;6.1599999844475;617;100 mA
77.3437108047259;-0.89996337890625;-0.12017822265625;6.16999998442225;618;100 mA
77.3537108047007;-0.89935302734375;-0.121368408203125;6.179999984397;619;100 mA
77.3637108046754;-0.899658203125;-0.120269775390625;6.18999998437175;620;100 mA
77.3737108046502;-0.89935302734375;-0.120361328125;6.1999999843465;621;100 mA
77.3837108046249;-0.89996337890625;-0.121917724609375;6.20999998432126;622;100 mA
77.3937108045997;-0.89935302734375;-0.12066650390625;6.21999998429601;623;100 mA
77.4037108045744;-0.89935302734375;-0.1207275390625;6.22999998427076;624;100 mA
77.4137108045492;-0.89996337890625;-0.121551513671875;6.23999998424551;625;100 mA
77.4237108045239;-0.899658203125;-0.120880126953125;6.24999998422027;626;100 mA
77.4337108044987;-0.89935302734375;-0.119903564453125;6.25999998419502;627;100 mA
77.4437108044734;-0.899658203125;-0.121063232421875;6.26999998416977;628;100 mA
77.4537108044482;-0.89935302734375;-0.120025634765625;6.27999998414452;629;100 mA
77.4637108044229;-0.89935302734375;-0.11932373046875;6.28999998411928;630;100 mA
77.4737108043977;-0.89935302734375;-0.12066650390625;6.29999998409403;631;100 mA
77.4837108043724;-0.89935302734375;-0.1201171875;6.30999998406878;632;100 mA
77.4937108043472;-0.899658203125;-0.119415283203125;6.31999998404353;633;100 mA
77.5037108043219;-0.899658203125;-0.12091064453125;6.32999998401829;634;100 mA
77.5137108042967;-0.89996337890625;-0.119873046875;6.33999998399304;635;100 mA
77.5237108042714;-0.89935302734375;-0.119415283203125;6.34999998396779;636;100 mA
77.5337108042462;-0.89935302734375;-0.1207275390625;6.35999998394254;637;100 mA
77.543710804221;-0.899658203125;-0.118743896484375;6.3699999839173;638;100 mA
77.5537108041957;-0.899658203125;-0.11846923828125;6.37999998389205;639;100 mA
77.5637108041705;-0.899658203125;-0.12005615234375;6.3899999838668;640;100 mA
77.5737108041452;-0.8990478515625;-0.120330810546875;6.39999998384155;641;100 mA
77.58371080412;-0.8990478515625;-0.120269775390625;6.40999998381631;642;100 mA
77.5937108040947;-0.89935302734375;-0.12115478515625;6.41999998379106;643;100 mA
77.6037108040695;-0.89996337890625;-0.11956787109375;6.42999998376581;644;100 mA
77.6137108040442;-0.89935302734375;-0.11968994140625;6.43999998374056;645;100 mA
77.623710804019;-0.89935302734375;-0.121063232421875;6.44999998371532;646;100 mA
77.6337108039937;-0.899658203125;-0.120513916015625;6.45999998369007;647;100 mA
77.6437108039685;-0.89996337890625;-0.120147705078125;6.46999998366482;648;100 mA
77.6537108039432;-0.899658203125;-0.12078857421875;6.47999998363957;649;100 mA
77.663710803918;-0.8990478515625;-0.11956787109375;6.48999998361433;650;100 mA
77.6737108038927;-0.89935302734375;-0.118560791015625;6.49999998358908;651;100 mA
77.6837108038675;-0.89935302734375;-0.119873046875;6.50999998356383;652;100 mA
77.6937108038422;-0.899658203125;-0.1180419921875;6.51999998353858;653;100 mA
77.703710803817;-0.8990478515625;-0.117523193359375;6.52999998351333;654;100 mA
77.7137108037917;-0.89935302734375;-0.11883544921875;6.53999998348809;655;100 mA
77.7237108037665;-0.89935302734375;-0.11883544921875;6.54999998346284;656;100 mA
77.7337108037412;-0.899658203125;-0.119140625;6.55999998343759;657;100 mA
77.743710803716;-0.8990478515625;-0.120269775390625;6.56999998341234;658;100 mA
77.7537108036908;-0.89935302734375;-0.118743896484375;6.5799999833871;659;100 mA
77.7637108036655;-0.899658203125;-0.118499755859375;6.58999998336185;660;100 mA
77.7737108036403;-0.89935302734375;-0.11993408203125;6.5999999833366;661;100 mA
77.783710803615;-0.899658203125;-0.118621826171875;6.60999998331135;662;100 mA
77.7937108035898;-0.8990478515625;-0.117919921875;6.61999998328611;663;100 mA
77.8037108035645;-0.89935302734375;-0.11907958984375;6.62999998326086;664;100 mA
77.8137108035393;-0.89996337890625;-0.118743896484375;6.63999998323561;665;100 mA
77.823710803514;-0.89874267578125;-0.118011474609375;6.64999998321036;666;100 mA
77.8337108034888;-0.89935302734375;-0.119659423828125;6.65999998318512;667;100 mA
77.8437108034635;-0.89935302734375;-0.118621826171875;6.66999998315987;668;100 mA
77.8537108034383;-0.899658203125;-0.118133544921875;6.67999998313462;669;100 mA
77.863710803413;-0.89935302734375;-0.119659423828125;6.68999998310937;670;100 mA
77.8737108033878;-0.89935302734375;-0.119354248046875;6.69999998308413;671;100 mA
77.8837108033625;-0.89996337890625;-0.119232177734375;6.70999998305888;672;100 mA
77.8937108033373;-0.89935302734375;-0.120361328125;6.71999998303363;673;100 mA
77.903710803312;-0.89874267578125;-0.119537353515625;6.72999998300838;674;100 mA
77.9137108032868;-0.899658203125;-0.119232177734375;6.73999998298314;675;100 mA
77.9237108032615;-0.8990478515625;-0.12017822265625;6.74999998295789;676;100 mA
77.9337108032363;-0.89935302734375;-0.11871337890625;6.75999998293264;677;100 mA
77.943710803211;-0.899658203125;-0.118011474609375;6.76999998290739;678;100 mA
77.9537108031858;-0.89935302734375;-0.118896484375;6.77999998288215;679;100 mA
77.9637108031606;-0.9002685546875;-0.119476318359375;6.7899999828569;680;100 mA
77.9737108031353;-0.89935302734375;-0.1190185546875;6.79999998283165;681;100 mA
77.9837108031101;-0.899658203125;-0.120330810546875;6.8099999828064;682;100 mA
77.9937108030848;-0.9002685546875;-0.119537353515625;6.81999998278116;683;100 mA
78.0037108030596;-0.89935302734375;-0.1190185546875;6.82999998275591;684;100 mA
78.0137108030343;-0.89935302734375;-0.1199951171875;6.83999998273066;685;100 mA
78.0237108030091;-0.89935302734375;-0.119049072265625;6.84999998270541;686;100 mA
78.0337108029838;-0.89996337890625;-0.1185302734375;6.85999998268016;687;100 mA
78.0437108029586;-0.89935302734375;-0.119842529296875;6.86999998265492;688;100 mA
78.0537108029333;-0.899658203125;-0.11944580078125;6.87999998262967;689;100 mA
78.0637108029081;-0.89935302734375;-0.119140625;6.88999998260442;690;100 mA
78.0737108028828;-0.899658203125;-0.120269775390625;6.89999998257917;691;100 mA
78.0837108028576;-0.89935302734375;-0.119110107421875;6.90999998255393;692;100 mA
78.0937108028323;-0.899658203125;-0.119232177734375;6.91999998252868;693;100 mA
78.1037108028071;-0.89935302734375;-0.120574951171875;6.92999998250343;694;100 mA
78.1137108027818;-0.89935302734375;-0.120391845703125;6.93999998247818;695;100 mA
78.1237108027566;-0.8990478515625;-0.11968994140625;6.94999998245294;696;100 mA
78.1337108027313;-0.8990478515625;-0.120635986328125;6.95999998242769;697;100 mA
78.1437108027061;-0.89935302734375;-0.119842529296875;6.96999998240244;698;100 mA
78.1537108026808;-0.899658203125;-0.119415283203125;6.97999998237719;699;100 mA
78.1637108026556;-0.89935302734375;-0.12078857421875;6.98999998235195;700;100 mA
