Time (s);WE(1).Potential (V);WE(1).Current (A);Corrected time (s);Index;Current range
38.6959559023021;0.65057373046875;1.0430908203125;0;1;1 A
38.7059559022769;0.649871826171875;0.75531005859375;0.00999999997475243;2;1 A
38.7159559022516;0.649658203125;0.62744140625;0.0199999999495049;3;1 A
38.7259559022264;0.649658203125;0.55267333984375;0.0299999999242573;4;1 A
38.7359559022011;0.649627685546875;0.50018310546875;0.0399999998990097;5;1 A
38.7459559021759;0.649505615234375;0.46734619140625;0.0499999998737621;6;1 A
38.7559559021506;0.649627685546875;0.441375732421875;0.0599999998485146;7;1 A
38.7659559021254;0.649444580078125;0.4195556640625;0.069999999823267;8;1 A
38.7759559021001;0.649658203125;0.40252685546875;0.0799999997980194;9;1 A
38.7859559020749;0.64959716796875;0.38720703125;0.0899999997727718;10;1 A
38.7959559020496;0.6497802734375;0.376190185546875;0.0999999997475243;11;1 A
38.8059559020244;0.649505615234375;0.369476318359375;0.109999999722277;12;1 A
38.8159559019991;0.6495361328125;0.360687255859375;0.119999999697029;13;1 A
38.8259559019739;0.64947509765625;0.355804443359375;0.129999999671782;14;1 A
38.8359559019486;0.649566650390625;0.3568115234375;0.139999999646534;15;1 A
38.8459559019234;0.649505615234375;0.346649169921875;0.149999999621286;16;1 A
38.8559559018981;0.64959716796875;0.343841552734375;0.159999999596039;17;1 A
38.8659559018729;0.6495361328125;0.340423583984375;0.169999999570791;18;1 A
38.8759559018476;0.649505615234375;0.33978271484375;0.179999999545544;19;1 A
38.8859559018224;0.649566650390625;0.34002685546875;0.189999999520296;20;1 A
38.8959559017972;0.64959716796875;0.3367919921875;0.199999999495049;21;1 A
38.9059559017719;0.649566650390625;0.336944580078125;0.209999999469801;22;1 A
38.9159559017467;0.64959716796875;0.3363037109375;0.219999999444553;23;1 A
38.9259559017214;0.649566650390625;0.333740234375;0.229999999419306;24;1 A
38.9359559016962;0.64959716796875;0.333099365234375;0.239999999394058;25;1 A
38.9459559016709;0.64947509765625;0.3289794921875;0.249999999368811;26;1 A
38.9559559016457;0.649566650390625;0.328460693359375;0.259999999343563;27;1 A
38.9659559016204;0.64959716796875;0.327423095703125;0.269999999318316;28;1 A
38.9759559015952;0.649505615234375;0.32806396484375;0.279999999293068;29;1 A
38.9859559015699;0.649566650390625;0.331268310546875;0.28999999926782;30;1 A
38.9959559015447;0.6495361328125;0.328826904296875;0.299999999242573;31;1 A
39.0059559015194;0.64947509765625;0.327911376953125;0.309999999217325;32;1 A
39.0159559014942;0.64971923828125;0.332733154296875;0.319999999192078;33;1 A
39.0259559014689;0.6495361328125;0.32940673828125;0.32999999916683;34;1 A
39.0359559014437;0.6495361328125;0.326385498046875;0.339999999141583;35;1 A
39.0459559014184;0.64959716796875;0.326751708984375;0.349999999116335;36;1 A
39.0559559013932;0.64959716796875;0.32794189453125;0.359999999091087;37;1 A
39.0659559013679;0.649444580078125;0.33172607421875;0.36999999906584;38;1 A
39.0759559013427;0.649566650390625;0.33087158203125;0.379999999040592;39;1 A
39.0859559013174;0.64947509765625;0.3251953125;0.389999999015345;40;1 A
39.0959559012922;0.649566650390625;0.326171875;0.399999998990097;41;1 A
39.105955901267;0.649505615234375;0.324981689453125;0.40999999896485;42;1 A
39.1159559012417;0.649566650390625;0.323883056640625;0.419999998939602;43;1 A
39.1259559012165;0.649627685546875;0.326080322265625;0.429999998914354;44;1 A
39.1359559011912;0.6495361328125;0.325714111328125;0.439999998889107;45;1 A
39.145955901166;0.649627685546875;0.330535888671875;0.449999998863859;46;1 A
39.1559559011407;0.6495361328125;0.33270263671875;0.459999998838612;47;1 A
39.1659559011155;0.649566650390625;0.32623291015625;0.469999998813364;48;1 A
39.1759559010902;0.649688720703125;0.328094482421875;0.479999998788116;49;1 A
39.185955901065;0.64947509765625;0.3255615234375;0.489999998762869;50;1 A
39.1959559010397;0.649566650390625;0.325439453125;0.499999998737621;51;1 A
39.2059559010145;0.64959716796875;0.326873779296875;0.509999998712374;52;1 A
39.2159559009892;0.649444580078125;0.3216552734375;0.519999998687126;53;1 A
39.225955900964;0.6495361328125;0.321807861328125;0.529999998661879;54;1 A
39.2359559009387;0.649505615234375;0.321136474609375;0.539999998636631;55;1 A
39.2459559009135;0.649444580078125;0.32080078125;0.549999998611383;56;1 A
39.2559559008882;0.649658203125;0.32135009765625;0.559999998586136;57;1 A
39.265955900863;0.649566650390625;0.320404052734375;0.569999998560888;58;1 A
39.2759559008377;0.649505615234375;0.32098388671875;0.579999998535641;59;1 A
39.2859559008125;0.649627685546875;0.320343017578125;0.589999998510393;60;1 A
39.2959559007872;0.6495361328125;0.318084716796875;0.599999998485146;61;1 A
39.305955900762;0.6494140625;0.323394775390625;0.609999998459898;62;1 A
39.3159559007368;0.64959716796875;0.322235107421875;0.61999999843465;63;1 A
39.3259559007115;0.649505615234375;0.319610595703125;0.629999998409403;64;1 A
39.3359559006863;0.64959716796875;0.3206787109375;0.639999998384155;65;1 A
39.345955900661;0.64959716796875;0.318145751953125;0.649999998358908;66;1 A
39.3559559006358;0.649505615234375;0.3192138671875;0.65999999833366;67;1 A
39.3659559006105;0.649566650390625;0.32330322265625;0.669999998308413;68;1 A
39.3759559005853;0.6495361328125;0.319183349609375;0.679999998283165;69;1 A
39.38595590056;0.649505615234375;0.318511962890625;0.689999998257917;70;1 A
39.3959559005348;0.6495361328125;0.316192626953125;0.69999999823267;71;1 A
39.4059559005095;0.64959716796875;0.317138671875;0.709999998207422;72;1 A
39.4159559004843;0.649688720703125;0.318603515625;0.719999998182175;73;1 A
39.425955900459;0.64947509765625;0.317108154296875;0.729999998156927;74;1 A
39.4359559004338;0.649566650390625;0.3173828125;0.73999999813168;75;1 A
39.4459559004085;0.64959716796875;0.32000732421875;0.749999998106432;76;1 A
39.4559559003833;0.649444580078125;0.321075439453125;0.759999998081184;77;1 A
39.465955900358;0.64947509765625;0.32427978515625;0.769999998055937;78;1 A
39.4759559003328;0.649566650390625;0.323516845703125;0.779999998030689;79;1 A
39.4859559003075;0.649566650390625;0.322174072265625;0.789999998005442;80;1 A
39.4959559002823;0.64971923828125;0.322784423828125;0.799999997980194;81;1 A
39.505955900257;0.649627685546875;0.32275390625;0.809999997954947;82;1 A
39.5159559002318;0.649505615234375;0.326080322265625;0.819999997929699;83;1 A
39.5259559002066;0.64959716796875;0.32861328125;0.829999997904451;84;1 A
39.5359559001813;0.6495361328125;0.328155517578125;0.839999997879204;85;1 A
39.5459559001561;0.64947509765625;0.32867431640625;0.849999997853956;86;1 A
39.5559559001308;0.649566650390625;0.32958984375;0.859999997828709;87;1 A
39.5659559001056;0.649566650390625;0.33001708984375;0.869999997803461;88;1 A
39.5759559000803;0.649658203125;0.32940673828125;0.879999997778214;89;1 A
39.5859559000551;0.6495361328125;0.3270263671875;0.889999997752966;90;1 A
39.5959559000298;0.64959716796875;0.3287353515625;0.899999997727718;91;1 A
39.6059559000046;0.64959716796875;0.328338623046875;0.909999997702471;92;1 A
39.6159558999793;0.6495361328125;0.327911376953125;0.919999997677223;93;1 A
39.6259558999541;0.649444580078125;0.332794189453125;0.929999997651976;94;1 A
39.6359558999288;0.64959716796875;0.3311767578125;0.939999997626728;95;1 A
39.6459558999036;0.64959716796875;0.329925537109375;0.949999997601481;96;1 A
39.6559558998783;0.649658203125;0.331024169921875;0.959999997576233;97;1 A
39.6659558998531;0.649505615234375;0.329986572265625;0.969999997550985;98;1 A
39.6759558998278;0.64959716796875;0.3310546875;0.979999997525738;99;1 A
39.6859558998026;0.6495361328125;0.335235595703125;0.98999999750049;100;1 A
39.6959558997773;0.649444580078125;0.332855224609375;0.999999997475243;101;1 A
39.7059558997521;0.6494140625;0.333984375;1.00999999745;102;1 A
39.7159558997269;0.6495361328125;0.33209228515625;1.01999999742475;103;1 A
39.7259558997016;0.649566650390625;0.328948974609375;1.0299999973995;104;1 A
39.7359558996764;0.6497802734375;0.32904052734375;1.03999999737425;105;1 A
39.7459558996511;0.64959716796875;0.32574462890625;1.049999997349;106;1 A
39.7559558996259;0.649627685546875;0.326995849609375;1.05999999732376;107;1 A
39.7659558996006;0.649627685546875;0.32757568359375;1.06999999729851;108;1 A
39.7759558995754;0.6495361328125;0.3240966796875;1.07999999727326;109;1 A
39.7859558995501;0.649383544921875;0.327392578125;1.08999999724801;110;1 A
39.7959558995249;0.6495361328125;0.3271484375;1.09999999722277;111;1 A
39.8059558994996;0.64959716796875;0.323272705078125;1.10999999719752;112;1 A
39.8159558994744;0.649658203125;0.3282470703125;1.11999999717227;113;1 A
39.8259558994491;0.649566650390625;0.32574462890625;1.12999999714702;114;1 A
39.8359558994239;0.6495361328125;0.327423095703125;1.13999999712178;115;1 A
39.8459558993986;0.6495361328125;0.33135986328125;1.14999999709653;116;1 A
39.8559558993734;0.649566650390625;0.325653076171875;1.15999999707128;117;1 A
39.8659558993481;0.649566650390625;0.32623291015625;1.16999999704603;118;1 A
39.8759558993229;0.6495361328125;0.329803466796875;1.17999999702079;119;1 A
39.8859558992976;0.64959716796875;0.334259033203125;1.18999999699554;120;1 A
39.8959558992724;0.649688720703125;0.337677001953125;1.19999999697029;121;1 A
39.9059558992471;0.649566650390625;0.333953857421875;1.20999999694504;122;1 A
39.9159558992219;0.64959716796875;0.3338623046875;1.2199999969198;123;1 A
39.9259558991967;0.649566650390625;0.334930419921875;1.22999999689455;124;1 A
39.9359558991714;0.6494140625;0.3311767578125;1.2399999968693;125;1 A
39.9459558991462;0.64947509765625;0.33001708984375;1.24999999684405;126;1 A
39.9559558991209;0.649566650390625;0.32830810546875;1.25999999681881;127;1 A
39.9659558990957;0.649566650390625;0.335235595703125;1.26999999679356;128;1 A
39.9759558990704;0.64959716796875;0.343719482421875;1.27999999676831;129;1 A
39.9859558990452;0.649566650390625;0.337432861328125;1.28999999674306;130;1 A
39.9959558990199;0.64947509765625;0.335052490234375;1.29999999671782;131;1 A
40.0059558989947;0.649566650390625;0.335357666015625;1.30999999669257;132;1 A
40.0159558989694;0.6495361328125;0.329742431640625;1.31999999666732;133;1 A
40.0259558989442;0.6494140625;0.33251953125;1.32999999664207;134;1 A
40.0359558989189;0.649566650390625;0.327484130859375;1.33999999661683;135;1 A
40.0459558988937;0.6495361328125;0.32659912109375;1.34999999659158;136;1 A
40.0559558988684;0.64959716796875;0.332275390625;1.35999999656633;137;1 A
40.0659558988432;0.64947509765625;0.325836181640625;1.36999999654108;138;1 A
40.0759558988179;0.64959716796875;0.3223876953125;1.37999999651583;139;1 A
40.0859558987927;0.64971923828125;0.3248291015625;1.38999999649059;140;1 A
40.0959558987674;0.649444580078125;0.319183349609375;1.39999999646534;141;1 A
40.1059558987422;0.649566650390625;0.3226318359375;1.40999999644009;142;1 A
40.1159558987169;0.649627685546875;0.321075439453125;1.41999999641484;143;1 A
40.1259558986917;0.6494140625;0.320159912109375;1.4299999963896;144;1 A
40.1359558986665;0.649658203125;0.32861328125;1.43999999636435;145;1 A
40.1459558986412;0.6495361328125;0.326416015625;1.4499999963391;146;1 A
40.155955898616;0.649566650390625;0.32574462890625;1.45999999631385;147;1 A
40.1659558985907;0.64959716796875;0.325775146484375;1.46999999628861;148;1 A
40.1759558985655;0.649444580078125;0.323486328125;1.47999999626336;149;1 A
40.1859558985402;0.6495361328125;0.323883056640625;1.48999999623811;150;1 A
40.195955898515;0.649627685546875;0.3228759765625;1.49999999621286;151;1 A
40.2059558984897;0.64947509765625;0.319366455078125;1.50999999618762;152;1 A
40.2159558984645;0.649627685546875;0.32073974609375;1.51999999616237;153;1 A
40.2259558984392;0.649627685546875;0.321319580078125;1.52999999613712;154;1 A
40.235955898414;0.649444580078125;0.32379150390625;1.53999999611187;155;1 A
40.2459558983887;0.64959716796875;0.32757568359375;1.54999999608663;156;1 A
40.2559558983635;0.649566650390625;0.322906494140625;1.55999999606138;157;1 A
40.2659558983382;0.649505615234375;0.32257080078125;1.56999999603613;158;1 A
40.275955898313;0.6495361328125;0.3238525390625;1.57999999601088;159;1 A
40.2859558982877;0.649505615234375;0.320648193359375;1.58999999598564;160;1 A
40.2959558982625;0.649627685546875;0.326446533203125;1.59999999596039;161;1 A
40.3059558982372;0.64959716796875;0.322662353515625;1.60999999593514;162;1 A
40.315955898212;0.649505615234375;0.32269287109375;1.61999999590989;163;1 A
40.3259558981867;0.6495361328125;0.323883056640625;1.62999999588465;164;1 A
40.3359558981615;0.649505615234375;0.325042724609375;1.6399999958594;165;1 A
40.3459558981363;0.6495361328125;0.33050537109375;1.64999999583415;166;1 A
40.355955898111;0.6495361328125;0.328826904296875;1.6599999958089;167;1 A
40.3659558980858;0.649566650390625;0.325897216796875;1.66999999578366;168;1 A
40.3759558980605;0.649658203125;0.331817626953125;1.67999999575841;169;1 A
40.3859558980353;0.6495361328125;0.322906494140625;1.68999999573316;170;1 A
40.39595589801;0.649505615234375;0.324737548828125;1.69999999570791;171;1 A
40.4059558979848;0.649627685546875;0.32720947265625;1.70999999568267;172;1 A
40.4159558979595;0.64947509765625;0.3243408203125;1.71999999565742;173;1 A
40.4259558979343;0.64947509765625;0.325286865234375;1.72999999563217;174;1 A
40.435955897909;0.649505615234375;0.326141357421875;1.73999999560692;175;1 A
40.4459558978838;0.649505615234375;0.32373046875;1.74999999558167;176;1 A
40.4559558978585;0.649749755859375;0.326416015625;1.75999999555643;177;1 A
40.4659558978333;0.649566650390625;0.32598876953125;1.76999999553118;178;1 A
40.475955897808;0.649566650390625;0.335479736328125;1.77999999550593;179;1 A
40.4859558977828;0.649566650390625;0.33819580078125;1.78999999548068;180;1 A
40.4959558977575;0.64959716796875;0.330657958984375;1.79999999545544;181;1 A
40.5059558977323;0.6495361328125;0.326263427734375;1.80999999543019;182;1 A
40.515955897707;0.649444580078125;0.324737548828125;1.81999999540494;183;1 A
40.5259558976818;0.6495361328125;0.322906494140625;1.82999999537969;184;1 A
40.5359558976565;0.649658203125;0.3236083984375;1.83999999535445;185;1 A
40.5459558976313;0.6495361328125;0.322662353515625;1.8499999953292;186;1 A
40.5559558976061;0.64947509765625;0.322906494140625;1.85999999530395;187;1 A
40.5659558975808;0.649627685546875;0.326690673828125;1.8699999952787;188;1 A
40.5759558975556;0.649505615234375;0.329010009765625;1.87999999525346;189;1 A
40.5859558975303;0.6495361328125;0.326568603515625;1.88999999522821;190;1 A
40.5959558975051;0.649627685546875;0.3245849609375;1.89999999520296;191;1 A
40.6059558974798;0.64947509765625;0.324005126953125;1.90999999517771;192;1 A
40.6159558974546;0.649810791015625;0.327392578125;1.91999999515247;193;1 A
40.6259558974293;0.6495361328125;0.32879638671875;1.92999999512722;194;1 A
40.6359558974041;0.649505615234375;0.32843017578125;1.93999999510197;195;1 A
40.6459558973788;0.649566650390625;0.327239990234375;1.94999999507672;196;1 A
40.6559558973536;0.649505615234375;0.323150634765625;1.95999999505148;197;1 A
40.6659558973283;0.64947509765625;0.3271484375;1.96999999502623;198;1 A
40.6759558973031;0.649505615234375;0.33099365234375;1.97999999500098;199;1 A
40.6859558972778;0.64947509765625;0.326934814453125;1.98999999497573;200;1 A
40.6959558972526;0.649688720703125;0.330230712890625;1.99999999495049;201;1 A
40.7059558972273;0.649627685546875;0.329437255859375;2.00999999492524;202;1 A
40.7159558972021;0.649566650390625;0.327606201171875;2.01999999489999;203;1 A
40.7259558971768;0.649658203125;0.325714111328125;2.02999999487474;204;1 A
40.7359558971516;0.649566650390625;0.324676513671875;2.0399999948495;205;1 A
40.7459558971264;0.64947509765625;0.3267822265625;2.04999999482425;206;1 A
40.7559558971011;0.6495361328125;0.326446533203125;2.059999994799;207;1 A
40.7659558970759;0.649505615234375;0.32220458984375;2.06999999477375;208;1 A
40.7759558970506;0.64971923828125;0.32232666015625;2.0799999947485;209;1 A
40.7859558970254;0.649505615234375;0.32073974609375;2.08999999472326;210;1 A
40.7959558970001;0.64959716796875;0.322845458984375;2.09999999469801;211;1 A
40.8059558969749;0.649627685546875;0.323150634765625;2.10999999467276;212;1 A
40.8159558969496;0.6495361328125;0.32196044921875;2.11999999464751;213;1 A
40.8259558969244;0.6495361328125;0.324249267578125;2.12999999462227;214;1 A
40.8359558968991;0.64959716796875;0.322235107421875;2.13999999459702;215;1 A
40.8459558968739;0.649505615234375;0.32037353515625;2.14999999457177;216;1 A
40.8559558968486;0.649749755859375;0.325042724609375;2.15999999454652;217;1 A
40.8659558968234;0.6495361328125;0.3243408203125;2.16999999452128;218;1 A
40.8759558967981;0.6495361328125;0.32635498046875;2.17999999449603;219;1 A
40.8859558967729;0.649627685546875;0.324981689453125;2.18999999447078;220;1 A
40.8959558967476;0.649505615234375;0.32086181640625;2.19999999444553;221;1 A
40.9059558967224;0.649444580078125;0.322021484375;2.20999999442029;222;1 A
40.9159558966971;0.6495361328125;0.323333740234375;2.21999999439504;223;1 A
40.9259558966719;0.6495361328125;0.32220458984375;2.22999999436979;224;1 A
40.9359558966466;0.649749755859375;0.31903076171875;2.23999999434454;225;1 A
40.9459558966214;0.649566650390625;0.31732177734375;2.2499999943193;226;1 A
40.9559558965962;0.649566650390625;0.319732666015625;2.25999999429405;227;1 A
40.9659558965709;0.649688720703125;0.321441650390625;2.2699999942688;228;1 A
40.9759558965457;0.649627685546875;0.320098876953125;2.27999999424355;229;1 A
40.9859558965204;0.649505615234375;0.3204345703125;2.28999999421831;230;1 A
40.9959558964952;0.6495361328125;0.3193359375;2.29999999419306;231;1 A
41.0059558964699;0.649566650390625;0.318359375;2.30999999416781;232;1 A
41.0159558964447;0.649627685546875;0.31982421875;2.31999999414256;233;1 A
41.0259558964194;0.649505615234375;0.317779541015625;2.32999999411732;234;1 A
41.0359558963942;0.64947509765625;0.31939697265625;2.33999999409207;235;1 A
41.0459558963689;0.649627685546875;0.32244873046875;2.34999999406682;236;1 A
41.0559558963437;0.6495361328125;0.32305908203125;2.35999999404157;237;1 A
41.0659558963184;0.649505615234375;0.32281494140625;2.36999999401633;238;1 A
41.0759558962932;0.649627685546875;0.3206787109375;2.37999999399108;239;1 A
41.0859558962679;0.6495361328125;0.321746826171875;2.38999999396583;240;1 A
41.0959558962427;0.649749755859375;0.3284912109375;2.39999999394058;241;1 A
41.1059558962174;0.6495361328125;0.322723388671875;2.40999999391533;242;1 A
41.1159558961922;0.6495361328125;0.3212890625;2.41999999389009;243;1 A
41.1259558961669;0.64959716796875;0.322357177734375;2.42999999386484;244;1 A
41.1359558961417;0.6495361328125;0.3228759765625;2.43999999383959;245;1 A
41.1459558961164;0.6495361328125;0.32586669921875;2.44999999381434;246;1 A
41.1559558960912;0.6495361328125;0.32501220703125;2.4599999937891;247;1 A
41.165955896066;0.649444580078125;0.32550048828125;2.46999999376385;248;1 A
41.1759558960407;0.649658203125;0.325042724609375;2.4799999937386;249;1 A
41.1859558960155;0.649627685546875;0.32623291015625;2.48999999371335;250;1 A
41.1959558959902;0.6495361328125;0.326507568359375;2.49999999368811;251;1 A
41.205955895965;0.649658203125;0.3250732421875;2.50999999366286;252;1 A
41.2159558959397;0.6495361328125;0.325439453125;2.51999999363761;253;1 A
41.2259558959145;0.649566650390625;0.329193115234375;2.52999999361236;254;1 A
41.2359558958892;0.64959716796875;0.32891845703125;2.53999999358712;255;1 A
41.245955895864;0.64947509765625;0.326995849609375;2.54999999356187;256;1 A
41.2559558958387;0.649688720703125;0.329681396484375;2.55999999353662;257;1 A
41.2659558958135;0.64947509765625;0.32855224609375;2.56999999351137;258;1 A
41.2759558957882;0.6495361328125;0.329742431640625;2.57999999348613;259;1 A
41.285955895763;0.64959716796875;0.33154296875;2.58999999346088;260;1 A
41.2959558957377;0.6495361328125;0.325927734375;2.59999999343563;261;1 A
41.3059558957125;0.64959716796875;0.326568603515625;2.60999999341038;262;1 A
41.3159558956872;0.649658203125;0.323699951171875;2.61999999338514;263;1 A
41.325955895662;0.64947509765625;0.32147216796875;2.62999999335989;264;1 A
41.3359558956367;0.649688720703125;0.32513427734375;2.63999999333464;265;1 A
41.3459558956115;0.649627685546875;0.322601318359375;2.64999999330939;266;1 A
41.3559558955862;0.64947509765625;0.322174072265625;2.65999999328415;267;1 A
41.365955895561;0.64959716796875;0.32403564453125;2.6699999932589;268;1 A
41.3759558955358;0.6495361328125;0.317626953125;2.67999999323365;269;1 A
41.3859558955105;0.649444580078125;0.320526123046875;2.6899999932084;270;1 A
41.3959558954853;0.649627685546875;0.32183837890625;2.69999999318316;271;1 A
41.40595589546;0.649566650390625;0.32159423828125;2.70999999315791;272;1 A
41.4159558954348;0.649627685546875;0.327911376953125;2.71999999313266;273;1 A
41.4259558954095;0.64959716796875;0.323638916015625;2.72999999310741;274;1 A
41.4359558953843;0.64947509765625;0.326995849609375;2.73999999308217;275;1 A
41.445955895359;0.6495361328125;0.3331298828125;2.74999999305692;276;1 A
41.4559558953338;0.649627685546875;0.328521728515625;2.75999999303167;277;1 A
41.4659558953085;0.649627685546875;0.32867431640625;2.76999999300642;278;1 A
41.4759558952833;0.64959716796875;0.328582763671875;2.77999999298117;279;1 A
41.485955895258;0.64959716796875;0.328826904296875;2.78999999295593;280;1 A
41.4959558952328;0.64959716796875;0.332489013671875;2.79999999293068;281;1 A
41.5059558952075;0.649566650390625;0.328582763671875;2.80999999290543;282;1 A
41.5159558951823;0.649566650390625;0.327789306640625;2.81999999288018;283;1 A
41.525955895157;0.64959716796875;0.33355712890625;2.82999999285494;284;1 A
41.5359558951318;0.649505615234375;0.33184814453125;2.83999999282969;285;1 A
41.5459558951065;0.649566650390625;0.33184814453125;2.84999999280444;286;1 A
41.5559558950813;0.6495361328125;0.32977294921875;2.85999999277919;287;1 A
41.565955895056;0.6494140625;0.328704833984375;2.86999999275395;288;1 A
41.5759558950308;0.64971923828125;0.3282470703125;2.8799999927287;289;1 A
41.5859558950056;0.649658203125;0.324951171875;2.88999999270345;290;1 A
41.5959558949803;0.64959716796875;0.330474853515625;2.8999999926782;291;1 A
41.6059558949551;0.649658203125;0.33526611328125;2.90999999265296;292;1 A
41.6159558949298;0.6495361328125;0.329925537109375;2.91999999262771;293;1 A
41.6259558949046;0.64959716796875;0.330322265625;2.92999999260246;294;1 A
41.6359558948793;0.649566650390625;0.331268310546875;2.93999999257721;295;1 A
41.6459558948541;0.649505615234375;0.331695556640625;2.94999999255197;296;1 A
41.6559558948288;0.649566650390625;0.33349609375;2.95999999252672;297;1 A
41.6659558948036;0.64959716796875;0.33001708984375;2.96999999250147;298;1 A
41.6759558947783;0.649505615234375;0.330291748046875;2.97999999247622;299;1 A
41.6859558947531;0.649627685546875;0.331512451171875;2.98999999245098;300;1 A
41.6959558947278;0.649566650390625;0.328826904296875;2.99999999242573;301;1 A
41.7059558947026;0.649688720703125;0.3321533203125;3.00999999240048;302;1 A
41.7159558946773;0.649658203125;0.333160400390625;3.01999999237523;303;1 A
41.7259558946521;0.649566650390625;0.3277587890625;3.02999999234999;304;1 A
41.7359558946268;0.649658203125;0.330780029296875;3.03999999232474;305;1 A
41.7459558946016;0.6495361328125;0.325469970703125;3.04999999229949;306;1 A
41.7559558945763;0.64959716796875;0.322479248046875;3.05999999227424;307;1 A
41.7659558945511;0.649566650390625;0.32232666015625;3.069999992249;308;1 A
41.7759558945259;0.649444580078125;0.322174072265625;3.07999999222375;309;1 A
41.7859558945006;0.649627685546875;0.32354736328125;3.0899999921985;310;1 A
41.7959558944754;0.649658203125;0.32037353515625;3.09999999217325;311;1 A
41.8059558944501;0.64947509765625;0.3172607421875;3.109999992148;312;1 A
41.8159558944249;0.649658203125;0.31866455078125;3.11999999212276;313;1 A
41.8259558943996;0.64959716796875;0.319061279296875;3.12999999209751;314;1 A
41.8359558943744;0.64959716796875;0.32012939453125;3.13999999207226;315;1 A
41.8459558943491;0.64959716796875;0.320953369140625;3.14999999204701;316;1 A
41.8559558943239;0.649566650390625;0.317779541015625;3.15999999202177;317;1 A
41.8659558942986;0.64959716796875;0.31817626953125;3.16999999199652;318;1 A
41.8759558942734;0.6495361328125;0.31793212890625;3.17999999197127;319;1 A
41.8859558942481;0.6495361328125;0.318359375;3.18999999194602;320;1 A
41.8959558942229;0.649688720703125;0.3221435546875;3.19999999192078;321;1 A
41.9059558941976;0.6495361328125;0.32110595703125;3.20999999189553;322;1 A
41.9159558941724;0.649658203125;0.32354736328125;3.21999999187028;323;1 A
41.9259558941471;0.649566650390625;0.327789306640625;3.22999999184503;324;1 A
41.9359558941219;0.649627685546875;0.32354736328125;3.23999999181979;325;1 A
41.9459558940966;0.6495361328125;0.323577880859375;3.24999999179454;326;1 A
41.9559558940714;0.64959716796875;0.322265625;3.25999999176929;327;1 A
41.9659558940461;0.649566650390625;0.3206787109375;3.26999999174404;328;1 A
41.9759558940209;0.64971923828125;0.319610595703125;3.2799999917188;329;1 A
41.9859558939957;0.649566650390625;0.3203125;3.28999999169355;330;1 A
41.9959558939704;0.6494140625;0.322235107421875;3.2999999916683;331;1 A
42.0059558939452;0.649566650390625;0.32171630859375;3.30999999164305;332;1 A
42.0159558939199;0.649444580078125;0.3209228515625;3.31999999161781;333;1 A
42.0259558938947;0.6495361328125;0.320220947265625;3.32999999159256;334;1 A
42.0359558938694;0.649566650390625;0.318695068359375;3.33999999156731;335;1 A
42.0459558938442;0.64947509765625;0.319061279296875;3.34999999154206;336;1 A
42.0559558938189;0.649658203125;0.322174072265625;3.35999999151682;337;1 A
42.0659558937937;0.649688720703125;0.319000244140625;3.36999999149157;338;1 A
42.0759558937684;0.649505615234375;0.326416015625;3.37999999146632;339;1 A
42.0859558937432;0.6495361328125;0.332550048828125;3.38999999144107;340;1 A
42.0959558937179;0.649566650390625;0.33331298828125;3.39999999141583;341;1 A
42.1059558936927;0.64947509765625;0.334930419921875;3.40999999139058;342;1 A
42.1159558936674;0.64959716796875;0.328826904296875;3.41999999136533;343;1 A
42.1259558936422;0.6495361328125;0.325347900390625;3.42999999134008;344;1 A
42.1359558936169;0.649627685546875;0.326141357421875;3.43999999131483;345;1 A
42.1459558935917;0.649566650390625;0.32598876953125;3.44999999128959;346;1 A
42.1559558935664;0.649566650390625;0.3292236328125;3.45999999126434;347;1 A
42.1659558935412;0.64959716796875;0.32708740234375;3.46999999123909;348;1 A
42.1759558935159;0.64959716796875;0.3253173828125;3.47999999121384;349;1 A
42.1859558934907;0.649688720703125;0.32916259765625;3.4899999911886;350;1 A
42.1959558934655;0.649658203125;0.328369140625;3.49999999116335;351;1 A
42.2059558934402;0.64947509765625;0.32757568359375;3.5099999911381;352;1 A
42.215955893415;0.649658203125;0.328369140625;3.51999999111285;353;1 A
42.2259558933897;0.649566650390625;0.324920654296875;3.52999999108761;354;1 A
42.2359558933645;0.649566650390625;0.325531005859375;3.53999999106236;355;1 A
42.2459558933392;0.649566650390625;0.326019287109375;3.54999999103711;356;1 A
42.255955893314;0.64947509765625;0.322540283203125;3.55999999101186;357;1 A
42.2659558932887;0.649566650390625;0.3236083984375;3.56999999098662;358;1 A
42.2759558932635;0.64959716796875;0.32354736328125;3.57999999096137;359;1 A
42.2859558932382;0.64947509765625;0.322601318359375;3.58999999093612;360;1 A
42.295955893213;0.64971923828125;0.326202392578125;3.59999999091087;361;1 A
42.3059558931877;0.649688720703125;0.326934814453125;3.60999999088563;362;1 A
42.3159558931625;0.6495361328125;0.327606201171875;3.61999999086038;363;1 A
42.3259558931372;0.64959716796875;0.3275146484375;3.62999999083513;364;1 A
42.335955893112;0.649627685546875;0.3231201171875;3.63999999080988;365;1 A
42.3459558930867;0.6495361328125;0.329803466796875;3.64999999078464;366;1 A
42.3559558930615;0.649566650390625;0.32861328125;3.65999999075939;367;1 A
42.3659558930362;0.6495361328125;0.32464599609375;3.66999999073414;368;1 A
42.375955893011;0.64959716796875;0.325439453125;3.67999999070889;369;1 A
42.3859558929857;0.649627685546875;0.325469970703125;3.68999999068365;370;1 A
42.3959558929605;0.649566650390625;0.32586669921875;3.6999999906584;371;1 A
42.4059558929353;0.649566650390625;0.3275146484375;3.70999999063315;372;1 A
42.41595589291;0.649627685546875;0.3280029296875;3.7199999906079;373;1 A
42.4259558928848;0.649627685546875;0.33349609375;3.72999999058266;374;1 A
42.4359558928595;0.649658203125;0.331573486328125;3.73999999055741;375;1 A
42.4459558928343;0.649505615234375;0.329315185546875;3.74999999053216;376;1 A
42.455955892809;0.64971923828125;0.32843017578125;3.75999999050691;377;1 A
42.4659558927838;0.649658203125;0.32476806640625;3.76999999048167;378;1 A
42.4759558927585;0.649505615234375;0.324920654296875;3.77999999045642;379;1 A
42.4859558927333;0.649566650390625;0.3275146484375;3.78999999043117;380;1 A
42.495955892708;0.64959716796875;0.3251953125;3.79999999040592;381;1 A
42.5059558926828;0.649505615234375;0.33587646484375;3.80999999038067;382;1 A
42.5159558926575;0.649566650390625;0.333282470703125;3.81999999035543;383;1 A
42.5259558926323;0.649505615234375;0.32635498046875;3.82999999033018;384;1 A
42.535955892607;0.649749755859375;0.323883056640625;3.83999999030493;385;1 A
42.5459558925818;0.649658203125;0.322113037109375;3.84999999027968;386;1 A
42.5559558925565;0.649566650390625;0.3272705078125;3.85999999025444;387;1 A
42.5659558925313;0.649688720703125;0.33038330078125;3.86999999022919;388;1 A
42.575955892506;0.649627685546875;0.3271484375;3.87999999020394;389;1 A
42.5859558924808;0.649566650390625;0.326202392578125;3.88999999017869;390;1 A
42.5959558924555;0.64959716796875;0.32672119140625;3.89999999015345;391;1 A
42.6059558924303;0.64947509765625;0.326690673828125;3.9099999901282;392;1 A
42.6159558924051;0.649658203125;0.32867431640625;3.91999999010295;393;1 A
42.6259558923798;0.649566650390625;0.326171875;3.9299999900777;394;1 A
42.6359558923546;0.649566650390625;0.32965087890625;3.93999999005246;395;1 A
42.6459558923293;0.649627685546875;0.333343505859375;3.94999999002721;396;1 A
42.6559558923041;0.6495361328125;0.328399658203125;3.95999999000196;397;1 A
42.6659558922788;0.649566650390625;0.326446533203125;3.96999998997671;398;1 A
42.6759558922536;0.649627685546875;0.323974609375;3.97999998995147;399;1 A
42.6859558922283;0.649505615234375;0.320953369140625;3.98999998992622;400;1 A
42.6959558922031;0.64971923828125;0.320068359375;3.99999998990097;401;1 A
42.7059558921778;0.64959716796875;0.318603515625;4.00999998987572;402;1 A
42.7159558921526;0.649505615234375;0.3289794921875;4.01999998985048;403;1 A
42.7259558921273;0.64959716796875;0.339752197265625;4.02999998982523;404;1 A
42.7359558921021;0.649505615234375;0.330047607421875;4.03999998979998;405;1 A
42.7459558920768;0.649566650390625;0.323333740234375;4.04999998977473;406;1 A
42.7559558920516;0.649566650390625;0.31854248046875;4.05999998974949;407;1 A
42.7659558920263;0.649444580078125;0.316558837890625;4.06999998972424;408;1 A
42.7759558920011;0.649658203125;0.321990966796875;4.07999998969899;409;1 A
42.7859558919758;0.649627685546875;0.3221435546875;4.08999998967374;410;1 A
42.7959558919506;0.6495361328125;0.32318115234375;4.0999999896485;411;1 A
42.8059558919254;0.649627685546875;0.325653076171875;4.10999998962325;412;1 A
42.8159558919001;0.649566650390625;0.321258544921875;4.119999989598;413;1 A
42.8259558918749;0.649658203125;0.326080322265625;4.12999998957275;414;1 A
42.8359558918496;0.649627685546875;0.3240966796875;4.1399999895475;415;1 A
42.8459558918244;0.649505615234375;0.3170166015625;4.14999998952226;416;1 A
42.8559558917991;0.6495361328125;0.320770263671875;4.15999998949701;417;1 A
42.8659558917739;0.649627685546875;0.32159423828125;4.16999998947176;418;1 A
42.8759558917486;0.649505615234375;0.321075439453125;4.17999998944651;419;1 A
42.8859558917234;0.64959716796875;0.32427978515625;4.18999998942127;420;1 A
42.8959558916981;0.649505615234375;0.32470703125;4.19999998939602;421;1 A
42.9059558916729;0.649627685546875;0.329681396484375;4.20999998937077;422;1 A
42.9159558916476;0.64959716796875;0.3304443359375;4.21999998934552;423;1 A
42.9259558916224;0.649505615234375;0.3277587890625;4.22999998932028;424;1 A
42.9359558915971;0.649749755859375;0.3265380859375;4.23999998929503;425;1 A
42.9459558915719;0.64959716796875;0.326141357421875;4.24999998926978;426;1 A
42.9559558915466;0.649505615234375;0.32720947265625;4.25999998924453;427;1 A
42.9659558915214;0.64959716796875;0.33013916015625;4.26999998921929;428;1 A
42.9759558914961;0.649566650390625;0.325225830078125;4.27999998919404;429;1 A
42.9859558914709;0.6495361328125;0.325958251953125;4.28999998916879;430;1 A
42.9959558914456;0.649566650390625;0.3267822265625;4.29999998914354;431;1 A
43.0059558914204;0.649505615234375;0.32733154296875;4.3099999891183;432;1 A
43.0159558913952;0.64959716796875;0.327789306640625;4.31999998909305;433;1 A
43.0259558913699;0.649688720703125;0.325286865234375;4.3299999890678;434;1 A
43.0359558913447;0.649444580078125;0.327056884765625;4.33999998904255;435;1 A
43.0459558913194;0.64959716796875;0.3270263671875;4.34999998901731;436;1 A
43.0559558912942;0.649658203125;0.32305908203125;4.35999998899206;437;1 A
43.0659558912689;0.649688720703125;0.322509765625;4.36999998896681;438;1 A
43.0759558912437;0.649566650390625;0.3245849609375;4.37999998894156;439;1 A
43.0859558912184;0.64947509765625;0.32427978515625;4.38999998891632;440;1 A
43.0959558911932;0.649566650390625;0.330322265625;4.39999998889107;441;1 A
43.1059558911679;0.64959716796875;0.324310302734375;4.40999998886582;442;1 A
43.1159558911427;0.64959716796875;0.330291748046875;4.41999998884057;443;1 A
43.1259558911174;0.64959716796875;0.3341064453125;4.42999998881533;444;1 A
43.1359558910922;0.6495361328125;0.331024169921875;4.43999998879008;445;1 A
43.1459558910669;0.649627685546875;0.329132080078125;4.44999998876483;446;1 A
43.1559558910417;0.649658203125;0.32513427734375;4.45999998873958;447;1 A
43.1659558910164;0.649383544921875;0.32293701171875;4.46999998871433;448;1 A
43.1759558909912;0.649627685546875;0.3253173828125;4.47999998868909;449;1 A
43.1859558909659;0.649658203125;0.321746826171875;4.48999998866384;450;1 A
43.1959558909407;0.649566650390625;0.321685791015625;4.49999998863859;451;1 A
43.2059558909154;0.64959716796875;0.321380615234375;4.50999998861334;452;1 A
43.2159558908902;0.649566650390625;0.32012939453125;4.5199999885881;453;1 A
43.225955890865;0.649505615234375;0.324951171875;4.52999998856285;454;1 A
43.2359558908397;0.649505615234375;0.325286865234375;4.5399999885376;455;1 A
43.2459558908145;0.649505615234375;0.321319580078125;4.54999998851235;456;1 A
43.2559558907892;0.64959716796875;0.3245849609375;4.55999998848711;457;1 A
43.265955890764;0.649658203125;0.324615478515625;4.56999998846186;458;1 A
43.2759558907387;0.6495361328125;0.324066162109375;4.57999998843661;459;1 A
43.2859558907135;0.649505615234375;0.325592041015625;4.58999998841136;460;1 A
43.2959558906882;0.649627685546875;0.322601318359375;4.59999998838612;461;1 A
43.305955890663;0.649627685546875;0.32464599609375;4.60999998836087;462;1 A
43.3159558906377;0.649566650390625;0.326507568359375;4.61999998833562;463;1 A
43.3259558906125;0.6494140625;0.32525634765625;4.62999998831037;464;1 A
43.3359558905872;0.649627685546875;0.32684326171875;4.63999998828513;465;1 A
43.345955890562;0.649658203125;0.326385498046875;4.64999998825988;466;1 A
43.3559558905367;0.64959716796875;0.32769775390625;4.65999998823463;467;1 A
43.3659558905115;0.649627685546875;0.324249267578125;4.66999998820938;468;1 A
43.3759558904862;0.649505615234375;0.320770263671875;4.67999998818414;469;1 A
43.385955890461;0.64959716796875;0.321380615234375;4.68999998815889;470;1 A
43.3959558904357;0.6495361328125;0.322235107421875;4.69999998813364;471;1 A
43.4059558904105;0.649566650390625;0.3211669921875;4.70999998810839;472;1 A
43.4159558903852;0.649627685546875;0.322906494140625;4.71999998808315;473;1 A
43.42595589036;0.649627685546875;0.3243408203125;4.7299999880579;474;1 A
43.4359558903348;0.649627685546875;0.321319580078125;4.73999998803265;475;1 A
43.4459558903095;0.64959716796875;0.31890869140625;4.7499999880074;476;1 A
43.4559558902843;0.649627685546875;0.316436767578125;4.75999998798216;477;1 A
43.465955890259;0.649566650390625;0.31854248046875;4.76999998795691;478;1 A
43.4759558902338;0.649566650390625;0.318511962890625;4.77999998793166;479;1 A
43.4859558902085;0.6495361328125;0.317626953125;4.78999998790641;480;1 A
43.4959558901833;0.649566650390625;0.32452392578125;4.79999998788116;481;1 A
43.505955890158;0.649566650390625;0.320648193359375;4.80999998785592;482;1 A
43.5159558901328;0.649627685546875;0.324493408203125;4.81999998783067;483;1 A
43.5259558901075;0.64959716796875;0.32763671875;4.82999998780542;484;1 A
43.5359558900823;0.649505615234375;0.32781982421875;4.83999998778017;485;1 A
43.545955890057;0.649566650390625;0.33245849609375;4.84999998775493;486;1 A
43.5559558900318;0.649566650390625;0.33197021484375;4.85999998772968;487;1 A
43.5659558900065;0.649627685546875;0.32989501953125;4.86999998770443;488;1 A
43.5759558899813;0.649658203125;0.337554931640625;4.87999998767918;489;1 A
43.585955889956;0.649566650390625;0.32952880859375;4.88999998765394;490;1 A
43.5959558899308;0.64959716796875;0.32867431640625;4.89999998762869;491;1 A
43.6059558899055;0.6495361328125;0.33721923828125;4.90999998760344;492;1 A
43.6159558898803;0.649627685546875;0.331268310546875;4.91999998757819;493;1 A
43.625955889855;0.649566650390625;0.3333740234375;4.92999998755295;494;1 A
43.6359558898298;0.6495361328125;0.335357666015625;4.9399999875277;495;1 A
43.6459558898046;0.649505615234375;0.33465576171875;4.94999998750245;496;1 A
43.6559558897793;0.649566650390625;0.338592529296875;4.9599999874772;497;1 A
43.6659558897541;0.64971923828125;0.331024169921875;4.96999998745196;498;1 A
43.6759558897288;0.649566650390625;0.330535888671875;4.97999998742671;499;1 A
43.6859558897036;0.6495361328125;0.334014892578125;4.98999998740146;500;1 A
