Time (s);WE(1).Potential (V);WE(1).Current (A);Corrected time (s);Index;Current range
0.499229998739565;-0.3997802734375;-0.0124542236328125;0;1;100 mA
0.509229998714318;-0.399749755859375;-0.0100616455078125;0.00999999997475243;2;100 mA
0.51922999868907;-0.3997802734375;-0.00865478515625;0.0199999999495049;3;100 mA
0.529229998663823;-0.39971923828125;-0.0076873779296875;0.0299999999242573;4;100 mA
0.539229998638575;-0.399810791015625;-0.0069976806640625;0.0399999998990097;5;100 mA
0.549229998613328;-0.399749755859375;-0.0064422607421875;0.0499999998737621;6;100 mA
0.55922999858808;-0.399749755859375;-0.006005859375;0.0599999998485146;7;100 mA
0.569229998562832;-0.399810791015625;-0.005645751953125;0.069999999823267;8;100 mA
0.579229998537585;-0.39971923828125;-0.00533447265625;0.0799999997980194;9;100 mA
0.589229998512337;-0.399749755859375;-0.005084228515625;0.0899999997727718;10;100 mA
0.59922999848709;-0.399688720703125;-0.0048553466796875;0.0999999997475243;11;100 mA
0.609229998461842;-0.3997802734375;-0.0046533203125;0.109999999722277;12;100 mA
0.619229998436595;-0.399749755859375;-0.0044818115234375;0.119999999697029;13;100 mA
0.629229998411347;-0.399749755859375;-0.0043182373046875;0.129999999671782;14;100 mA
0.639229998386099;-0.39971923828125;-0.00418701171875;0.139999999646534;15;100 mA
0.649229998360852;-0.399688720703125;-0.004046630859375;0.149999999621286;16;100 mA
0.659229998335604;-0.399749755859375;-0.00392608642578125;0.159999999596039;17;100 mA
0.669229998310357;-0.39984130859375;-0.00382110595703125;0.169999999570791;18;100 mA
0.679229998285109;-0.3997802734375;-0.00371337890625;0.179999999545544;19;100 mA
0.689229998259862;-0.39971923828125;-0.00363128662109375;0.189999999520296;20;100 mA
0.699229998234614;-0.3997802734375;-0.00354217529296875;0.199999999495049;21;100 mA
0.709229998209366;-0.39971923828125;-0.0034613037109375;0.209999999469801;22;100 mA
0.719229998184119;-0.39971923828125;-0.00339111328125;0.219999999444553;23;100 mA
0.729229998158871;-0.3997802734375;-0.003311767578125;0.229999999419306;24;100 mA
0.739229998133624;-0.39971923828125;-0.00325897216796875;0.239999999394058;25;100 mA
0.749229998108376;-0.399749755859375;-0.00319915771484375;0.249999999368811;26;100 mA
0.759229998083129;-0.39971923828125;-0.00313751220703125;0.259999999343563;27;100 mA
0.769229998057881;-0.3997802734375;-0.0030816650390625;0.269999999318316;28;100 mA
0.779229998032633;-0.399749755859375;-0.0030255126953125;0.279999999293068;29;100 mA
0.789229998007386;-0.3997802734375;-0.00298797607421875;0.28999999926782;30;100 mA
0.799229997982138;-0.3997802734375;-0.002935791015625;0.299999999242573;31;100 mA
0.809229997956891;-0.3997802734375;-0.0028851318359375;0.309999999217325;32;100 mA
0.819229997931643;-0.399749755859375;-0.0028460693359375;0.319999999192078;33;100 mA
0.829229997906396;-0.399749755859375;-0.002796630859375;0.32999999916683;34;100 mA
0.839229997881148;-0.39971923828125;-0.0027691650390625;0.339999999141583;35;100 mA
0.8492299978559;-0.3997802734375;-0.00272674560546875;0.349999999116335;36;100 mA
0.859229997830653;-0.399688720703125;-0.00269134521484375;0.359999999091087;37;100 mA
0.869229997805405;-0.39971923828125;-0.00265838623046875;0.36999999906584;38;100 mA
0.879229997780158;-0.39971923828125;-0.00261566162109375;0.379999999040592;39;100 mA
0.88922999775491;-0.399749755859375;-0.0025946044921875;0.389999999015345;40;100 mA
0.899229997729663;-0.3997802734375;-0.0025592041015625;0.399999998990097;41;100 mA
0.909229997704415;-0.399749755859375;-0.00252685546875;0.40999999896485;42;100 mA
0.919229997679167;-0.399749755859375;-0.0025006103515625;0.419999998939602;43;100 mA
0.92922999765392;-0.399749755859375;-0.00246551513671875;0.429999998914354;44;100 mA
0.939229997628672;-0.399749755859375;-0.002452392578125;0.439999998889107;45;100 mA
0.949229997603425;-0.3997802734375;-0.002421875;0.449999998863859;46;100 mA
0.959229997578177;-0.399749755859375;-0.002398681640625;0.459999998838612;47;100 mA
0.969229997552929;-0.39971923828125;-0.00237884521484375;0.469999998813364;48;100 mA
0.979229997527682;-0.3997802734375;-0.00234588623046875;0.479999998788116;49;100 mA
0.989229997502434;-0.399688720703125;-0.002340087890625;0.489999998762869;50;100 mA
0.999229997477187;-0.399688720703125;-0.00231231689453125;0.499999998737621;51;100 mA
1.00922999745194;-0.399749755859375;-0.0022900390625;0.509999998712374;52;100 mA
1.01922999742669;-0.399749755859375;-0.0022637939453125;0.519999998687126;53;100 mA
1.02922999740144;-0.3997802734375;-0.00224456787109375;0.529999998661879;54;100 mA
1.0392299973762;-0.3997802734375;-0.00223480224609375;0.539999998636631;55;100 mA
1.04922999735095;-0.399749755859375;-0.00221038818359375;0.549999998611383;56;100 mA
1.0592299973257;-0.399749755859375;-0.00218963623046875;0.559999998586136;57;100 mA
1.06922999730045;-0.399749755859375;-0.0021759033203125;0.569999998560888;58;100 mA
1.07922999727521;-0.399749755859375;-0.002152099609375;0.579999998535641;59;100 mA
1.08922999724996;-0.39971923828125;-0.002144775390625;0.589999998510393;60;100 mA
1.09922999722471;-0.39971923828125;-0.00212310791015625;0.599999998485146;61;100 mA
1.10922999719946;-0.399749755859375;-0.00210723876953125;0.609999998459898;62;100 mA
1.11922999717422;-0.39971923828125;-0.0020947265625;0.61999999843465;63;100 mA
1.12922999714897;-0.399749755859375;-0.0020703125;0.629999998409403;64;100 mA
1.13922999712372;-0.399688720703125;-0.00206787109375;0.639999998384155;65;100 mA
1.14922999709847;-0.399749755859375;-0.0020465087890625;0.649999998358908;66;100 mA
1.15922999707323;-0.399688720703125;-0.0020330810546875;0.65999999833366;67;100 mA
1.16922999704798;-0.399688720703125;-0.002022705078125;0.669999998308413;68;100 mA
1.17922999702273;-0.3997802734375;-0.001998291015625;0.679999998283165;69;100 mA
1.18922999699748;-0.39971923828125;-0.00199981689453125;0.689999998257917;70;100 mA
1.19922999697224;-0.3997802734375;-0.00198455810546875;0.69999999823267;71;100 mA
1.20922999694699;-0.39971923828125;-0.0019683837890625;0.709999998207422;72;100 mA
1.21922999692174;-0.399749755859375;-0.0019598388671875;0.719999998182175;73;100 mA
1.22922999689649;-0.399749755859375;-0.00194427490234375;0.729999998156927;74;100 mA
1.23922999687125;-0.399749755859375;-0.00194366455078125;0.73999999813168;75;100 mA
1.249229996846;-0.3997802734375;-0.0019256591796875;0.749999998106432;76;100 mA
1.25922999682075;-0.399749755859375;-0.00191741943359375;0.759999998081184;77;100 mA
1.2692299967955;-0.3997802734375;-0.001905517578125;0.769999998055937;78;100 mA
1.27922999677025;-0.399658203125;-0.00188873291015625;0.779999998030689;79;100 mA
1.28922999674501;-0.3997802734375;-0.0018890380859375;0.789999998005442;80;100 mA
1.29922999671976;-0.399749755859375;-0.00187103271484375;0.799999997980194;81;100 mA
1.30922999669451;-0.39971923828125;-0.00185943603515625;0.809999997954947;82;100 mA
1.31922999666926;-0.399749755859375;-0.00185516357421875;0.819999997929699;83;100 mA
1.32922999664402;-0.399810791015625;-0.00183807373046875;0.829999997904451;84;100 mA
1.33922999661877;-0.39971923828125;-0.001834716796875;0.839999997879204;85;100 mA
1.34922999659352;-0.399749755859375;-0.00182861328125;0.849999997853956;86;100 mA
1.35922999656827;-0.399749755859375;-0.0018182373046875;0.859999997828709;87;100 mA
1.36922999654303;-0.399749755859375;-0.0018109130859375;0.869999997803461;88;100 mA
1.37922999651778;-0.399749755859375;-0.0017962646484375;0.879999997778214;89;100 mA
1.38922999649253;-0.399658203125;-0.00179840087890625;0.889999997752966;90;100 mA
1.39922999646728;-0.39971923828125;-0.00178497314453125;0.899999997727718;91;100 mA
1.40922999644204;-0.399658203125;-0.0017730712890625;0.909999997702471;92;100 mA
1.41922999641679;-0.399749755859375;-0.001768798828125;0.919999997677223;93;100 mA
1.42922999639154;-0.3997802734375;-0.00175750732421875;0.929999997651976;94;100 mA
1.43922999636629;-0.399749755859375;-0.00176055908203125;0.939999997626728;95;100 mA
1.44922999634105;-0.3997802734375;-0.0017486572265625;0.949999997601481;96;100 mA
1.4592299963158;-0.3997802734375;-0.0017401123046875;0.959999997576233;97;100 mA
1.46922999629055;-0.3997802734375;-0.00173492431640625;0.969999997550985;98;100 mA
1.4792299962653;-0.39971923828125;-0.00172332763671875;0.979999997525738;99;100 mA
1.48922999624006;-0.3997802734375;-0.00172210693359375;0.98999999750049;100;100 mA
1.49922999621481;-0.399749755859375;-0.00171142578125;0.999999997475243;101;100 mA
1.50922999618956;-0.399749755859375;-0.00169891357421875;1.00999999745;102;100 mA
1.51922999616431;-0.3997802734375;-0.00169952392578125;1.01999999742475;103;100 mA
1.52922999613907;-0.39971923828125;-0.00168731689453125;1.0299999973995;104;100 mA
1.53922999611382;-0.399688720703125;-0.00168853759765625;1.03999999737425;105;100 mA
1.54922999608857;-0.399749755859375;-0.0016790771484375;1.049999997349;106;100 mA
1.55922999606332;-0.3997802734375;-0.00167022705078125;1.05999999732376;107;100 mA
1.56922999603808;-0.3997802734375;-0.00167144775390625;1.06999999729851;108;100 mA
1.57922999601283;-0.3997802734375;-0.00165863037109375;1.07999999727326;109;100 mA
1.58922999598758;-0.3997802734375;-0.00166107177734375;1.08999999724801;110;100 mA
1.59922999596233;-0.3997802734375;-0.00164794921875;1.09999999722277;111;100 mA
1.60922999593708;-0.3997802734375;-0.00164276123046875;1.10999999719752;112;100 mA
1.61922999591184;-0.3997802734375;-0.00163848876953125;1.11999999717227;113;100 mA
1.62922999588659;-0.3997802734375;-0.001627197265625;1.12999999714702;114;100 mA
1.63922999586134;-0.399627685546875;-0.001632080078125;1.13999999712178;115;100 mA
1.64922999583609;-0.399749755859375;-0.0016217041015625;1.14999999709653;116;100 mA
1.65922999581085;-0.399688720703125;-0.00162017822265625;1.15999999707128;117;100 mA
1.6692299957856;-0.39971923828125;-0.0016143798828125;1.16999999704603;118;100 mA
1.67922999576035;-0.399749755859375;-0.00160400390625;1.17999999702079;119;100 mA
1.6892299957351;-0.39971923828125;-0.0016107177734375;1.18999999699554;120;100 mA
1.69922999570986;-0.39971923828125;-0.001600341796875;1.19999999697029;121;100 mA
1.70922999568461;-0.399749755859375;-0.0015936279296875;1.20999999694504;122;100 mA
1.71922999565936;-0.3997802734375;-0.001593017578125;1.2199999969198;123;100 mA
1.72922999563411;-0.399749755859375;-0.00157958984375;1.22999999689455;124;100 mA
1.73922999560887;-0.399749755859375;-0.00157958984375;1.2399999968693;125;100 mA
1.74922999558362;-0.39971923828125;-0.001573486328125;1.24999999684405;126;100 mA
1.75922999555837;-0.399749755859375;-0.00156707763671875;1.25999999681881;127;100 mA
1.76922999553312;-0.399810791015625;-0.0015655517578125;1.26999999679356;128;100 mA
1.77922999550788;-0.399749755859375;-0.00155609130859375;1.27999999676831;129;100 mA
1.78922999548263;-0.399749755859375;-0.001563720703125;1.28999999674306;130;100 mA
1.79922999545738;-0.399749755859375;-0.00155670166015625;1.29999999671782;131;100 mA
1.80922999543213;-0.3997802734375;-0.00154937744140625;1.30999999669257;132;100 mA
1.81922999540689;-0.399749755859375;-0.00155059814453125;1.31999999666732;133;100 mA
1.82922999538164;-0.399658203125;-0.001541748046875;1.32999999664207;134;100 mA
1.83922999535639;-0.3997802734375;-0.001544189453125;1.33999999661683;135;100 mA
1.84922999533114;-0.399749755859375;-0.0015338134765625;1.34999999659158;136;100 mA
1.8592299953059;-0.399749755859375;-0.0015301513671875;1.35999999656633;137;100 mA
1.86922999528065;-0.399749755859375;-0.00153045654296875;1.36999999654108;138;100 mA
1.8792299952554;-0.399749755859375;-0.0015216064453125;1.37999999651583;139;100 mA
1.88922999523015;-0.399688720703125;-0.00152618408203125;1.38999999649059;140;100 mA
1.89922999520491;-0.39971923828125;-0.00151885986328125;1.39999999646534;141;100 mA
1.90922999517966;-0.39971923828125;-0.00151824951171875;1.40999999644009;142;100 mA
1.91922999515441;-0.39971923828125;-0.0015167236328125;1.41999999641484;143;100 mA
1.92922999512916;-0.3997802734375;-0.00151123046875;1.4299999963896;144;100 mA
1.93922999510391;-0.39971923828125;-0.0015118408203125;1.43999999636435;145;100 mA
1.94922999507867;-0.399749755859375;-0.00150848388671875;1.4499999963391;146;100 mA
1.95922999505342;-0.399749755859375;-0.00150726318359375;1.45999999631385;147;100 mA
1.96922999502817;-0.39971923828125;-0.0015008544921875;1.46999999628861;148;100 mA
1.97922999500292;-0.399749755859375;-0.0014892578125;1.47999999626336;149;100 mA
1.98922999497768;-0.399688720703125;-0.00149749755859375;1.48999999623811;150;100 mA
1.99922999495243;-0.399688720703125;-0.00148895263671875;1.49999999621286;151;100 mA
2.00922999492718;-0.399749755859375;-0.00148590087890625;1.50999999618762;152;100 mA
2.01922999490193;-0.399749755859375;-0.0014874267578125;1.51999999616237;153;100 mA
2.02922999487669;-0.399749755859375;-0.0014752197265625;1.52999999613712;154;100 mA
2.03922999485144;-0.3997802734375;-0.0014849853515625;1.53999999611187;155;100 mA
2.04922999482619;-0.39971923828125;-0.00147796630859375;1.54999999608663;156;100 mA
2.05922999480094;-0.399749755859375;-0.001473388671875;1.55999999606138;157;100 mA
2.0692299947757;-0.39971923828125;-0.0014727783203125;1.56999999603613;158;100 mA
2.07922999475045;-0.3997802734375;-0.001463623046875;1.57999999601088;159;100 mA
2.0892299947252;-0.39971923828125;-0.00146942138671875;1.58999999598564;160;100 mA
2.09922999469995;-0.3997802734375;-0.00146209716796875;1.59999999596039;161;100 mA
2.10922999467471;-0.3997802734375;-0.0014544677734375;1.60999999593514;162;100 mA
2.11922999464946;-0.399749755859375;-0.00145660400390625;1.61999999590989;163;100 mA
2.12922999462421;-0.399658203125;-0.0014495849609375;1.62999999588465;164;100 mA
2.13922999459896;-0.39971923828125;-0.00145904541015625;1.6399999958594;165;100 mA
2.14922999457372;-0.399749755859375;-0.00145111083984375;1.64999999583415;166;100 mA
2.15922999454847;-0.3997802734375;-0.00144256591796875;1.6599999958089;167;100 mA
2.16922999452322;-0.399749755859375;-0.001441650390625;1.66999999578366;168;100 mA
2.17922999449797;-0.39971923828125;-0.0014361572265625;1.67999999575841;169;100 mA
2.18922999447273;-0.399688720703125;-0.00144439697265625;1.68999999573316;170;100 mA
2.19922999444748;-0.399749755859375;-0.001435546875;1.69999999570791;171;100 mA
2.20922999442223;-0.3997802734375;-0.0014312744140625;1.70999999568267;172;100 mA
2.21922999439698;-0.399810791015625;-0.00143524169921875;1.71999999565742;173;100 mA
2.22922999437174;-0.39971923828125;-0.00143157958984375;1.72999999563217;174;100 mA
2.23922999434649;-0.399688720703125;-0.001435546875;1.73999999560692;175;100 mA
2.24922999432124;-0.399749755859375;-0.0014276123046875;1.74999999558167;176;100 mA
2.25922999429599;-0.39971923828125;-0.00142303466796875;1.75999999555643;177;100 mA
2.26922999427075;-0.399749755859375;-0.00142242431640625;1.76999999553118;178;100 mA
2.2792299942455;-0.399688720703125;-0.00141876220703125;1.77999999550593;179;100 mA
2.28922999422025;-0.39971923828125;-0.00142486572265625;1.78999999548068;180;100 mA
2.299229994195;-0.39971923828125;-0.00141845703125;1.79999999545544;181;100 mA
2.30922999416975;-0.399749755859375;-0.00141357421875;1.80999999543019;182;100 mA
2.31922999414451;-0.399749755859375;-0.0014154052734375;1.81999999540494;183;100 mA
2.32922999411926;-0.399749755859375;-0.00140777587890625;1.82999999537969;184;100 mA
2.33922999409401;-0.399749755859375;-0.00141387939453125;1.83999999535445;185;100 mA
2.34922999406876;-0.399749755859375;-0.00140716552734375;1.8499999953292;186;100 mA
2.35922999404352;-0.39971923828125;-0.0014031982421875;1.85999999530395;187;100 mA
2.36922999401827;-0.399749755859375;-0.001402587890625;1.8699999952787;188;100 mA
2.37922999399302;-0.39971923828125;-0.001400146484375;1.87999999525346;189;100 mA
2.38922999396777;-0.3997802734375;-0.00140777587890625;1.88999999522821;190;100 mA
2.39922999394253;-0.399749755859375;-0.00139801025390625;1.89999999520296;191;100 mA
2.40922999391728;-0.399688720703125;-0.00139862060546875;1.90999999517771;192;100 mA
2.41922999389203;-0.399749755859375;-0.00139984130859375;1.91999999515247;193;100 mA
2.42922999386678;-0.399749755859375;-0.00139404296875;1.92999999512722;194;100 mA
2.43922999384154;-0.399810791015625;-0.0014013671875;1.93999999510197;195;100 mA
2.44922999381629;-0.399688720703125;-0.0013934326171875;1.94999999507672;196;100 mA
2.45922999379104;-0.39971923828125;-0.0013946533203125;1.95999999505148;197;100 mA
2.46922999376579;-0.39971923828125;-0.00139556884765625;1.96999999502623;198;100 mA
2.47922999374055;-0.399749755859375;-0.00138519287109375;1.97999999500098;199;100 mA
2.4892299937153;-0.399688720703125;-0.00139251708984375;1.98999999497573;200;100 mA
2.49922999369005;-0.399688720703125;-0.0013836669921875;1.99999999495049;201;100 mA
2.5092299936648;-0.399749755859375;-0.00138336181640625;2.00999999492524;202;100 mA
2.51922999363956;-0.3997802734375;-0.0013848876953125;2.01999999489999;203;100 mA
2.52922999361431;-0.399810791015625;-0.00137969970703125;2.02999999487474;204;100 mA
2.53922999358906;-0.399749755859375;-0.00138519287109375;2.0399999948495;205;100 mA
2.54922999356381;-0.39971923828125;-0.00138092041015625;2.04999999482425;206;100 mA
2.55922999353857;-0.399749755859375;-0.0013787841796875;2.059999994799;207;100 mA
2.56922999351332;-0.399810791015625;-0.001376953125;2.06999999477375;208;100 mA
2.57922999348807;-0.399688720703125;-0.00136962890625;2.0799999947485;209;100 mA
2.58922999346282;-0.399749755859375;-0.00137664794921875;2.08999999472326;210;100 mA
2.59922999343758;-0.3997802734375;-0.00137176513671875;2.09999999469801;211;100 mA
2.60922999341233;-0.399688720703125;-0.0013720703125;2.10999999467276;212;100 mA
2.61922999338708;-0.399749755859375;-0.0013739013671875;2.11999999464751;213;100 mA
2.62922999336183;-0.399688720703125;-0.00136993408203125;2.12999999462227;214;100 mA
2.63922999333658;-0.399688720703125;-0.00137725830078125;2.13999999459702;215;100 mA
2.64922999331134;-0.399749755859375;-0.00137115478515625;2.14999999457177;216;100 mA
2.65922999328609;-0.399749755859375;-0.0013720703125;2.15999999454652;217;100 mA
2.66922999326084;-0.39971923828125;-0.00137054443359375;2.16999999452128;218;100 mA
2.67922999323559;-0.399749755859375;-0.00136688232421875;2.17999999449603;219;100 mA
2.68922999321035;-0.399749755859375;-0.00137359619140625;2.18999999447078;220;100 mA
2.6992299931851;-0.399749755859375;-0.00137420654296875;2.19999999444553;221;100 mA
2.70922999315985;-0.39971923828125;-0.00136810302734375;2.20999999442029;222;100 mA
2.7192299931346;-0.39971923828125;-0.00136993408203125;2.21999999439504;223;100 mA
2.72922999310936;-0.399749755859375;-0.00136199951171875;2.22999999436979;224;100 mA
2.73922999308411;-0.3997802734375;-0.00136871337890625;2.23999999434454;225;100 mA
2.74922999305886;-0.399749755859375;-0.00136077880859375;2.2499999943193;226;100 mA
2.75922999303361;-0.399688720703125;-0.001361083984375;2.25999999429405;227;100 mA
2.76922999300837;-0.3997802734375;-0.0013623046875;2.2699999942688;228;100 mA
2.77922999298312;-0.399688720703125;-0.00135711669921875;2.27999999424355;229;100 mA
2.78922999295787;-0.39971923828125;-0.001363525390625;2.28999999421831;230;100 mA
2.79922999293262;-0.399749755859375;-0.0013580322265625;2.29999999419306;231;100 mA
2.80922999290738;-0.39971923828125;-0.0013531494140625;2.30999999416781;232;100 mA
2.81922999288213;-0.39971923828125;-0.0013543701171875;2.31999999414256;233;100 mA
2.82922999285688;-0.39971923828125;-0.0013531494140625;2.32999999411732;234;100 mA
2.83922999283163;-0.39971923828125;-0.00135772705078125;2.33999999409207;235;100 mA
2.84922999280639;-0.399749755859375;-0.0013525390625;2.34999999406682;236;100 mA
2.85922999278114;-0.399749755859375;-0.00135101318359375;2.35999999404157;237;100 mA
2.86922999275589;-0.39971923828125;-0.00135498046875;2.36999999401633;238;100 mA
2.87922999273064;-0.399749755859375;-0.00135040283203125;2.37999999399108;239;100 mA
2.8892299927054;-0.399749755859375;-0.00135955810546875;2.38999999396583;240;100 mA
2.89922999268015;-0.399749755859375;-0.0013543701171875;2.39999999394058;241;100 mA
2.9092299926549;-0.399749755859375;-0.00135345458984375;2.40999999391533;242;100 mA
2.91922999262965;-0.39971923828125;-0.00135711669921875;2.41999999389009;243;100 mA
2.92922999260441;-0.39971923828125;-0.001351318359375;2.42999999386484;244;100 mA
2.93922999257916;-0.399749755859375;-0.00135894775390625;2.43999999383959;245;100 mA
2.94922999255391;-0.39971923828125;-0.0013531494140625;2.44999999381434;246;100 mA
2.95922999252866;-0.39971923828125;-0.00135345458984375;2.4599999937891;247;100 mA
2.96922999250341;-0.399749755859375;-0.0013507080078125;2.46999999376385;248;100 mA
2.97922999247817;-0.399688720703125;-0.00134368896484375;2.4799999937386;249;100 mA
2.98922999245292;-0.399749755859375;-0.00135284423828125;2.48999999371335;250;100 mA
2.99922999242767;-0.399688720703125;-0.00134552001953125;2.49999999368811;251;100 mA
3.00922999240242;-0.399749755859375;-0.00134368896484375;2.50999999366286;252;100 mA
3.01922999237718;-0.399749755859375;-0.001346435546875;2.51999999363761;253;100 mA
3.02922999235193;-0.399749755859375;-0.00133514404296875;2.52999999361236;254;100 mA
3.03922999232668;-0.39971923828125;-0.001343994140625;2.53999999358712;255;100 mA
3.04922999230143;-0.39971923828125;-0.0013385009765625;2.54999999356187;256;100 mA
3.05922999227619;-0.399749755859375;-0.00133758544921875;2.55999999353662;257;100 mA
3.06922999225094;-0.39971923828125;-0.0013397216796875;2.56999999351137;258;100 mA
3.07922999222569;-0.399749755859375;-0.00133453369140625;2.57999999348613;259;100 mA
3.08922999220044;-0.399688720703125;-0.00134185791015625;2.58999999346088;260;100 mA
3.0992299921752;-0.399749755859375;-0.001331787109375;2.59999999343563;261;100 mA
3.10922999214995;-0.3997802734375;-0.00133544921875;2.60999999341038;262;100 mA
3.1192299921247;-0.399688720703125;-0.00133941650390625;2.61999999338514;263;100 mA
3.12922999209945;-0.3997802734375;-0.00133331298828125;2.62999999335989;264;100 mA
3.13922999207421;-0.39971923828125;-0.0013409423828125;2.63999999333464;265;100 mA
3.14922999204896;-0.39971923828125;-0.00133392333984375;2.64999999330939;266;100 mA
3.15922999202371;-0.3997802734375;-0.0013336181640625;2.65999999328415;267;100 mA
3.16922999199846;-0.39971923828125;-0.0013348388671875;2.6699999932589;268;100 mA
3.17922999197322;-0.39971923828125;-0.00133087158203125;2.67999999323365;269;100 mA
3.18922999194797;-0.3997802734375;-0.00133575439453125;2.6899999932084;270;100 mA
3.19922999192272;-0.3997802734375;-0.0013299560546875;2.69999999318316;271;100 mA
3.20922999189747;-0.399749755859375;-0.00132843017578125;2.70999999315791;272;100 mA
3.21922999187223;-0.399688720703125;-0.00132965087890625;2.71999999313266;273;100 mA
3.22922999184698;-0.399749755859375;-0.00132293701171875;2.72999999310741;274;100 mA
3.23922999182173;-0.399749755859375;-0.00133056640625;2.73999999308217;275;100 mA
3.24922999179648;-0.39971923828125;-0.0013238525390625;2.74999999305692;276;100 mA
3.25922999177124;-0.399749755859375;-0.0013232421875;2.75999999303167;277;100 mA
3.26922999174599;-0.39971923828125;-0.00132293701171875;2.76999999300642;278;100 mA
3.27922999172074;-0.3997802734375;-0.00131866455078125;2.77999999298117;279;100 mA
3.28922999169549;-0.39971923828125;-0.001324462890625;2.78999999295593;280;100 mA
3.29922999167024;-0.39971923828125;-0.00131561279296875;2.79999999293068;281;100 mA
3.309229991645;-0.399688720703125;-0.001314697265625;2.80999999290543;282;100 mA
3.31922999161975;-0.39971923828125;-0.00131927490234375;2.81999999288018;283;100 mA
3.3292299915945;-0.39971923828125;-0.00131195068359375;2.82999999285494;284;100 mA
3.33922999156925;-0.399658203125;-0.001319580078125;2.83999999282969;285;100 mA
3.34922999154401;-0.399749755859375;-0.0013153076171875;2.84999999280444;286;100 mA
3.35922999151876;-0.399749755859375;-0.0013165283203125;2.85999999277919;287;100 mA
3.36922999149351;-0.3997802734375;-0.00131866455078125;2.86999999275395;288;100 mA
3.37922999146826;-0.399688720703125;-0.0013031005859375;2.8799999927287;289;100 mA
3.38922999144302;-0.39971923828125;-0.00132049560546875;2.88999999270345;290;100 mA
3.39922999141777;-0.399749755859375;-0.00131072998046875;2.8999999926782;291;100 mA
3.40922999139252;-0.3997802734375;-0.00131256103515625;2.90999999265296;292;100 mA
3.41922999136727;-0.3997802734375;-0.00131103515625;2.91999999262771;293;100 mA
3.42922999134203;-0.39971923828125;-0.001307373046875;2.92999999260246;294;100 mA
3.43922999131678;-0.39971923828125;-0.0013134765625;2.93999999257721;295;100 mA
3.44922999129153;-0.3997802734375;-0.00130523681640625;2.94999999255197;296;100 mA
3.45922999126628;-0.3997802734375;-0.0013055419921875;2.95999999252672;297;100 mA
3.46922999124104;-0.399749755859375;-0.00130767822265625;2.96999999250147;298;100 mA
3.47922999121579;-0.39971923828125;-0.00130157470703125;2.97999999247622;299;100 mA
3.48922999119054;-0.3997802734375;-0.00130767822265625;2.98999999245098;300;100 mA
3.49922999116529;-0.3997802734375;-0.00130035400390625;2.99999999242573;301;100 mA
3.50922999114005;-0.399749755859375;-0.00129608154296875;3.00999999240048;302;100 mA
3.5192299911148;-0.39971923828125;-0.001302490234375;3.01999999237523;303;100 mA
3.52922999108955;-0.39971923828125;-0.0012957763671875;3.02999999234999;304;100 mA
3.5392299910643;-0.399749755859375;-0.00130340576171875;3.03999999232474;305;100 mA
3.54922999103906;-0.39971923828125;-0.00129608154296875;3.04999999229949;306;100 mA
3.55922999101381;-0.399688720703125;-0.00129547119140625;3.05999999227424;307;100 mA
3.56922999098856;-0.3997802734375;-0.00129608154296875;3.069999992249;308;100 mA
3.57922999096331;-0.399749755859375;-0.00129058837890625;3.07999999222375;309;100 mA
3.58922999093807;-0.3997802734375;-0.001300048828125;3.0899999921985;310;100 mA
3.59922999091282;-0.399749755859375;-0.0012921142578125;3.09999999217325;311;100 mA
3.60922999088757;-0.3997802734375;-0.0012921142578125;3.109999992148;312;100 mA
3.61922999086232;-0.3997802734375;-0.0012957763671875;3.11999999212276;313;100 mA
3.62922999083708;-0.3997802734375;-0.00128936767578125;3.12999999209751;314;100 mA
3.63922999081183;-0.399749755859375;-0.00129730224609375;3.13999999207226;315;100 mA
3.64922999078658;-0.3997802734375;-0.00128936767578125;3.14999999204701;316;100 mA
3.65922999076133;-0.3997802734375;-0.0012847900390625;3.15999999202177;317;100 mA
3.66922999073608;-0.399810791015625;-0.0012890625;3.16999999199652;318;100 mA
3.67922999071084;-0.399749755859375;-0.00128143310546875;3.17999999197127;319;100 mA
3.68922999068559;-0.399749755859375;-0.00128753662109375;3.18999999194602;320;100 mA
3.69922999066034;-0.39971923828125;-0.0012786865234375;3.19999999192078;321;100 mA
3.70922999063509;-0.399810791015625;-0.00127532958984375;3.20999999189553;322;100 mA
3.71922999060985;-0.3997802734375;-0.00128082275390625;3.21999999187028;323;100 mA
3.7292299905846;-0.399749755859375;-0.00127410888671875;3.22999999184503;324;100 mA
3.73922999055935;-0.3997802734375;-0.0012799072265625;3.23999999181979;325;100 mA
3.7492299905341;-0.399749755859375;-0.00127197265625;3.24999999179454;326;100 mA
3.75922999050886;-0.399749755859375;-0.0012738037109375;3.25999999176929;327;100 mA
3.76922999048361;-0.399749755859375;-0.00127227783203125;3.26999999174404;328;100 mA
3.77922999045836;-0.399749755859375;-0.0012725830078125;3.2799999917188;329;100 mA
3.78922999043311;-0.399688720703125;-0.00127471923828125;3.28999999169355;330;100 mA
3.79922999040787;-0.39971923828125;-0.00126739501953125;3.2999999916683;331;100 mA
3.80922999038262;-0.39971923828125;-0.00126922607421875;3.30999999164305;332;100 mA
3.81922999035737;-0.399749755859375;-0.0012646484375;3.31999999161781;333;100 mA
3.82922999033212;-0.39971923828125;-0.0012646484375;3.32999999159256;334;100 mA
3.83922999030688;-0.399749755859375;-0.00127410888671875;3.33999999156731;335;100 mA
3.84922999028163;-0.399749755859375;-0.0012646484375;3.34999999154206;336;100 mA
3.85922999025638;-0.399749755859375;-0.0012664794921875;3.35999999151682;337;100 mA
3.86922999023113;-0.39971923828125;-0.00126678466796875;3.36999999149157;338;100 mA
3.87922999020589;-0.39971923828125;-0.00126312255859375;3.37999999146632;339;100 mA
3.88922999018064;-0.3997802734375;-0.00126861572265625;3.38999999144107;340;100 mA
3.89922999015539;-0.399749755859375;-0.0012567138671875;3.39999999141583;341;100 mA
3.90922999013014;-0.399749755859375;-0.001260986328125;3.40999999139058;342;100 mA
3.9192299901049;-0.39971923828125;-0.00125885009765625;3.41999999136533;343;100 mA
3.92922999007965;-0.39971923828125;-0.00125213623046875;3.42999999134008;344;100 mA
3.9392299900544;-0.399749755859375;-0.00125823974609375;3.43999999131483;345;100 mA
3.94922999002915;-0.3997802734375;-0.0012469482421875;3.44999999128959;346;100 mA
3.95922999000391;-0.3997802734375;-0.00125152587890625;3.45999999126434;347;100 mA
3.96922998997866;-0.399749755859375;-0.001251220703125;3.46999999123909;348;100 mA
3.97922998995341;-0.399749755859375;-0.00124603271484375;3.47999999121384;349;100 mA
3.98922998992816;-0.39971923828125;-0.0012530517578125;3.4899999911886;350;100 mA
3.99922998990291;-0.3997802734375;-0.0012451171875;3.49999999116335;351;100 mA
4.00922998987767;-0.399749755859375;-0.00124481201171875;3.5099999911381;352;100 mA
4.01922998985242;-0.399749755859375;-0.0012445068359375;3.51999999111285;353;100 mA
4.02922998982717;-0.399688720703125;-0.00124267578125;3.52999999108761;354;100 mA
4.03922998980192;-0.399749755859375;-0.00124664306640625;3.53999999106236;355;100 mA
4.04922998977668;-0.39971923828125;-0.00123992919921875;3.54999999103711;356;100 mA
4.05922998975143;-0.399749755859375;-0.00123992919921875;3.55999999101186;357;100 mA
4.06922998972618;-0.399810791015625;-0.00124267578125;3.56999999098662;358;100 mA
4.07922998970093;-0.399688720703125;-0.00123931884765625;3.57999999096137;359;100 mA
4.08922998967569;-0.3997802734375;-0.0012432861328125;3.58999999093612;360;100 mA
4.09922998965044;-0.399749755859375;-0.0012353515625;3.59999999091087;361;100 mA
4.10922998962519;-0.39971923828125;-0.0012396240234375;3.60999999088563;362;100 mA
4.11922998959994;-0.39971923828125;-0.001240234375;3.61999999086038;363;100 mA
4.1292299895747;-0.3997802734375;-0.001236572265625;3.62999999083513;364;100 mA
4.13922998954945;-0.399749755859375;-0.0012371826171875;3.63999999080988;365;100 mA
4.1492299895242;-0.39971923828125;-0.00123016357421875;3.64999999078464;366;100 mA
4.15922998949895;-0.3997802734375;-0.00123199462890625;3.65999999075939;367;100 mA
4.16922998947371;-0.39971923828125;-0.00123046875;3.66999999073414;368;100 mA
4.17922998944846;-0.39971923828125;-0.0012274169921875;3.67999999070889;369;100 mA
4.18922998942321;-0.39971923828125;-0.0012298583984375;3.68999999068365;370;100 mA
4.19922998939796;-0.3997802734375;-0.00122161865234375;3.6999999906584;371;100 mA
4.20922998937272;-0.399749755859375;-0.0012237548828125;3.70999999063315;372;100 mA
4.21922998934747;-0.399749755859375;-0.0012255859375;3.7199999906079;373;100 mA
4.22922998932222;-0.399749755859375;-0.00121978759765625;3.72999999058266;374;100 mA
4.23922998929697;-0.39971923828125;-0.0012261962890625;3.73999999055741;375;100 mA
4.24922998927173;-0.39971923828125;-0.001219482421875;3.74999999053216;376;100 mA
4.25922998924648;-0.39971923828125;-0.00121673583984375;3.75999999050691;377;100 mA
4.26922998922123;-0.399749755859375;-0.0012200927734375;3.76999999048167;378;100 mA
4.27922998919598;-0.399749755859375;-0.0012176513671875;3.77999999045642;379;100 mA
4.28922998917074;-0.39971923828125;-0.00122344970703125;3.78999999043117;380;100 mA
4.29922998914549;-0.399749755859375;-0.00121795654296875;3.79999999040592;381;100 mA
4.30922998912024;-0.3997802734375;-0.00121795654296875;3.80999999038067;382;100 mA
4.31922998909499;-0.399749755859375;-0.00121856689453125;3.81999999035543;383;100 mA
4.32922998906974;-0.39971923828125;-0.00121368408203125;3.82999999033018;384;100 mA
4.3392299890445;-0.399749755859375;-0.00121856689453125;3.83999999030493;385;100 mA
4.34922998901925;-0.39971923828125;-0.00121429443359375;3.84999999027968;386;100 mA
4.359229988994;-0.399749755859375;-0.00121368408203125;3.85999999025444;387;100 mA
4.36922998896875;-0.399688720703125;-0.0012158203125;3.86999999022919;388;100 mA
4.37922998894351;-0.399810791015625;-0.00120849609375;3.87999999020394;389;100 mA
4.38922998891826;-0.3997802734375;-0.00121429443359375;3.88999999017869;390;100 mA
4.39922998889301;-0.39971923828125;-0.00120513916015625;3.89999999015345;391;100 mA
4.40922998886776;-0.3997802734375;-0.00120758056640625;3.9099999901282;392;100 mA
4.41922998884252;-0.399688720703125;-0.00120849609375;3.91999999010295;393;100 mA
4.42922998881727;-0.399749755859375;-0.00120330810546875;3.9299999900777;394;100 mA
4.43922998879202;-0.399749755859375;-0.00120880126953125;3.93999999005246;395;100 mA
4.44922998876677;-0.39971923828125;-0.00120147705078125;3.94999999002721;396;100 mA
4.45922998874153;-0.399658203125;-0.00120361328125;3.95999999000196;397;100 mA
4.46922998871628;-0.3997802734375;-0.00120269775390625;3.96999998997671;398;100 mA
4.47922998869103;-0.399749755859375;-0.00119903564453125;3.97999998995147;399;100 mA
4.48922998866578;-0.39971923828125;-0.00120574951171875;3.98999998992622;400;100 mA
4.49922998864054;-0.399749755859375;-0.001199951171875;3.99999998990097;401;100 mA
4.50922998861529;-0.399810791015625;-0.00119873046875;4.00999998987572;402;100 mA
4.51922998859004;-0.399658203125;-0.00120208740234375;4.01999998985048;403;100 mA
4.52922998856479;-0.39971923828125;-0.00119720458984375;4.02999998982523;404;100 mA
4.53922998853955;-0.39971923828125;-0.00120330810546875;4.03999998979998;405;100 mA
4.5492299885143;-0.399688720703125;-0.0011962890625;4.04999998977473;406;100 mA
4.55922998848905;-0.399749755859375;-0.00119873046875;4.05999998974949;407;100 mA
4.5692299884638;-0.399749755859375;-0.00120269775390625;4.06999998972424;408;100 mA
4.57922998843856;-0.39971923828125;-0.00119598388671875;4.07999998969899;409;100 mA
4.58922998841331;-0.399749755859375;-0.001201171875;4.08999998967374;410;100 mA
4.59922998838806;-0.399749755859375;-0.0011956787109375;4.0999999896485;411;100 mA
4.60922998836281;-0.3997802734375;-0.001195068359375;4.10999998962325;412;100 mA
4.61922998833757;-0.39971923828125;-0.001201171875;4.119999989598;413;100 mA
4.62922998831232;-0.39971923828125;-0.00119415283203125;4.12999998957275;414;100 mA
4.63922998828707;-0.399749755859375;-0.00119964599609375;4.1399999895475;415;100 mA
4.64922998826182;-0.399749755859375;-0.00118896484375;4.14999998952226;416;100 mA
4.65922998823658;-0.399749755859375;-0.00118988037109375;4.15999998949701;417;100 mA
4.66922998821133;-0.3997802734375;-0.00118927001953125;4.16999998947176;418;100 mA
4.67922998818608;-0.399749755859375;-0.00118560791015625;4.17999998944651;419;100 mA
4.68922998816083;-0.3997802734375;-0.0011907958984375;4.18999998942127;420;100 mA
4.69922998813558;-0.39971923828125;-0.0011846923828125;4.19999998939602;421;100 mA
4.70922998811034;-0.399749755859375;-0.00118438720703125;4.20999998937077;422;100 mA
4.71922998808509;-0.3997802734375;-0.00118927001953125;4.21999998934552;423;100 mA
4.72922998805984;-0.39971923828125;-0.0011859130859375;4.22999998932028;424;100 mA
4.73922998803459;-0.399749755859375;-0.00119171142578125;4.23999998929503;425;100 mA
4.74922998800935;-0.39971923828125;-0.0011846923828125;4.24999998926978;426;100 mA
4.7592299879841;-0.3997802734375;-0.0011859130859375;4.25999998924453;427;100 mA
4.76922998795885;-0.399749755859375;-0.00118927001953125;4.26999998921929;428;100 mA
4.7792299879336;-0.399749755859375;-0.00118316650390625;4.27999998919404;429;100 mA
4.78922998790836;-0.399749755859375;-0.00118988037109375;4.28999998916879;430;100 mA
4.79922998788311;-0.3997802734375;-0.00118194580078125;4.29999998914354;431;100 mA
4.80922998785786;-0.39971923828125;-0.0011865234375;4.3099999891183;432;100 mA
4.81922998783261;-0.39984130859375;-0.00118865966796875;4.31999998909305;433;100 mA
4.82922998780737;-0.3997802734375;-0.001185302734375;4.3299999890678;434;100 mA
4.83922998778212;-0.399749755859375;-0.0011907958984375;4.33999998904255;435;100 mA
4.84922998775687;-0.39984130859375;-0.0011883544921875;4.34999998901731;436;100 mA
4.85922998773162;-0.39971923828125;-0.001187744140625;4.35999998899206;437;100 mA
4.86922998770638;-0.399749755859375;-0.00118682861328125;4.36999998896681;438;100 mA
4.87922998768113;-0.3997802734375;-0.0011810302734375;4.37999998894156;439;100 mA
4.88922998765588;-0.39971923828125;-0.00118499755859375;4.38999998891632;440;100 mA
4.89922998763063;-0.399688720703125;-0.0011773681640625;4.39999998889107;441;100 mA
4.90922998760539;-0.399749755859375;-0.0011773681640625;4.40999998886582;442;100 mA
4.91922998758014;-0.39971923828125;-0.001181640625;4.41999998884057;443;100 mA
4.92922998755489;-0.399749755859375;-0.001175537109375;4.42999998881533;444;100 mA
4.93922998752964;-0.399749755859375;-0.00118133544921875;4.43999998879008;445;100 mA
4.9492299875044;-0.39971923828125;-0.00117156982421875;4.44999998876483;446;100 mA
4.95922998747915;-0.399749755859375;-0.00117706298828125;4.45999998873958;447;100 mA
4.9692299874539;-0.399749755859375;-0.00118011474609375;4.46999998871433;448;100 mA
4.97922998742865;-0.39971923828125;-0.00117584228515625;4.47999998868909;449;100 mA
4.98922998740341;-0.399688720703125;-0.00118133544921875;4.48999998866384;450;100 mA
4.99922998737816;-0.399749755859375;-0.00117340087890625;4.49999998863859;451;100 mA
5.00922998735291;-0.399688720703125;-0.0011767578125;4.50999998861334;452;100 mA
5.01922998732766;-0.399749755859375;-0.00118011474609375;4.5199999885881;453;100 mA
5.02922998730241;-0.39971923828125;-0.0011773681640625;4.52999998856285;454;100 mA
5.03922998727717;-0.39971923828125;-0.00118255615234375;4.5399999885376;455;100 mA
5.04922998725192;-0.3997802734375;-0.00117431640625;4.54999998851235;456;100 mA
5.05922998722667;-0.399749755859375;-0.00117706298828125;4.55999998848711;457;100 mA
5.06922998720142;-0.399749755859375;-0.0011798095703125;4.56999998846186;458;100 mA
5.07922998717618;-0.3997802734375;-0.00117523193359375;4.57999998843661;459;100 mA
5.08922998715093;-0.39971923828125;-0.00118133544921875;4.58999998841136;460;100 mA
5.09922998712568;-0.3997802734375;-0.00117706298828125;4.59999998838612;461;100 mA
5.10922998710043;-0.399688720703125;-0.0011761474609375;4.60999998836087;462;100 mA
5.11922998707519;-0.399810791015625;-0.00117523193359375;4.61999998833562;463;100 mA
5.12922998704994;-0.399749755859375;-0.0011712646484375;4.62999998831037;464;100 mA
5.13922998702469;-0.399749755859375;-0.00117523193359375;4.63999998828513;465;100 mA
5.14922998699944;-0.399749755859375;-0.0011669921875;4.64999998825988;466;100 mA
5.1592299869742;-0.399688720703125;-0.00117156982421875;4.65999998823463;467;100 mA
5.16922998694895;-0.39971923828125;-0.0011712646484375;4.66999998820938;468;100 mA
5.1792299869237;-0.399749755859375;-0.00116851806640625;4.67999998818414;469;100 mA
5.18922998689845;-0.3997802734375;-0.00117279052734375;4.68999998815889;470;100 mA
5.19922998687321;-0.399749755859375;-0.0011663818359375;4.69999998813364;471;100 mA
5.20922998684796;-0.399749755859375;-0.00116912841796875;4.70999998810839;472;100 mA
5.21922998682271;-0.399749755859375;-0.001170654296875;4.71999998808315;473;100 mA
5.22922998679746;-0.39971923828125;-0.00116973876953125;4.7299999880579;474;100 mA
5.23922998677222;-0.39971923828125;-0.00117462158203125;4.73999998803265;475;100 mA
5.24922998674697;-0.399749755859375;-0.0011669921875;4.7499999880074;476;100 mA
5.25922998672172;-0.3997802734375;-0.001171875;4.75999998798216;477;100 mA
5.26922998669647;-0.399749755859375;-0.00117034912109375;4.76999998795691;478;100 mA
5.27922998667123;-0.399749755859375;-0.0011688232421875;4.77999998793166;479;100 mA
5.28922998664598;-0.399810791015625;-0.00117462158203125;4.78999998790641;480;100 mA
5.29922998662073;-0.39971923828125;-0.0011676025390625;4.79999998788116;481;100 mA
5.30922998659548;-0.399749755859375;-0.0011712646484375;4.80999998785592;482;100 mA
5.31922998657024;-0.39971923828125;-0.0011737060546875;4.81999998783067;483;100 mA
5.32922998654499;-0.399749755859375;-0.00117034912109375;4.82999998780542;484;100 mA
5.33922998651974;-0.399749755859375;-0.0011773681640625;4.83999998778017;485;100 mA
5.34922998649449;-0.3997802734375;-0.001165771484375;4.84999998775493;486;100 mA
5.35922998646924;-0.39971923828125;-0.0011688232421875;4.85999998772968;487;100 mA
5.369229986444;-0.399749755859375;-0.00116973876953125;4.86999998770443;488;100 mA
5.37922998641875;-0.399688720703125;-0.00116546630859375;4.87999998767918;489;100 mA
5.3892299863935;-0.399749755859375;-0.0011700439453125;4.88999998765394;490;100 mA
5.39922998636825;-0.399749755859375;-0.00116424560546875;4.89999998762869;491;100 mA
5.40922998634301;-0.399749755859375;-0.00116485595703125;4.90999998760344;492;100 mA
5.41922998631776;-0.399749755859375;-0.00116790771484375;4.91999998757819;493;100 mA
5.42922998629251;-0.39971923828125;-0.0011651611328125;4.92999998755295;494;100 mA
5.43922998626726;-0.399749755859375;-0.001170654296875;4.9399999875277;495;100 mA
5.44922998624202;-0.39971923828125;-0.00116455078125;4.94999998750245;496;100 mA
5.45922998621677;-0.399688720703125;-0.00117156982421875;4.9599999874772;497;100 mA
5.46922998619152;-0.39971923828125;-0.0011700439453125;4.96999998745196;498;100 mA
5.47922998616627;-0.39971923828125;-0.00116790771484375;4.97999998742671;499;100 mA
5.48922998614103;-0.399688720703125;-0.00117279052734375;4.98999998740146;500;100 mA
5.49922998611578;-0.3997802734375;-0.001168212890625;4.99999998737621;501;100 mA
5.50922998609053;-0.39971923828125;-0.001170654296875;5.00999998735097;502;100 mA
5.51922998606528;-0.399749755859375;-0.0011737060546875;5.01999998732572;503;100 mA
5.52922998604004;-0.3997802734375;-0.001170654296875;5.02999998730047;504;100 mA
5.53922998601479;-0.399749755859375;-0.0011761474609375;5.03999998727522;505;100 mA
5.54922998598954;-0.3997802734375;-0.00116790771484375;5.04999998724998;506;100 mA
5.55922998596429;-0.39971923828125;-0.00117431640625;5.05999998722473;507;100 mA
5.56922998593905;-0.39971923828125;-0.001175537109375;5.06999998719948;508;100 mA
5.5792299859138;-0.399749755859375;-0.0011724853515625;5.07999998717423;509;100 mA
5.58922998588855;-0.399749755859375;-0.00117523193359375;5.08999998714899;510;100 mA
5.5992299858633;-0.39971923828125;-0.00116607666015625;5.09999998712374;511;100 mA
5.60922998583806;-0.399749755859375;-0.00116943359375;5.10999998709849;512;100 mA
5.61922998581281;-0.39971923828125;-0.00117401123046875;5.11999998707324;513;100 mA
5.62922998578756;-0.39971923828125;-0.0011663818359375;5.129999987048;514;100 mA
5.63922998576231;-0.399749755859375;-0.00117156982421875;5.13999998702275;515;100 mA
5.64922998573707;-0.3997802734375;-0.00116363525390625;5.1499999869975;516;100 mA
5.65922998571182;-0.39971923828125;-0.00116912841796875;5.15999998697225;517;100 mA
5.66922998568657;-0.39971923828125;-0.00116729736328125;5.169999986947;518;100 mA
5.67922998566132;-0.3997802734375;-0.0011663818359375;5.17999998692176;519;100 mA
5.68922998563608;-0.399749755859375;-0.00117431640625;5.18999998689651;520;100 mA
5.69922998561083;-0.399749755859375;-0.00117095947265625;5.19999998687126;521;100 mA
5.70922998558558;-0.39971923828125;-0.0011724853515625;5.20999998684601;522;100 mA
5.71922998556033;-0.39971923828125;-0.00117340087890625;5.21999998682077;523;100 mA
5.72922998553508;-0.3997802734375;-0.00116943359375;5.22999998679552;524;100 mA
5.73922998550984;-0.39971923828125;-0.00117645263671875;5.23999998677027;525;100 mA
5.74922998548459;-0.39971923828125;-0.001168212890625;5.24999998674502;526;100 mA
5.75922998545934;-0.399749755859375;-0.00117340087890625;5.25999998671978;527;100 mA
5.76922998543409;-0.399749755859375;-0.00117706298828125;5.26999998669453;528;100 mA
5.77922998540885;-0.39971923828125;-0.001175537109375;5.27999998666928;529;100 mA
5.7892299853836;-0.3997802734375;-0.00118438720703125;5.28999998664403;530;100 mA
5.79922998535835;-0.39971923828125;-0.00117156982421875;5.29999998661879;531;100 mA
5.8092299853331;-0.399688720703125;-0.001175537109375;5.30999998659354;532;100 mA
5.81922998530786;-0.399810791015625;-0.001175537109375;5.31999998656829;533;100 mA
5.82922998528261;-0.399749755859375;-0.0011737060546875;5.32999998654304;534;100 mA
5.83922998525736;-0.399749755859375;-0.00117889404296875;5.3399999865178;535;100 mA
5.84922998523211;-0.399749755859375;-0.0011700439453125;5.34999998649255;536;100 mA
5.85922998520687;-0.399749755859375;-0.00117340087890625;5.3599999864673;537;100 mA
5.86922998518162;-0.399749755859375;-0.0011712646484375;5.36999998644205;538;100 mA
5.87922998515637;-0.399749755859375;-0.0011712646484375;5.37999998641681;539;100 mA
5.88922998513112;-0.39971923828125;-0.0011767578125;5.38999998639156;540;100 mA
5.89922998510588;-0.399658203125;-0.00116790771484375;5.39999998636631;541;100 mA
5.90922998508063;-0.399810791015625;-0.001170654296875;5.40999998634106;542;100 mA
5.91922998505538;-0.399749755859375;-0.0011761474609375;5.41999998631582;543;100 mA
5.92922998503013;-0.39971923828125;-0.0011712646484375;5.42999998629057;544;100 mA
5.93922998500489;-0.39971923828125;-0.0011761474609375;5.43999998626532;545;100 mA
5.94922998497964;-0.399749755859375;-0.0011676025390625;5.44999998624007;546;100 mA
5.95922998495439;-0.399749755859375;-0.0011737060546875;5.45999998621483;547;100 mA
5.96922998492914;-0.39971923828125;-0.00117156982421875;5.46999998618958;548;100 mA
5.9792299849039;-0.399749755859375;-0.00117034912109375;5.47999998616433;549;100 mA
5.98922998487865;-0.39971923828125;-0.00117889404296875;5.48999998613908;550;100 mA
5.9992299848534;-0.3997802734375;-0.0011724853515625;5.49999998611383;551;100 mA
6.00922998482815;-0.3997802734375;-0.0011767578125;5.50999998608859;552;100 mA
6.01922998480291;-0.399688720703125;-0.00117950439453125;5.51999998606334;553;100 mA
6.02922998477766;-0.399749755859375;-0.00117706298828125;5.52999998603809;554;100 mA
6.03922998475241;-0.3997802734375;-0.00118072509765625;5.53999998601284;555;100 mA
6.04922998472716;-0.39984130859375;-0.00117340087890625;5.5499999859876;556;100 mA
6.05922998470191;-0.3997802734375;-0.001175537109375;5.55999998596235;557;100 mA
6.06922998467667;-0.39971923828125;-0.001177978515625;5.5699999859371;558;100 mA
6.07922998465142;-0.399749755859375;-0.00117401123046875;5.57999998591185;559;100 mA
6.08922998462617;-0.39971923828125;-0.00117401123046875;5.58999998588661;560;100 mA
6.09922998460092;-0.399688720703125;-0.00116607666015625;5.59999998586136;561;100 mA
6.10922998457568;-0.399749755859375;-0.00116790771484375;5.60999998583611;562;100 mA
6.11922998455043;-0.3997802734375;-0.0011700439453125;5.61999998581086;563;100 mA
6.12922998452518;-0.399749755859375;-0.00116729736328125;5.62999998578562;564;100 mA
6.13922998449993;-0.399749755859375;-0.00117218017578125;5.63999998576037;565;100 mA
6.14922998447469;-0.39971923828125;-0.00116180419921875;5.64999998573512;566;100 mA
6.15922998444944;-0.399749755859375;-0.00117034912109375;5.65999998570987;567;100 mA
6.16922998442419;-0.399749755859375;-0.00117279052734375;5.66999998568463;568;100 mA
6.17922998439894;-0.39971923828125;-0.00116851806640625;5.67999998565938;569;100 mA
6.1892299843737;-0.39971923828125;-0.0011724853515625;5.68999998563413;570;100 mA
6.19922998434845;-0.399810791015625;-0.00116485595703125;5.69999998560888;571;100 mA
6.2092299843232;-0.3997802734375;-0.00116668701171875;5.70999998558364;572;100 mA
6.21922998429795;-0.399749755859375;-0.00116729736328125;5.71999998555839;573;100 mA
6.22922998427271;-0.399749755859375;-0.001165771484375;5.72999998553314;574;100 mA
6.23922998424746;-0.399749755859375;-0.001171875;5.73999998550789;575;100 mA
6.24922998422221;-0.39971923828125;-0.00116302490234375;5.74999998548265;576;100 mA
6.25922998419696;-0.3997802734375;-0.0011688232421875;5.7599999854574;577;100 mA
6.26922998417172;-0.39971923828125;-0.00116912841796875;5.76999998543215;578;100 mA
6.27922998414647;-0.399658203125;-0.00116851806640625;5.7799999854069;579;100 mA
6.28922998412122;-0.3997802734375;-0.00117218017578125;5.78999998538166;580;100 mA
6.29922998409597;-0.39971923828125;-0.0011602783203125;5.79999998535641;581;100 mA
6.30922998407073;-0.39971923828125;-0.0011663818359375;5.80999998533116;582;100 mA
6.31922998404548;-0.399810791015625;-0.00116729736328125;5.81999998530591;583;100 mA
6.32922998402023;-0.399688720703125;-0.0011627197265625;5.82999998528066;584;100 mA
6.33922998399498;-0.399749755859375;-0.00116729736328125;5.83999998525542;585;100 mA
6.34922998396974;-0.399810791015625;-0.00115692138671875;5.84999998523017;586;100 mA
6.35922998394449;-0.399688720703125;-0.001162109375;5.85999998520492;587;100 mA
6.36922998391924;-0.399627685546875;-0.00116058349609375;5.86999998517967;588;100 mA
6.37922998389399;-0.39971923828125;-0.00115936279296875;5.87999998515443;589;100 mA
6.38922998386874;-0.3997802734375;-0.00116455078125;5.88999998512918;590;100 mA
6.3992299838435;-0.399749755859375;-0.001158447265625;5.89999998510393;591;100 mA
6.40922998381825;-0.3997802734375;-0.001162109375;5.90999998507868;592;100 mA
6.419229983793;-0.399749755859375;-0.00116485595703125;5.91999998505344;593;100 mA
6.42922998376775;-0.399688720703125;-0.00115997314453125;5.92999998502819;594;100 mA
6.43922998374251;-0.399749755859375;-0.00116424560546875;5.93999998500294;595;100 mA
6.44922998371726;-0.3997802734375;-0.00115509033203125;5.94999998497769;596;100 mA
6.45922998369201;-0.399749755859375;-0.00116180419921875;5.95999998495245;597;100 mA
6.46922998366676;-0.399688720703125;-0.00116180419921875;5.9699999849272;598;100 mA
6.47922998364152;-0.39971923828125;-0.00115936279296875;5.97999998490195;599;100 mA
6.48922998361627;-0.399749755859375;-0.0011639404296875;5.9899999848767;600;100 mA
6.49922998359102;-0.399688720703125;-0.0011578369140625;5.99999998485146;601;100 mA
6.50922998356577;-0.399749755859375;-0.00116546630859375;6.00999998482621;602;100 mA
6.51922998354053;-0.3997802734375;-0.0011627197265625;6.01999998480096;603;100 mA
6.52922998351528;-0.39971923828125;-0.0011602783203125;6.02999998477571;604;100 mA
6.53922998349003;-0.3997802734375;-0.00116180419921875;6.03999998475047;605;100 mA
6.54922998346478;-0.399688720703125;-0.0011566162109375;6.04999998472522;606;100 mA
6.55922998343954;-0.3997802734375;-0.00116058349609375;6.05999998469997;607;100 mA
6.56922998341429;-0.39971923828125;-0.00115966796875;6.06999998467472;608;100 mA
6.57922998338904;-0.399658203125;-0.0011566162109375;6.07999998464948;609;100 mA
6.58922998336379;-0.399749755859375;-0.00115875244140625;6.08999998462423;610;100 mA
6.59922998333855;-0.399749755859375;-0.0011529541015625;6.09999998459898;611;100 mA
6.6092299833133;-0.399749755859375;-0.0011566162109375;6.10999998457373;612;100 mA
6.61922998328805;-0.39971923828125;-0.0011553955078125;6.11999998454849;613;100 mA
6.6292299832628;-0.39971923828125;-0.00115203857421875;6.12999998452324;614;100 mA
6.63922998323756;-0.39971923828125;-0.00115966796875;6.13999998449799;615;100 mA
6.64922998321231;-0.399749755859375;-0.001153564453125;6.14999998447274;616;100 mA
6.65922998318706;-0.399749755859375;-0.00116241455078125;6.1599999844475;617;100 mA
6.66922998316181;-0.39971923828125;-0.00115753173828125;6.16999998442225;618;100 mA
6.67922998313657;-0.3997802734375;-0.00115447998046875;6.179999984397;619;100 mA
6.68922998311132;-0.3997802734375;-0.00115875244140625;6.18999998437175;620;100 mA
6.69922998308607;-0.399749755859375;-0.00115264892578125;6.1999999843465;621;100 mA
6.70922998306082;-0.399749755859375;-0.001158447265625;6.20999998432126;622;100 mA
6.71922998303558;-0.39971923828125;-0.00116058349609375;6.21999998429601;623;100 mA
6.72922998301033;-0.3997802734375;-0.00115570068359375;6.22999998427076;624;100 mA
6.73922998298508;-0.399688720703125;-0.0011614990234375;6.23999998424551;625;100 mA
6.74922998295983;-0.39971923828125;-0.0011566162109375;6.24999998422027;626;100 mA
6.75922998293458;-0.399749755859375;-0.00115936279296875;6.25999998419502;627;100 mA
6.76922998290934;-0.399749755859375;-0.00115936279296875;6.26999998416977;628;100 mA
6.77922998288409;-0.399688720703125;-0.00115386962890625;6.27999998414452;629;100 mA
6.78922998285884;-0.39971923828125;-0.001158447265625;6.28999998411928;630;100 mA
6.79922998283359;-0.399749755859375;-0.00114959716796875;6.29999998409403;631;100 mA
6.80922998280835;-0.3997802734375;-0.0011566162109375;6.30999998406878;632;100 mA
6.8192299827831;-0.399749755859375;-0.0011541748046875;6.31999998404353;633;100 mA
6.82922998275785;-0.39971923828125;-0.00115203857421875;6.32999998401829;634;100 mA
6.8392299827326;-0.399749755859375;-0.00115447998046875;6.33999998399304;635;100 mA
6.84922998270736;-0.3997802734375;-0.00114776611328125;6.34999998396779;636;100 mA
6.85922998268211;-0.3997802734375;-0.00115020751953125;6.35999998394254;637;100 mA
6.86922998265686;-0.3997802734375;-0.00115264892578125;6.3699999839173;638;100 mA
6.87922998263161;-0.399749755859375;-0.00115081787109375;6.37999998389205;639;100 mA
6.88922998260637;-0.399688720703125;-0.0011572265625;6.3899999838668;640;100 mA
6.89922998258112;-0.39971923828125;-0.00114959716796875;6.39999998384155;641;100 mA
6.90922998255587;-0.399688720703125;-0.00115386962890625;6.40999998381631;642;100 mA
6.91922998253062;-0.399749755859375;-0.00115447998046875;6.41999998379106;643;100 mA
6.92922998250538;-0.399749755859375;-0.00115142822265625;6.42999998376581;644;100 mA
6.93922998248013;-0.39971923828125;-0.001156005859375;6.43999998374056;645;100 mA
6.94922998245488;-0.399749755859375;-0.00115020751953125;6.44999998371532;646;100 mA
6.95922998242963;-0.399749755859375;-0.0011566162109375;6.45999998369007;647;100 mA
6.96922998240439;-0.39971923828125;-0.0011566162109375;6.46999998366482;648;100 mA
6.97922998237914;-0.399749755859375;-0.00115570068359375;6.47999998363957;649;100 mA
6.98922998235389;-0.39971923828125;-0.0011614990234375;6.48999998361433;650;100 mA
6.99922998232864;-0.399749755859375;-0.001153564453125;6.49999998358908;651;100 mA
7.0092299823034;-0.39971923828125;-0.0011572265625;6.50999998356383;652;100 mA
7.01922998227815;-0.399749755859375;-0.0011566162109375;6.51999998353858;653;100 mA
7.0292299822529;-0.39971923828125;-0.00115386962890625;6.52999998351333;654;100 mA
7.03922998222765;-0.399688720703125;-0.00115447998046875;6.53999998348809;655;100 mA
7.04922998220241;-0.399749755859375;-0.00114532470703125;6.54999998346284;656;100 mA
7.05922998217716;-0.399749755859375;-0.0011505126953125;6.55999998343759;657;100 mA
7.06922998215191;-0.399749755859375;-0.00114471435546875;6.56999998341234;658;100 mA
7.07922998212666;-0.39971923828125;-0.00114471435546875;6.5799999833871;659;100 mA
7.08922998210141;-0.399749755859375;-0.00115142822265625;6.58999998336185;660;100 mA
7.09922998207617;-0.3997802734375;-0.0011431884765625;6.5999999833366;661;100 mA
7.10922998205092;-0.39971923828125;-0.001148681640625;6.60999998331135;662;100 mA
7.11922998202567;-0.39971923828125;-0.00114959716796875;6.61999998328611;663;100 mA
7.12922998200042;-0.39971923828125;-0.0011480712890625;6.62999998326086;664;100 mA
7.13922998197518;-0.3997802734375;-0.0011529541015625;6.63999998323561;665;100 mA
7.14922998194993;-0.3997802734375;-0.0011468505859375;6.64999998321036;666;100 mA
7.15922998192468;-0.39971923828125;-0.00115203857421875;6.65999998318512;667;100 mA
7.16922998189943;-0.399749755859375;-0.00114990234375;6.66999998315987;668;100 mA
7.17922998187419;-0.39971923828125;-0.00114990234375;6.67999998313462;669;100 mA
7.18922998184894;-0.3997802734375;-0.0011541748046875;6.68999998310937;670;100 mA
7.19922998182369;-0.39971923828125;-0.0011492919921875;6.69999998308413;671;100 mA
7.20922998179844;-0.3997802734375;-0.00115386962890625;6.70999998305888;672;100 mA
7.2192299817732;-0.399749755859375;-0.00115447998046875;6.71999998303363;673;100 mA
7.22922998174795;-0.399749755859375;-0.00115264892578125;6.72999998300838;674;100 mA
7.2392299817227;-0.3997802734375;-0.00115478515625;6.73999998298314;675;100 mA
7.24922998169745;-0.399688720703125;-0.0011468505859375;6.74999998295789;676;100 mA
7.25922998167221;-0.3997802734375;-0.00115203857421875;6.75999998293264;677;100 mA
7.26922998164696;-0.399749755859375;-0.00114898681640625;6.76999998290739;678;100 mA
7.27922998162171;-0.399688720703125;-0.001146240234375;6.77999998288215;679;100 mA
7.28922998159646;-0.399749755859375;-0.00114898681640625;6.7899999828569;680;100 mA
7.29922998157122;-0.39971923828125;-0.0011407470703125;6.79999998283165;681;100 mA
7.30922998154597;-0.399749755859375;-0.00114471435546875;6.8099999828064;682;100 mA
7.31922998152072;-0.39971923828125;-0.0011468505859375;6.81999998278116;683;100 mA
7.32922998149547;-0.399688720703125;-0.0011419677734375;6.82999998275591;684;100 mA
7.33922998147023;-0.3997802734375;-0.001146240234375;6.83999998273066;685;100 mA
7.34922998144498;-0.39971923828125;-0.00113983154296875;6.84999998270541;686;100 mA
7.35922998141973;-0.399749755859375;-0.00114532470703125;6.85999998268016;687;100 mA
7.36922998139448;-0.399749755859375;-0.00114654541015625;6.86999998265492;688;100 mA
7.37922998136924;-0.399749755859375;-0.0011431884765625;6.87999998262967;689;100 mA
7.38922998134399;-0.399688720703125;-0.0011468505859375;6.88999998260442;690;100 mA
7.39922998131874;-0.39971923828125;-0.00114166259765625;6.89999998257917;691;100 mA
7.40922998129349;-0.39971923828125;-0.00114532470703125;6.90999998255393;692;100 mA
7.41922998126824;-0.399749755859375;-0.00114471435546875;6.91999998252868;693;100 mA
7.429229981243;-0.399749755859375;-0.00114166259765625;6.92999998250343;694;100 mA
7.43922998121775;-0.39971923828125;-0.00114715576171875;6.93999998247818;695;100 mA
7.4492299811925;-0.39971923828125;-0.00114105224609375;6.94999998245294;696;100 mA
7.45922998116725;-0.39971923828125;-0.0011456298828125;6.95999998242769;697;100 mA
7.46922998114201;-0.39971923828125;-0.00114837646484375;6.96999998240244;698;100 mA
7.47922998111676;-0.39971923828125;-0.0011431884765625;6.97999998237719;699;100 mA
7.48922998109151;-0.399749755859375;-0.00114501953125;6.98999998235195;700;100 mA
7.49922998106626;-0.399749755859375;-0.001138916015625;6.9999999823267;701;100 mA
7.50922998104102;-0.399688720703125;-0.00114227294921875;7.00999998230145;702;100 mA
7.51922998101577;-0.399749755859375;-0.00114166259765625;7.0199999822762;703;100 mA
7.52922998099052;-0.399749755859375;-0.00113555908203125;7.02999998225096;704;100 mA
7.53922998096527;-0.39971923828125;-0.00113922119140625;7.03999998222571;705;100 mA
7.54922998094003;-0.3997802734375;-0.00113250732421875;7.04999998220046;706;100 mA
7.55922998091478;-0.3997802734375;-0.00113800048828125;7.05999998217521;707;100 mA
7.56922998088953;-0.39971923828125;-0.0011376953125;7.06999998214997;708;100 mA
7.57922998086428;-0.399749755859375;-0.0011370849609375;7.07999998212472;709;100 mA
7.58922998083904;-0.3997802734375;-0.0011376953125;7.08999998209947;710;100 mA
7.59922998081379;-0.399688720703125;-0.0011297607421875;7.09999998207422;711;100 mA
7.60922998078854;-0.39971923828125;-0.0011376953125;7.10999998204898;712;100 mA
7.61922998076329;-0.39971923828125;-0.00113494873046875;7.11999998202373;713;100 mA
7.62922998073805;-0.39971923828125;-0.0011334228515625;7.12999998199848;714;100 mA
7.6392299807128;-0.399749755859375;-0.00113983154296875;7.13999998197323;715;100 mA
7.64922998068755;-0.3997802734375;-0.0011309814453125;7.14999998194799;716;100 mA
7.6592299806623;-0.399688720703125;-0.0011383056640625;7.15999998192274;717;100 mA
7.66922998063706;-0.3997802734375;-0.0011376953125;7.16999998189749;718;100 mA
7.67922998061181;-0.399749755859375;-0.00113433837890625;7.17999998187224;719;100 mA
7.68922998058656;-0.3997802734375;-0.00113800048828125;7.189999981847;720;100 mA
7.69922998056131;-0.399749755859375;-0.0011309814453125;7.19999998182175;721;100 mA
7.70922998053607;-0.3997802734375;-0.00113922119140625;7.2099999817965;722;100 mA
7.71922998051082;-0.39971923828125;-0.0011383056640625;7.21999998177125;723;100 mA
7.72922998048557;-0.3997802734375;-0.0011322021484375;7.229999981746;724;100 mA
7.73922998046032;-0.399688720703125;-0.0011346435546875;7.23999998172076;725;100 mA
7.74922998043508;-0.3997802734375;-0.001131591796875;7.24999998169551;726;100 mA
7.75922998040983;-0.39971923828125;-0.00113616943359375;7.25999998167026;727;100 mA
7.76922998038458;-0.399749755859375;-0.00113311767578125;7.26999998164501;728;100 mA
7.77922998035933;-0.399749755859375;-0.0011297607421875;7.27999998161977;729;100 mA
7.78922998033408;-0.399749755859375;-0.0011322021484375;7.28999998159452;730;100 mA
7.79922998030884;-0.399688720703125;-0.00112518310546875;7.29999998156927;731;100 mA
7.80922998028359;-0.399749755859375;-0.00113067626953125;7.30999998154402;732;100 mA
7.81922998025834;-0.399688720703125;-0.00112945556640625;7.31999998151878;733;100 mA
7.82922998023309;-0.39971923828125;-0.00112762451171875;7.32999998149353;734;100 mA
7.83922998020785;-0.39971923828125;-0.00113250732421875;7.33999998146828;735;100 mA
7.8492299801826;-0.399749755859375;-0.001126708984375;7.34999998144303;736;100 mA
7.85922998015735;-0.39971923828125;-0.001136474609375;7.35999998141779;737;100 mA
7.8692299801321;-0.39971923828125;-0.00113128662109375;7.36999998139254;738;100 mA
7.87922998010686;-0.3997802734375;-0.0011297607421875;7.37999998136729;739;100 mA
7.88922998008161;-0.39971923828125;-0.00113525390625;7.38999998134204;740;100 mA
7.89922998005636;-0.399749755859375;-0.0011260986328125;7.3999999813168;741;100 mA
7.90922998003111;-0.399749755859375;-0.00113311767578125;7.40999998129155;742;100 mA
7.91922998000587;-0.3997802734375;-0.00113128662109375;7.4199999812663;743;100 mA
7.92922997998062;-0.39971923828125;-0.001129150390625;7.42999998124105;744;100 mA
7.93922997995537;-0.3997802734375;-0.00113189697265625;7.43999998121581;745;100 mA
7.94922997993012;-0.39971923828125;-0.00113006591796875;7.44999998119056;746;100 mA
7.95922997990488;-0.399749755859375;-0.00113311767578125;7.45999998116531;747;100 mA
7.96922997987963;-0.39971923828125;-0.00113189697265625;7.46999998114006;748;100 mA
7.97922997985438;-0.399749755859375;-0.00112884521484375;7.47999998111482;749;100 mA
7.98922997982913;-0.3997802734375;-0.00113189697265625;7.48999998108957;750;100 mA
7.99922997980389;-0.399688720703125;-0.0011224365234375;7.49999998106432;751;100 mA
8.00922997977864;-0.399688720703125;-0.0011285400390625;7.50999998103907;752;100 mA
8.01922997975339;-0.399688720703125;-0.00112335205078125;7.51999998101383;753;100 mA
8.02922997972814;-0.3997802734375;-0.00112152099609375;7.52999998098858;754;100 mA
8.0392299797029;-0.399688720703125;-0.00112518310546875;7.53999998096333;755;100 mA
8.04922997967765;-0.39971923828125;-0.00112060546875;7.54999998093808;756;100 mA
8.0592299796524;-0.399749755859375;-0.00112548828125;7.55999998091283;757;100 mA
8.06922997962715;-0.39971923828125;-0.0011212158203125;7.56999998088759;758;100 mA
8.07922997960191;-0.3997802734375;-0.00112060546875;7.57999998086234;759;100 mA
8.08922997957666;-0.399749755859375;-0.00112762451171875;7.58999998083709;760;100 mA
8.09922997955141;-0.39971923828125;-0.00112274169921875;7.59999998081184;761;100 mA
8.10922997952616;-0.39971923828125;-0.00113006591796875;7.6099999807866;762;100 mA
8.11922997950091;-0.399749755859375;-0.00112762451171875;7.61999998076135;763;100 mA
8.12922997947567;-0.399749755859375;-0.0011248779296875;7.6299999807361;764;100 mA
8.13922997945042;-0.399749755859375;-0.00113037109375;7.63999998071085;765;100 mA
8.14922997942517;-0.39971923828125;-0.0011236572265625;7.64999998068561;766;100 mA
8.15922997939992;-0.3997802734375;-0.0011309814453125;7.65999998066036;767;100 mA
8.16922997937468;-0.3997802734375;-0.0011285400390625;7.66999998063511;768;100 mA
8.17922997934943;-0.399749755859375;-0.00112640380859375;7.67999998060986;769;100 mA
8.18922997932418;-0.399688720703125;-0.00113372802734375;7.68999998058462;770;100 mA
8.19922997929893;-0.399658203125;-0.00112396240234375;7.69999998055937;771;100 mA
8.20922997927369;-0.399749755859375;-0.00113128662109375;7.70999998053412;772;100 mA
8.21922997924844;-0.39971923828125;-0.00112701416015625;7.71999998050887;773;100 mA
8.22922997922319;-0.3997802734375;-0.0011236572265625;7.72999998048363;774;100 mA
8.23922997919794;-0.3997802734375;-0.00112640380859375;7.73999998045838;775;100 mA
8.2492299791727;-0.3997802734375;-0.00111785888671875;7.74999998043313;776;100 mA
8.25922997914745;-0.399688720703125;-0.001126708984375;7.75999998040788;777;100 mA
8.2692299791222;-0.39971923828125;-0.001121826171875;7.76999998038264;778;100 mA
8.27922997909695;-0.399749755859375;-0.00111907958984375;7.77999998035739;779;100 mA
8.28922997907171;-0.39971923828125;-0.00112335205078125;7.78999998033214;780;100 mA
8.29922997904646;-0.39971923828125;-0.0011181640625;7.79999998030689;781;100 mA
8.30922997902121;-0.39971923828125;-0.00112213134765625;7.80999998028165;782;100 mA
8.31922997899596;-0.3997802734375;-0.001124267578125;7.8199999802564;783;100 mA
8.32922997897072;-0.39971923828125;-0.00112091064453125;7.82999998023115;784;100 mA
8.33922997894547;-0.399749755859375;-0.00112548828125;7.8399999802059;785;100 mA
8.34922997892022;-0.399749755859375;-0.00112060546875;7.84999998018066;786;100 mA
8.35922997889497;-0.399749755859375;-0.0011273193359375;7.85999998015541;787;100 mA
8.36922997886973;-0.399749755859375;-0.00112640380859375;7.86999998013016;788;100 mA
8.37922997884448;-0.39971923828125;-0.00112457275390625;7.87999998010491;789;100 mA
8.38922997881923;-0.3997802734375;-0.00112823486328125;7.88999998007966;790;100 mA
8.39922997879398;-0.399749755859375;-0.00112335205078125;7.89999998005442;791;100 mA
8.40922997876874;-0.399688720703125;-0.00113006591796875;7.90999998002917;792;100 mA
8.41922997874349;-0.3997802734375;-0.0011273193359375;7.91999998000392;793;100 mA
8.42922997871824;-0.39971923828125;-0.001126708984375;7.92999997997867;794;100 mA
8.43922997869299;-0.399749755859375;-0.00112884521484375;7.93999997995343;795;100 mA
8.44922997866774;-0.399749755859375;-0.001121826171875;7.94999997992818;796;100 mA
8.4592299786425;-0.399749755859375;-0.001129150390625;7.95999997990293;797;100 mA
8.46922997861725;-0.399749755859375;-0.00112396240234375;7.96999997987768;798;100 mA
8.479229978592;-0.39984130859375;-0.0011224365234375;7.97999997985244;799;100 mA
8.48922997856675;-0.3997802734375;-0.00112335205078125;7.98999997982719;800;100 mA
8.49922997854151;-0.399749755859375;-0.00112335205078125;7.99999997980194;801;100 mA
8.50922997851626;-0.399749755859375;-0.00112701416015625;8.00999997977669;802;100 mA
8.51922997849101;-0.3997802734375;-0.0011248779296875;8.01999997975145;803;100 mA
8.52922997846576;-0.39971923828125;-0.00112030029296875;8.0299999797262;804;100 mA
8.53922997844052;-0.399749755859375;-0.0011273193359375;8.03999997970095;805;100 mA
8.54922997841527;-0.399658203125;-0.00111663818359375;8.0499999796757;806;100 mA
8.55922997839002;-0.399749755859375;-0.0011279296875;8.05999997965046;807;100 mA
8.56922997836477;-0.399688720703125;-0.00112518310546875;8.06999997962521;808;100 mA
8.57922997833953;-0.399810791015625;-0.00112457275390625;8.07999997959996;809;100 mA
8.58922997831428;-0.39971923828125;-0.00112823486328125;8.08999997957471;810;100 mA
8.59922997828903;-0.39971923828125;-0.001121826171875;8.09999997954947;811;100 mA
8.60922997826378;-0.3997802734375;-0.0011273193359375;8.10999997952422;812;100 mA
8.61922997823854;-0.3997802734375;-0.00112579345703125;8.11999997949897;813;100 mA
8.62922997821329;-0.3997802734375;-0.0011248779296875;8.12999997947372;814;100 mA
8.63922997818804;-0.39971923828125;-0.00112945556640625;8.13999997944848;815;100 mA
8.64922997816279;-0.3997802734375;-0.0011224365234375;8.14999997942323;816;100 mA
8.65922997813755;-0.399749755859375;-0.00112823486328125;8.15999997939798;817;100 mA
8.6692299781123;-0.399749755859375;-0.00113067626953125;8.16999997937273;818;100 mA
8.67922997808705;-0.3997802734375;-0.0011248779296875;8.17999997934749;819;100 mA
8.6892299780618;-0.39971923828125;-0.00112945556640625;8.18999997932224;820;100 mA
8.69922997803656;-0.399749755859375;-0.00111968994140625;8.19999997929699;821;100 mA
8.70922997801131;-0.3997802734375;-0.001129150390625;8.20999997927174;822;100 mA
8.71922997798606;-0.39971923828125;-0.001129150390625;8.2199999792465;823;100 mA
8.72922997796081;-0.399688720703125;-0.0011236572265625;8.22999997922125;824;100 mA
8.73922997793557;-0.399749755859375;-0.00113067626953125;8.239999979196;825;100 mA
8.74922997791032;-0.3997802734375;-0.00111968994140625;8.24999997917075;826;100 mA
8.75922997788507;-0.3997802734375;-0.00112884521484375;8.2599999791455;827;100 mA
8.76922997785982;-0.3997802734375;-0.00112518310546875;8.26999997912026;828;100 mA
8.77922997783458;-0.399688720703125;-0.00112335205078125;8.27999997909501;829;100 mA
8.78922997780933;-0.399810791015625;-0.0011279296875;8.28999997906976;830;100 mA
8.79922997778408;-0.3997802734375;-0.001124267578125;8.29999997904451;831;100 mA
8.80922997775883;-0.3997802734375;-0.0011328125;8.30999997901927;832;100 mA
8.81922997773358;-0.399688720703125;-0.00113128662109375;8.31999997899402;833;100 mA
8.82922997770834;-0.3997802734375;-0.0011285400390625;8.32999997896877;834;100 mA
8.83922997768309;-0.399749755859375;-0.001131591796875;8.33999997894352;835;100 mA
8.84922997765784;-0.39971923828125;-0.00112548828125;8.34999997891828;836;100 mA
8.85922997763259;-0.3997802734375;-0.001134033203125;8.35999997889303;837;100 mA
8.86922997760735;-0.39971923828125;-0.0011322021484375;8.36999997886778;838;100 mA
8.8792299775821;-0.399749755859375;-0.00112945556640625;8.37999997884253;839;100 mA
8.88922997755685;-0.399749755859375;-0.00113494873046875;8.38999997881729;840;100 mA
8.8992299775316;-0.39971923828125;-0.0011285400390625;8.39999997879204;841;100 mA
8.90922997750636;-0.399688720703125;-0.00114166259765625;8.40999997876679;842;100 mA
8.91922997748111;-0.399749755859375;-0.00113494873046875;8.41999997874154;843;100 mA
8.92922997745586;-0.39971923828125;-0.001134033203125;8.4299999787163;844;100 mA
8.93922997743061;-0.399749755859375;-0.0011346435546875;8.43999997869105;845;100 mA
8.94922997740537;-0.39971923828125;-0.00113189697265625;8.4499999786658;846;100 mA
8.95922997738012;-0.399688720703125;-0.00113800048828125;8.45999997864055;847;100 mA
8.96922997735487;-0.39971923828125;-0.001134033203125;8.46999997861531;848;100 mA
8.97922997732962;-0.399749755859375;-0.00113433837890625;8.47999997859006;849;100 mA
8.98922997730438;-0.399749755859375;-0.00113494873046875;8.48999997856481;850;100 mA
8.99922997727913;-0.39971923828125;-0.00112823486328125;8.49999997853956;851;100 mA
9.00922997725388;-0.39971923828125;-0.0011383056640625;8.50999997851432;852;100 mA
9.01922997722863;-0.399749755859375;-0.001136474609375;8.51999997848907;853;100 mA
9.02922997720339;-0.39971923828125;-0.00113372802734375;8.52999997846382;854;100 mA
9.03922997717814;-0.39971923828125;-0.0011407470703125;8.53999997843857;855;100 mA
9.04922997715289;-0.399688720703125;-0.00113311767578125;8.54999997841333;856;100 mA
9.05922997712764;-0.39971923828125;-0.0011431884765625;8.55999997838808;857;100 mA
9.0692299771024;-0.39971923828125;-0.00114013671875;8.56999997836283;858;100 mA
9.07922997707715;-0.3997802734375;-0.00114105224609375;8.57999997833758;859;100 mA
9.0892299770519;-0.399749755859375;-0.00114501953125;8.58999997831233;860;100 mA
9.09922997702665;-0.399749755859375;-0.0011383056640625;8.59999997828709;861;100 mA
9.10922997700141;-0.399749755859375;-0.00114654541015625;8.60999997826184;862;100 mA
9.11922997697616;-0.39971923828125;-0.001146240234375;8.61999997823659;863;100 mA
9.12922997695091;-0.399749755859375;-0.00114410400390625;8.62999997821134;864;100 mA
9.13922997692566;-0.399658203125;-0.00114837646484375;8.6399999781861;865;100 mA
9.14922997690041;-0.39971923828125;-0.0011444091796875;8.64999997816085;866;100 mA
9.15922997687517;-0.399749755859375;-0.00114990234375;8.6599999781356;867;100 mA
9.16922997684992;-0.39971923828125;-0.0011468505859375;8.66999997811035;868;100 mA
9.17922997682467;-0.399749755859375;-0.00114349365234375;8.67999997808511;869;100 mA
9.18922997679942;-0.39971923828125;-0.00114898681640625;8.68999997805986;870;100 mA
9.19922997677418;-0.3997802734375;-0.001142578125;8.69999997803461;871;100 mA
9.20922997674893;-0.399688720703125;-0.00115020751953125;8.70999997800936;872;100 mA
9.21922997672368;-0.39971923828125;-0.00114471435546875;8.71999997798412;873;100 mA
9.22922997669843;-0.3997802734375;-0.0011431884765625;8.72999997795887;874;100 mA
9.23922997667319;-0.3997802734375;-0.00114959716796875;8.73999997793362;875;100 mA
9.24922997664794;-0.399749755859375;-0.0011444091796875;8.74999997790837;876;100 mA
9.25922997662269;-0.39971923828125;-0.00115447998046875;8.75999997788313;877;100 mA
9.26922997659744;-0.399749755859375;-0.001148681640625;8.76999997785788;878;100 mA
9.2792299765722;-0.399688720703125;-0.0011505126953125;8.77999997783263;879;100 mA
9.28922997654695;-0.3997802734375;-0.00115631103515625;8.78999997780738;880;100 mA
9.2992299765217;-0.3997802734375;-0.00115234375;8.79999997778214;881;100 mA
9.30922997649645;-0.399749755859375;-0.00115875244140625;8.80999997775689;882;100 mA
9.31922997647121;-0.399749755859375;-0.0011578369140625;8.81999997773164;883;100 mA
9.32922997644596;-0.3997802734375;-0.00115570068359375;8.82999997770639;884;100 mA
9.33922997642071;-0.399749755859375;-0.0011627197265625;8.83999997768115;885;100 mA
9.34922997639546;-0.3997802734375;-0.0011553955078125;8.8499999776559;886;100 mA
9.35922997637022;-0.3997802734375;-0.001163330078125;8.85999997763065;887;100 mA
9.36922997634497;-0.399749755859375;-0.00114288330078125;8.8699999776054;888;100 mA
9.37922997631972;-0.39971923828125;-0.00113616943359375;8.87999997758016;889;100 mA
9.38922997629447;-0.399749755859375;-0.00114044189453125;8.88999997755491;890;100 mA
9.39922997626923;-0.399749755859375;-0.0011492919921875;8.89999997752966;891;100 mA
9.40922997624398;-0.399749755859375;-0.001162109375;8.90999997750441;892;100 mA
9.41922997621873;-0.399688720703125;-0.00115997314453125;8.91999997747916;893;100 mA
9.42922997619348;-0.399749755859375;-0.0011602783203125;8.92999997745392;894;100 mA
9.43922997616824;-0.39971923828125;-0.00116363525390625;8.93999997742867;895;100 mA
9.44922997614299;-0.399749755859375;-0.0011566162109375;8.94999997740342;896;100 mA
9.45922997611774;-0.399749755859375;-0.00112762451171875;8.95999997737817;897;100 mA
9.46922997609249;-0.399749755859375;-0.00112945556640625;8.96999997735293;898;100 mA
9.47922997606724;-0.399688720703125;-0.0011322021484375;8.97999997732768;899;100 mA
9.489229976042;-0.3997802734375;-0.0011395263671875;8.98999997730243;900;100 mA
9.49922997601675;-0.3997802734375;-0.0011358642578125;8.99999997727718;901;100 mA
9.5092299759915;-0.399749755859375;-0.00114532470703125;9.00999997725194;902;100 mA
9.51922997596625;-0.399749755859375;-0.00114227294921875;9.01999997722669;903;100 mA
9.52922997594101;-0.399688720703125;-0.00114990234375;9.02999997720144;904;100 mA
9.53922997591576;-0.39971923828125;-0.00114990234375;9.03999997717619;905;100 mA
9.54922997589051;-0.399810791015625;-0.0011517333984375;9.04999997715095;906;100 mA
9.55922997586526;-0.399749755859375;-0.0011639404296875;9.0599999771257;907;100 mA
9.56922997584002;-0.399749755859375;-0.00116363525390625;9.06999997710045;908;100 mA
9.57922997581477;-0.39971923828125;-0.00116363525390625;9.0799999770752;909;100 mA
9.58922997578952;-0.3997802734375;-0.00116943359375;9.08999997704996;910;100 mA
9.59922997576427;-0.399749755859375;-0.0011676025390625;9.09999997702471;911;100 mA
9.60922997573903;-0.39971923828125;-0.00117584228515625;9.10999997699946;912;100 mA
9.61922997571378;-0.39971923828125;-0.0011724853515625;9.11999997697421;913;100 mA
9.62922997568853;-0.399688720703125;-0.00117340087890625;9.12999997694897;914;100 mA
9.63922997566328;-0.399688720703125;-0.00117767333984375;9.13999997692372;915;100 mA
9.64922997563804;-0.39971923828125;-0.00116973876953125;9.14999997689847;916;100 mA
9.65922997561279;-0.3997802734375;-0.001180419921875;9.15999997687322;917;100 mA
9.66922997558754;-0.399749755859375;-0.001177978515625;9.16999997684798;918;100 mA
9.67922997556229;-0.399749755859375;-0.001177978515625;9.17999997682273;919;100 mA
9.68922997553705;-0.399749755859375;-0.00118011474609375;9.18999997679748;920;100 mA
9.6992299755118;-0.399749755859375;-0.0011737060546875;9.19999997677223;921;100 mA
9.70922997548655;-0.39971923828125;-0.001182861328125;9.20999997674699;922;100 mA
9.7192299754613;-0.39971923828125;-0.0011785888671875;9.21999997672174;923;100 mA
9.72922997543606;-0.399749755859375;-0.00117523193359375;9.22999997669649;924;100 mA
9.73922997541081;-0.39971923828125;-0.00118316650390625;9.23999997667124;925;100 mA
9.74922997538556;-0.399749755859375;-0.0011749267578125;9.249999976646;926;100 mA
9.75922997536031;-0.399749755859375;-0.00118621826171875;9.25999997662075;927;100 mA
9.76922997533507;-0.3997802734375;-0.00118408203125;9.2699999765955;928;100 mA
9.77922997530982;-0.39971923828125;-0.0011846923828125;9.27999997657025;929;100 mA
9.78922997528457;-0.399749755859375;-0.00118621826171875;9.289999976545;930;100 mA
9.79922997525932;-0.3997802734375;-0.0011834716796875;9.29999997651976;931;100 mA
9.80922997523408;-0.3997802734375;-0.00118927001953125;9.30999997649451;932;100 mA
9.81922997520883;-0.39971923828125;-0.00118804931640625;9.31999997646926;933;100 mA
9.82922997518358;-0.399749755859375;-0.001185302734375;9.32999997644401;934;100 mA
9.83922997515833;-0.399749755859375;-0.00118988037109375;9.33999997641877;935;100 mA
9.84922997513308;-0.3997802734375;-0.001185302734375;9.34999997639352;936;100 mA
9.85922997510784;-0.399749755859375;-0.00119171142578125;9.35999997636827;937;100 mA
9.86922997508259;-0.3997802734375;-0.00119110107421875;9.36999997634302;938;100 mA
9.87922997505734;-0.39971923828125;-0.00118743896484375;9.37999997631778;939;100 mA
9.88922997503209;-0.3997802734375;-0.00119049072265625;9.38999997629253;940;100 mA
9.89922997500685;-0.3997802734375;-0.0011846923828125;9.39999997626728;941;100 mA
9.9092299749816;-0.39971923828125;-0.0011944580078125;9.40999997624203;942;100 mA
9.91922997495635;-0.399658203125;-0.0011895751953125;9.41999997621679;943;100 mA
9.9292299749311;-0.399749755859375;-0.00118743896484375;9.42999997619154;944;100 mA
9.93922997490586;-0.399749755859375;-0.00119140625;9.43999997616629;945;100 mA
9.94922997488061;-0.39971923828125;-0.0011846923828125;9.44999997614104;946;100 mA
9.95922997485536;-0.399688720703125;-0.0011920166015625;9.4599999761158;947;100 mA
9.96922997483011;-0.39971923828125;-0.00118804931640625;9.46999997609055;948;100 mA
9.97922997480487;-0.39971923828125;-0.00118865966796875;9.4799999760653;949;100 mA
9.98922997477962;-0.399749755859375;-0.0011865234375;9.48999997604005;950;100 mA
9.99922997475437;-0.399749755859375;-0.00118621826171875;9.49999997601481;951;100 mA
10.0092299747291;-0.399749755859375;-0.0011956787109375;9.50999997598956;952;100 mA
10.0192299747039;-0.399810791015625;-0.00119171142578125;9.51999997596431;953;100 mA
10.0292299746786;-0.399749755859375;-0.00119049072265625;9.52999997593906;954;100 mA
10.0392299746534;-0.399688720703125;-0.00119415283203125;9.53999997591382;955;100 mA
10.0492299746281;-0.39971923828125;-0.00118865966796875;9.54999997588857;956;100 mA
10.0592299746029;-0.39971923828125;-0.00119537353515625;9.55999997586332;957;100 mA
10.0692299745776;-0.399749755859375;-0.0011920166015625;9.56999997583807;958;100 mA
10.0792299745524;-0.39971923828125;-0.00119110107421875;9.57999997581283;959;100 mA
10.0892299745271;-0.399749755859375;-0.00119384765625;9.58999997578758;960;100 mA
10.0992299745019;-0.399749755859375;-0.00119140625;9.59999997576233;961;100 mA
10.1092299744766;-0.399749755859375;-0.0011993408203125;9.60999997573708;962;100 mA
10.1192299744514;-0.399749755859375;-0.00119354248046875;9.61999997571183;963;100 mA
10.1292299744262;-0.399749755859375;-0.001190185546875;9.62999997568659;964;100 mA
10.1392299744009;-0.399749755859375;-0.00119384765625;9.63999997566134;965;100 mA
10.1492299743757;-0.39971923828125;-0.00119110107421875;9.64999997563609;966;100 mA
10.1592299743504;-0.39971923828125;-0.0011962890625;9.65999997561084;967;100 mA
10.1692299743252;-0.399749755859375;-0.001190185546875;9.6699999755856;968;100 mA
10.1792299742999;-0.399749755859375;-0.0011865234375;9.67999997556035;969;100 mA
10.1892299742747;-0.399749755859375;-0.00119049072265625;9.6899999755351;970;100 mA
10.1992299742494;-0.399749755859375;-0.00118438720703125;9.69999997550985;971;100 mA
10.2092299742242;-0.3997802734375;-0.00119384765625;9.70999997548461;972;100 mA
10.2192299741989;-0.3997802734375;-0.00118804931640625;9.71999997545936;973;100 mA
10.2292299741737;-0.3997802734375;-0.00118682861328125;9.72999997543411;974;100 mA
10.2392299741484;-0.399688720703125;-0.0011920166015625;9.73999997540886;975;100 mA
10.2492299741232;-0.3997802734375;-0.0011871337890625;9.74999997538362;976;100 mA
10.2592299740979;-0.3997802734375;-0.00119720458984375;9.75999997535837;977;100 mA
10.2692299740727;-0.39971923828125;-0.001192626953125;9.76999997533312;978;100 mA
10.2792299740474;-0.3997802734375;-0.001190185546875;9.77999997530787;979;100 mA
10.2892299740222;-0.399810791015625;-0.00119293212890625;9.78999997528263;980;100 mA
10.2992299739969;-0.399810791015625;-0.0011883544921875;9.79999997525738;981;100 mA
10.3092299739717;-0.3997802734375;-0.00119476318359375;9.80999997523213;982;100 mA
10.3192299739464;-0.39971923828125;-0.001192626953125;9.81999997520688;983;100 mA
10.3292299739212;-0.399749755859375;-0.00118896484375;9.82999997518164;984;100 mA
10.339229973896;-0.399749755859375;-0.00119415283203125;9.83999997515639;985;100 mA
10.3492299738707;-0.399749755859375;-0.0011895751953125;9.84999997513114;986;100 mA
10.3592299738455;-0.399749755859375;-0.0011956787109375;9.85999997510589;987;100 mA
10.3692299738202;-0.3997802734375;-0.00119049072265625;9.86999997508065;988;100 mA
10.379229973795;-0.399749755859375;-0.00118743896484375;9.8799999750554;989;100 mA
10.3892299737697;-0.39971923828125;-0.00119232177734375;9.88999997503015;990;100 mA
10.3992299737445;-0.399688720703125;-0.0011871337890625;9.8999999750049;991;100 mA
10.4092299737192;-0.39971923828125;-0.00119293212890625;9.90999997497966;992;100 mA
10.419229973694;-0.399688720703125;-0.00118743896484375;9.91999997495441;993;100 mA
10.4292299736687;-0.39971923828125;-0.00118499755859375;9.92999997492916;994;100 mA
10.4392299736435;-0.399749755859375;-0.00118682861328125;9.93999997490391;995;100 mA
10.4492299736182;-0.39971923828125;-0.00118316650390625;9.94999997487866;996;100 mA
10.459229973593;-0.39971923828125;-0.00118927001953125;9.95999997485342;997;100 mA
10.4692299735677;-0.399688720703125;-0.00118377685546875;9.96999997482817;998;100 mA
10.4792299735425;-0.399749755859375;-0.00118194580078125;9.97999997480292;999;100 mA
10.4892299735172;-0.399688720703125;-0.00118560791015625;9.98999997477767;1000;100 mA
