Time (s);WE(1).Potential (V);WE(1).Current (A);Corrected time (s);Index;Current range
11.0784209720297;-0.299835205078125;-0.000394592285156251;0;1;100 mA
11.0884209720044;-0.299774169921875;-0.000635681152343751;0.00999999997475243;2;100 mA
11.0984209719792;-0.299774169921875;-0.00075836181640625;0.0199999999495049;3;100 mA
11.1084209719539;-0.299835205078125;-0.00081939697265625;0.0299999999242573;4;100 mA
11.1184209719287;-0.2998046875;-0.00086944580078125;0.0399999998990097;5;100 mA
11.1284209719034;-0.2998046875;-0.00090179443359375;0.0499999998737621;6;100 mA
11.1384209718782;-0.299835205078125;-0.000924072265625001;0.0599999998485146;7;100 mA
11.1484209718529;-0.299835205078125;-0.000948181152343749;0.069999999823267;8;100 mA
11.1584209718277;-0.299774169921875;-0.000958251953125;0.0799999997980194;9;100 mA
11.1684209718024;-0.2998046875;-0.00097625732421875;0.0899999997727718;10;100 mA
11.1784209717772;-0.2998046875;-0.000987548828125;0.0999999997475243;11;100 mA
11.188420971752;-0.299835205078125;-0.000994873046875;0.109999999722277;12;100 mA
11.1984209717267;-0.299896240234375;-0.001004638671875;0.119999999697029;13;100 mA
11.2084209717015;-0.299835205078125;-0.0010064697265625;0.129999999671782;14;100 mA
11.2184209716762;-0.2998046875;-0.00101898193359375;0.139999999646534;15;100 mA
11.228420971651;-0.299774169921875;-0.00102386474609375;0.149999999621286;16;100 mA
11.2384209716257;-0.2998046875;-0.0010260009765625;0.159999999596039;17;100 mA
11.2484209716005;-0.299774169921875;-0.0010345458984375;0.169999999570791;18;100 mA
11.2584209715752;-0.299774169921875;-0.00103607177734375;0.179999999545544;19;100 mA
11.26842097155;-0.2998046875;-0.00104400634765625;0.189999999520296;20;100 mA
11.2784209715247;-0.299774169921875;-0.00104827880859375;0.199999999495049;21;100 mA
11.2884209714995;-0.299713134765625;-0.00105010986328125;0.209999999469801;22;100 mA
11.2984209714742;-0.299774169921875;-0.0010552978515625;0.219999999444553;23;100 mA
11.308420971449;-0.299835205078125;-0.00105133056640625;0.229999999419306;24;100 mA
11.3184209714237;-0.299835205078125;-0.00105712890625;0.239999999394058;25;100 mA
11.3284209713985;-0.299774169921875;-0.00106170654296875;0.249999999368811;26;100 mA
11.3384209713732;-0.2998046875;-0.001060791015625;0.259999999343563;27;100 mA
11.348420971348;-0.2998046875;-0.001063232421875;0.269999999318316;28;100 mA
11.3584209713227;-0.299835205078125;-0.00105682373046875;0.279999999293068;29;100 mA
11.3684209712975;-0.29986572265625;-0.001063232421875;0.28999999926782;30;100 mA
11.3784209712722;-0.299835205078125;-0.0010626220703125;0.299999999242573;31;100 mA
11.388420971247;-0.2998046875;-0.00106201171875;0.309999999217325;32;100 mA
11.3984209712218;-0.29986572265625;-0.0010675048828125;0.319999999192078;33;100 mA
11.4084209711965;-0.2998046875;-0.00106231689453125;0.32999999916683;34;100 mA
11.4184209711713;-0.299835205078125;-0.00106597900390625;0.339999999141583;35;100 mA
11.428420971146;-0.2998046875;-0.0010687255859375;0.349999999116335;36;100 mA
11.4384209711208;-0.299835205078125;-0.0010675048828125;0.359999999091087;37;100 mA
11.4484209710955;-0.29986572265625;-0.00107452392578125;0.36999999906584;38;100 mA
11.4584209710703;-0.29986572265625;-0.00106964111328125;0.379999999040592;39;100 mA
11.468420971045;-0.299774169921875;-0.00107513427734375;0.389999999015345;40;100 mA
11.4784209710198;-0.299835205078125;-0.00107421875;0.399999998990097;41;100 mA
11.4884209709945;-0.299774169921875;-0.00107452392578125;0.40999999896485;42;100 mA
11.4984209709693;-0.2998046875;-0.0010791015625;0.419999998939602;43;100 mA
11.508420970944;-0.299835205078125;-0.00107452392578125;0.429999998914354;44;100 mA
11.5184209709188;-0.2998046875;-0.0010809326171875;0.439999998889107;45;100 mA
11.5284209708935;-0.299774169921875;-0.00108123779296875;0.449999998863859;46;100 mA
11.5384209708683;-0.2998046875;-0.00107940673828125;0.459999998838612;47;100 mA
11.548420970843;-0.299835205078125;-0.001082763671875;0.469999998813364;48;100 mA
11.5584209708178;-0.299713134765625;-0.0010772705078125;0.479999998788116;49;100 mA
11.5684209707925;-0.29986572265625;-0.00108245849609375;0.489999998762869;50;100 mA
11.5784209707673;-0.29986572265625;-0.00108154296875;0.499999998737621;51;100 mA
11.588420970742;-0.299835205078125;-0.0010784912109375;0.509999998712374;52;100 mA
11.5984209707168;-0.299774169921875;-0.0010784912109375;0.519999998687126;53;100 mA
11.6084209706916;-0.2998046875;-0.0010736083984375;0.529999998661879;54;100 mA
11.6184209706663;-0.299835205078125;-0.00108062744140625;0.539999998636631;55;100 mA
11.6284209706411;-0.2998046875;-0.0010784912109375;0.549999998611383;56;100 mA
11.6384209706158;-0.299713134765625;-0.001077880859375;0.559999998586136;57;100 mA
11.6484209705906;-0.2998046875;-0.00108123779296875;0.569999998560888;58;100 mA
11.6584209705653;-0.2998046875;-0.00107208251953125;0.579999998535641;59;100 mA
11.6684209705401;-0.2998046875;-0.00107940673828125;0.589999998510393;60;100 mA
11.6784209705148;-0.2998046875;-0.00107666015625;0.599999998485146;61;100 mA
11.6884209704896;-0.2998046875;-0.00107757568359375;0.609999998459898;62;100 mA
11.6984209704643;-0.299774169921875;-0.001080322265625;0.61999999843465;63;100 mA
11.7084209704391;-0.299835205078125;-0.00107635498046875;0.629999998409403;64;100 mA
11.7184209704138;-0.299835205078125;-0.00108001708984375;0.639999998384155;65;100 mA
11.7284209703886;-0.299835205078125;-0.00107879638671875;0.649999998358908;66;100 mA
11.7384209703633;-0.299896240234375;-0.0010784912109375;0.65999999833366;67;100 mA
11.7484209703381;-0.299774169921875;-0.0010833740234375;0.669999998308413;68;100 mA
11.7584209703128;-0.299835205078125;-0.0010797119140625;0.679999998283165;69;100 mA
11.7684209702876;-0.299835205078125;-0.00108489990234375;0.689999998257917;70;100 mA
11.7784209702623;-0.2998046875;-0.00108642578125;0.69999999823267;71;100 mA
11.7884209702371;-0.299774169921875;-0.00108306884765625;0.709999998207422;72;100 mA
11.7984209702119;-0.299835205078125;-0.0010882568359375;0.719999998182175;73;100 mA
11.8084209701866;-0.299835205078125;-0.001082763671875;0.729999998156927;74;100 mA
11.8184209701614;-0.299774169921875;-0.0010845947265625;0.73999999813168;75;100 mA
11.8284209701361;-0.299835205078125;-0.00108306884765625;0.749999998106432;76;100 mA
11.8384209701109;-0.299835205078125;-0.00107818603515625;0.759999998081184;77;100 mA
11.8484209700856;-0.299774169921875;-0.00108123779296875;0.769999998055937;78;100 mA
11.8584209700604;-0.299835205078125;-0.001075439453125;0.779999998030689;79;100 mA
11.8684209700351;-0.299774169921875;-0.00108184814453125;0.789999998005442;80;100 mA
11.8784209700099;-0.299774169921875;-0.0010797119140625;0.799999997980194;81;100 mA
11.8884209699846;-0.29986572265625;-0.0010784912109375;0.809999997954947;82;100 mA
11.8984209699594;-0.299835205078125;-0.0010809326171875;0.819999997929699;83;100 mA
11.9084209699341;-0.299835205078125;-0.00107391357421875;0.829999997904451;84;100 mA
11.9184209699089;-0.299835205078125;-0.0010797119140625;0.839999997879204;85;100 mA
11.9284209698836;-0.299774169921875;-0.00108123779296875;0.849999997853956;86;100 mA
11.9384209698584;-0.29986572265625;-0.0010791015625;0.859999997828709;87;100 mA
11.9484209698331;-0.299774169921875;-0.00108184814453125;0.869999997803461;88;100 mA
11.9584209698079;-0.29974365234375;-0.001075439453125;0.879999997778214;89;100 mA
11.9684209697826;-0.299774169921875;-0.0010833740234375;0.889999997752966;90;100 mA
11.9784209697574;-0.299774169921875;-0.0010821533203125;0.899999997727718;91;100 mA
11.9884209697321;-0.299835205078125;-0.0010797119140625;0.909999997702471;92;100 mA
11.9984209697069;-0.299835205078125;-0.0010845947265625;0.919999997677223;93;100 mA
12.0084209696817;-0.299774169921875;-0.00108001708984375;0.929999997651976;94;100 mA
12.0184209696564;-0.299835205078125;-0.0010870361328125;0.939999997626728;95;100 mA
12.0284209696312;-0.29986572265625;-0.0010845947265625;0.949999997601481;96;100 mA
12.0384209696059;-0.2998046875;-0.00107757568359375;0.959999997576233;97;100 mA
12.0484209695807;-0.299774169921875;-0.00107879638671875;0.969999997550985;98;100 mA
12.0584209695554;-0.2998046875;-0.00107574462890625;0.979999997525738;99;100 mA
12.0684209695302;-0.299774169921875;-0.00108367919921875;0.98999999750049;100;100 mA
12.0784209695049;-0.2998046875;-0.00108123779296875;0.999999997475243;101;100 mA
12.0884209694797;-0.2998046875;-0.0010760498046875;1.00999999745;102;100 mA
12.0984209694544;-0.299774169921875;-0.00108123779296875;1.01999999742475;103;100 mA
12.1084209694292;-0.299774169921875;-0.001075439453125;1.0299999973995;104;100 mA
12.1184209694039;-0.2998046875;-0.00107879638671875;1.03999999737425;105;100 mA
12.1284209693787;-0.2998046875;-0.0010772705078125;1.049999997349;106;100 mA
12.1384209693534;-0.299774169921875;-0.0010748291015625;1.05999999732376;107;100 mA
12.1484209693282;-0.299774169921875;-0.001077880859375;1.06999999729851;108;100 mA
12.1584209693029;-0.2998046875;-0.00107177734375;1.07999999727326;109;100 mA
12.1684209692777;-0.299835205078125;-0.00107879638671875;1.08999999724801;110;100 mA
12.1784209692524;-0.299774169921875;-0.0010772705078125;1.09999999722277;111;100 mA
12.1884209692272;-0.29974365234375;-0.00107666015625;1.10999999719752;112;100 mA
12.1984209692019;-0.299835205078125;-0.00108001708984375;1.11999999717227;113;100 mA
12.2084209691767;-0.2998046875;-0.001075439453125;1.12999999714702;114;100 mA
12.2184209691515;-0.2998046875;-0.00108123779296875;1.13999999712178;115;100 mA
12.2284209691262;-0.299774169921875;-0.00108123779296875;1.14999999709653;116;100 mA
12.238420969101;-0.299835205078125;-0.001077880859375;1.15999999707128;117;100 mA
12.2484209690757;-0.29986572265625;-0.00108306884765625;1.16999999704603;118;100 mA
12.2584209690505;-0.299774169921875;-0.0010772705078125;1.17999999702079;119;100 mA
12.2684209690252;-0.299774169921875;-0.001082763671875;1.18999999699554;120;100 mA
12.278420969;-0.2998046875;-0.00108184814453125;1.19999999697029;121;100 mA
12.2884209689747;-0.299835205078125;-0.001075439453125;1.20999999694504;122;100 mA
12.2984209689495;-0.299835205078125;-0.00108306884765625;1.2199999969198;123;100 mA
12.3084209689242;-0.299835205078125;-0.0010736083984375;1.22999999689455;124;100 mA
12.318420968899;-0.299774169921875;-0.0010797119140625;1.2399999968693;125;100 mA
12.3284209688737;-0.2998046875;-0.00107574462890625;1.24999999684405;126;100 mA
12.3384209688485;-0.2998046875;-0.00107208251953125;1.25999999681881;127;100 mA
12.3484209688232;-0.2998046875;-0.0010760498046875;1.26999999679356;128;100 mA
12.358420968798;-0.29986572265625;-0.00107147216796875;1.27999999676831;129;100 mA
12.3684209687727;-0.299774169921875;-0.00107574462890625;1.28999999674306;130;100 mA
12.3784209687475;-0.299774169921875;-0.00107421875;1.29999999671782;131;100 mA
12.3884209687222;-0.299835205078125;-0.00107147216796875;1.30999999669257;132;100 mA
12.398420968697;-0.299835205078125;-0.00107391357421875;1.31999999666732;133;100 mA
12.4084209686717;-0.299835205078125;-0.0010711669921875;1.32999999664207;134;100 mA
12.4184209686465;-0.29986572265625;-0.00107635498046875;1.33999999661683;135;100 mA
12.4284209686213;-0.2998046875;-0.0010748291015625;1.34999999659158;136;100 mA
12.438420968596;-0.29986572265625;-0.0010736083984375;1.35999999656633;137;100 mA
12.4484209685708;-0.29974365234375;-0.00107757568359375;1.36999999654108;138;100 mA
12.4584209685455;-0.29974365234375;-0.001070556640625;1.37999999651583;139;100 mA
12.4684209685203;-0.2998046875;-0.0010760498046875;1.38999999649059;140;100 mA
12.478420968495;-0.2998046875;-0.001075439453125;1.39999999646534;141;100 mA
12.4884209684698;-0.2998046875;-0.001075439453125;1.40999999644009;142;100 mA
12.4984209684445;-0.299835205078125;-0.0010784912109375;1.41999999641484;143;100 mA
12.5084209684193;-0.299774169921875;-0.00107269287109375;1.4299999963896;144;100 mA
12.518420968394;-0.299835205078125;-0.0010791015625;1.43999999636435;145;100 mA
12.5284209683688;-0.29986572265625;-0.001072998046875;1.4499999963391;146;100 mA
12.5384209683435;-0.299835205078125;-0.00107421875;1.45999999631385;147;100 mA
12.5484209683183;-0.2998046875;-0.0010772705078125;1.46999999628861;148;100 mA
12.558420968293;-0.2998046875;-0.00107086181640625;1.47999999626336;149;100 mA
12.5684209682678;-0.299774169921875;-0.00107513427734375;1.48999999623811;150;100 mA
12.5784209682425;-0.2998046875;-0.00107391357421875;1.49999999621286;151;100 mA
12.5884209682173;-0.2998046875;-0.00106903076171875;1.50999999618762;152;100 mA
12.598420968192;-0.29986572265625;-0.00107177734375;1.51999999616237;153;100 mA
12.6084209681668;-0.2998046875;-0.00106536865234375;1.52999999613712;154;100 mA
12.6184209681415;-0.299835205078125;-0.0010711669921875;1.53999999611187;155;100 mA
12.6284209681163;-0.299835205078125;-0.00106903076171875;1.54999999608663;156;100 mA
12.6384209680911;-0.2998046875;-0.0010662841796875;1.55999999606138;157;100 mA
12.6484209680658;-0.299835205078125;-0.001070556640625;1.56999999603613;158;100 mA
12.6584209680406;-0.2998046875;-0.00106597900390625;1.57999999601088;159;100 mA
12.6684209680153;-0.299835205078125;-0.00107177734375;1.58999999598564;160;100 mA
12.6784209679901;-0.299835205078125;-0.00107086181640625;1.59999999596039;161;100 mA
12.6884209679648;-0.299774169921875;-0.00107086181640625;1.60999999593514;162;100 mA
12.6984209679396;-0.299774169921875;-0.00107391357421875;1.61999999590989;163;100 mA
12.7084209679143;-0.299835205078125;-0.00106689453125;1.62999999588465;164;100 mA
12.7184209678891;-0.299835205078125;-0.00107391357421875;1.6399999958594;165;100 mA
12.7284209678638;-0.299774169921875;-0.001072998046875;1.64999999583415;166;100 mA
12.7384209678386;-0.299774169921875;-0.0010723876953125;1.6599999958089;167;100 mA
12.7484209678133;-0.2998046875;-0.00107666015625;1.66999999578366;168;100 mA
12.7584209677881;-0.299774169921875;-0.00106719970703125;1.67999999575841;169;100 mA
12.7684209677628;-0.2998046875;-0.001075439453125;1.68999999573316;170;100 mA
12.7784209677376;-0.299835205078125;-0.00107177734375;1.69999999570791;171;100 mA
12.7884209677123;-0.299835205078125;-0.00106964111328125;1.70999999568267;172;100 mA
12.7984209676871;-0.299774169921875;-0.00107208251953125;1.71999999565742;173;100 mA
12.8084209676618;-0.299774169921875;-0.0010662841796875;1.72999999563217;174;100 mA
12.8184209676366;-0.29986572265625;-0.00107086181640625;1.73999999560692;175;100 mA
12.8284209676114;-0.2998046875;-0.0010693359375;1.74999999558167;176;100 mA
12.8384209675861;-0.299774169921875;-0.0010675048828125;1.75999999555643;177;100 mA
12.8484209675609;-0.299774169921875;-0.001070556640625;1.76999999553118;178;100 mA
12.8584209675356;-0.2998046875;-0.00106292724609375;1.77999999550593;179;100 mA
12.8684209675104;-0.299774169921875;-0.0010693359375;1.78999999548068;180;100 mA
12.8784209674851;-0.299835205078125;-0.0010675048828125;1.79999999545544;181;100 mA
12.8884209674599;-0.299835205078125;-0.0010675048828125;1.80999999543019;182;100 mA
12.8984209674346;-0.2998046875;-0.00107086181640625;1.81999999540494;183;100 mA
12.9084209674094;-0.29986572265625;-0.00106475830078125;1.82999999537969;184;100 mA
12.9184209673841;-0.299835205078125;-0.0010699462890625;1.83999999535445;185;100 mA
12.9284209673589;-0.299713134765625;-0.001070556640625;1.8499999953292;186;100 mA
12.9384209673336;-0.299835205078125;-0.00106658935546875;1.85999999530395;187;100 mA
12.9484209673084;-0.29986572265625;-0.0010699462890625;1.8699999952787;188;100 mA
12.9584209672831;-0.299835205078125;-0.0010650634765625;1.87999999525346;189;100 mA
12.9684209672579;-0.299774169921875;-0.0010711669921875;1.88999999522821;190;100 mA
12.9784209672326;-0.29974365234375;-0.001072998046875;1.89999999520296;191;100 mA
12.9884209672074;-0.2998046875;-0.00106658935546875;1.90999999517771;192;100 mA
12.9984209671821;-0.2998046875;-0.0010711669921875;1.91999999515247;193;100 mA
13.0084209671569;-0.299774169921875;-0.001060791015625;1.92999999512722;194;100 mA
13.0184209671316;-0.299835205078125;-0.00106903076171875;1.93999999510197;195;100 mA
13.0284209671064;-0.299774169921875;-0.0010711669921875;1.94999999507672;196;100 mA
13.0384209670812;-0.299774169921875;-0.00106597900390625;1.95999999505148;197;100 mA
13.0484209670559;-0.2998046875;-0.0010693359375;1.96999999502623;198;100 mA
13.0584209670307;-0.299774169921875;-0.001060791015625;1.97999999500098;199;100 mA
13.0684209670054;-0.29974365234375;-0.001068115234375;1.98999999497573;200;100 mA
13.0784209669802;-0.299774169921875;-0.0010675048828125;1.99999999495049;201;100 mA
13.0884209669549;-0.2998046875;-0.0010638427734375;2.00999999492524;202;100 mA
13.0984209669297;-0.2998046875;-0.0010662841796875;2.01999999489999;203;100 mA
13.1084209669044;-0.299835205078125;-0.001060791015625;2.02999999487474;204;100 mA
13.1184209668792;-0.299774169921875;-0.001064453125;2.0399999948495;205;100 mA
13.1284209668539;-0.299774169921875;-0.00106292724609375;2.04999999482425;206;100 mA
13.1384209668287;-0.29986572265625;-0.0010638427734375;2.059999994799;207;100 mA
13.1484209668034;-0.299835205078125;-0.00106597900390625;2.06999999477375;208;100 mA
13.1584209667782;-0.29986572265625;-0.0010589599609375;2.0799999947485;209;100 mA
13.1684209667529;-0.2998046875;-0.00106964111328125;2.08999999472326;210;100 mA
13.1784209667277;-0.299835205078125;-0.00106597900390625;2.09999999469801;211;100 mA
13.1884209667024;-0.2998046875;-0.00106292724609375;2.10999999467276;212;100 mA
13.1984209666772;-0.299835205078125;-0.00105987548828125;2.11999999464751;213;100 mA
13.2084209666519;-0.299835205078125;-0.00105224609375;2.12999999462227;214;100 mA
13.2184209666267;-0.29986572265625;-0.00106048583984375;2.13999999459702;215;100 mA
13.2284209666014;-0.29974365234375;-0.0010595703125;2.14999999457177;216;100 mA
13.2384209665762;-0.2998046875;-0.0010552978515625;2.15999999454652;217;100 mA
13.248420966551;-0.2998046875;-0.00106048583984375;2.16999999452128;218;100 mA
13.2584209665257;-0.299835205078125;-0.00105438232421875;2.17999999449603;219;100 mA
13.2684209665005;-0.299835205078125;-0.00105926513671875;2.18999999447078;220;100 mA
13.2784209664752;-0.2998046875;-0.0010565185546875;2.19999999444553;221;100 mA
13.28842096645;-0.299835205078125;-0.0010546875;2.20999999442029;222;100 mA
13.2984209664247;-0.2998046875;-0.0010589599609375;2.21999999439504;223;100 mA
13.3084209663995;-0.2998046875;-0.00105194091796875;2.22999999436979;224;100 mA
13.3184209663742;-0.2998046875;-0.0010577392578125;2.23999999434454;225;100 mA
13.328420966349;-0.299774169921875;-0.00105438232421875;2.2499999943193;226;100 mA
13.3384209663237;-0.2998046875;-0.00105316162109375;2.25999999429405;227;100 mA
13.3484209662985;-0.299774169921875;-0.00105621337890625;2.2699999942688;228;100 mA
13.3584209662732;-0.299774169921875;-0.0010504150390625;2.27999999424355;229;100 mA
13.368420966248;-0.299835205078125;-0.00105438232421875;2.28999999421831;230;100 mA
13.3784209662227;-0.299774169921875;-0.00105010986328125;2.29999999419306;231;100 mA
13.3884209661975;-0.2998046875;-0.00105316162109375;2.30999999416781;232;100 mA
13.3984209661722;-0.2998046875;-0.001055908203125;2.31999999414256;233;100 mA
13.408420966147;-0.299774169921875;-0.0010528564453125;2.32999999411732;234;100 mA
13.4184209661217;-0.2998046875;-0.00105926513671875;2.33999999409207;235;100 mA
13.4284209660965;-0.299774169921875;-0.00105712890625;2.34999999406682;236;100 mA
13.4384209660712;-0.299774169921875;-0.0010565185546875;2.35999999404157;237;100 mA
13.448420966046;-0.2998046875;-0.0010595703125;2.36999999401633;238;100 mA
13.4584209660208;-0.2998046875;-0.00105560302734375;2.37999999399108;239;100 mA
13.4684209659955;-0.2998046875;-0.001060791015625;2.38999999396583;240;100 mA
13.4784209659703;-0.2998046875;-0.00105682373046875;2.39999999394058;241;100 mA
13.488420965945;-0.299774169921875;-0.00105438232421875;2.40999999391533;242;100 mA
13.4984209659198;-0.2998046875;-0.00105712890625;2.41999999389009;243;100 mA
13.5084209658945;-0.299774169921875;-0.00105072021484375;2.42999999386484;244;100 mA
13.5184209658693;-0.29986572265625;-0.0010577392578125;2.43999999383959;245;100 mA
13.528420965844;-0.299774169921875;-0.00105743408203125;2.44999999381434;246;100 mA
13.5384209658188;-0.299774169921875;-0.00105438232421875;2.4599999937891;247;100 mA
13.5484209657935;-0.299835205078125;-0.00105560302734375;2.46999999376385;248;100 mA
13.5584209657683;-0.2998046875;-0.00105133056640625;2.4799999937386;249;100 mA
13.568420965743;-0.29974365234375;-0.00105682373046875;2.48999999371335;250;100 mA
13.5784209657178;-0.2998046875;-0.0010546875;2.49999999368811;251;100 mA
13.5884209656925;-0.2998046875;-0.001051025390625;2.50999999366286;252;100 mA
13.5984209656673;-0.2998046875;-0.00105560302734375;2.51999999363761;253;100 mA
13.608420965642;-0.299835205078125;-0.0010504150390625;2.52999999361236;254;100 mA
13.6184209656168;-0.299835205078125;-0.00105682373046875;2.53999999358712;255;100 mA
13.6284209655915;-0.2998046875;-0.0010565185546875;2.54999999356187;256;100 mA
13.6384209655663;-0.299835205078125;-0.00105499267578125;2.55999999353662;257;100 mA
13.648420965541;-0.299835205078125;-0.001055908203125;2.56999999351137;258;100 mA
13.6584209655158;-0.29986572265625;-0.0010528564453125;2.57999999348613;259;100 mA
13.6684209654906;-0.2998046875;-0.00105804443359375;2.58999999346088;260;100 mA
13.6784209654653;-0.299774169921875;-0.001055908203125;2.59999999343563;261;100 mA
13.6884209654401;-0.299774169921875;-0.0010552978515625;2.60999999341038;262;100 mA
13.6984209654148;-0.299835205078125;-0.0010595703125;2.61999999338514;263;100 mA
13.7084209653896;-0.2998046875;-0.00105499267578125;2.62999999335989;264;100 mA
13.7184209653643;-0.2998046875;-0.00105804443359375;2.63999999333464;265;100 mA
13.7284209653391;-0.299774169921875;-0.0010546875;2.64999999330939;266;100 mA
13.7384209653138;-0.2998046875;-0.00105377197265625;2.65999999328415;267;100 mA
13.7484209652886;-0.299774169921875;-0.00105377197265625;2.6699999932589;268;100 mA
13.7584209652633;-0.29986572265625;-0.001048583984375;2.67999999323365;269;100 mA
13.7684209652381;-0.299835205078125;-0.001053466796875;2.6899999932084;270;100 mA
13.7784209652128;-0.299835205078125;-0.0010504150390625;2.69999999318316;271;100 mA
13.7884209651876;-0.299835205078125;-0.001048583984375;2.70999999315791;272;100 mA
13.7984209651623;-0.299774169921875;-0.00105224609375;2.71999999313266;273;100 mA
13.8084209651371;-0.29986572265625;-0.0010430908203125;2.72999999310741;274;100 mA
13.8184209651118;-0.29986572265625;-0.00105255126953125;2.73999999308217;275;100 mA
13.8284209650866;-0.299835205078125;-0.001046142578125;2.74999999305692;276;100 mA
13.8384209650613;-0.2998046875;-0.00104827880859375;2.75999999303167;277;100 mA
13.8484209650361;-0.299774169921875;-0.0010540771484375;2.76999999300642;278;100 mA
13.8584209650109;-0.299774169921875;-0.001048583984375;2.77999999298117;279;100 mA
13.8684209649856;-0.299835205078125;-0.00105499267578125;2.78999999295593;280;100 mA
13.8784209649604;-0.299774169921875;-0.001051025390625;2.79999999293068;281;100 mA
13.8884209649351;-0.299835205078125;-0.00104888916015625;2.80999999290543;282;100 mA
13.8984209649099;-0.299774169921875;-0.00105255126953125;2.81999999288018;283;100 mA
13.9084209648846;-0.299774169921875;-0.00104949951171875;2.82999999285494;284;100 mA
13.9184209648594;-0.29986572265625;-0.00105499267578125;2.83999999282969;285;100 mA
13.9284209648341;-0.2998046875;-0.00105224609375;2.84999999280444;286;100 mA
13.9384209648089;-0.2998046875;-0.00105255126953125;2.85999999277919;287;100 mA
13.9484209647836;-0.299774169921875;-0.0010552978515625;2.86999999275395;288;100 mA
13.9584209647584;-0.299774169921875;-0.00104888916015625;2.8799999927287;289;100 mA
13.9684209647331;-0.299774169921875;-0.00105194091796875;2.88999999270345;290;100 mA
13.9784209647079;-0.2998046875;-0.00105010986328125;2.8999999926782;291;100 mA
13.9884209646826;-0.299835205078125;-0.0010467529296875;2.90999999265296;292;100 mA
13.9984209646574;-0.299835205078125;-0.00104736328125;2.91999999262771;293;100 mA
14.0084209646321;-0.299835205078125;-0.0010430908203125;2.92999999260246;294;100 mA
14.0184209646069;-0.2998046875;-0.00104827880859375;2.93999999257721;295;100 mA
14.0284209645816;-0.2998046875;-0.0010467529296875;2.94999999255197;296;100 mA
14.0384209645564;-0.2998046875;-0.001043701171875;2.95999999252672;297;100 mA
14.0484209645311;-0.299835205078125;-0.0010467529296875;2.96999999250147;298;100 mA
14.0584209645059;-0.2998046875;-0.0010400390625;2.97999999247622;299;100 mA
14.0684209644807;-0.299835205078125;-0.00104827880859375;2.98999999245098;300;100 mA
14.0784209644554;-0.299774169921875;-0.00104248046875;2.99999999242573;301;100 mA
14.0884209644302;-0.29986572265625;-0.0010430908203125;3.00999999240048;302;100 mA
14.0984209644049;-0.299774169921875;-0.00104949951171875;3.01999999237523;303;100 mA
14.1084209643797;-0.2998046875;-0.001044921875;3.02999999234999;304;100 mA
14.1184209643544;-0.2998046875;-0.00105133056640625;3.03999999232474;305;100 mA
14.1284209643292;-0.2998046875;-0.0010516357421875;3.04999999229949;306;100 mA
14.1384209643039;-0.2998046875;-0.00104827880859375;3.05999999227424;307;100 mA
14.1484209642787;-0.29986572265625;-0.00105194091796875;3.069999992249;308;100 mA
14.1584209642534;-0.2998046875;-0.00104827880859375;3.07999999222375;309;100 mA
14.1684209642282;-0.29974365234375;-0.00105499267578125;3.0899999921985;310;100 mA
14.1784209642029;-0.2998046875;-0.00105438232421875;3.09999999217325;311;100 mA
14.1884209641777;-0.299835205078125;-0.00105010986328125;3.109999992148;312;100 mA
14.1984209641524;-0.29986572265625;-0.001051025390625;3.11999999212276;313;100 mA
14.2084209641272;-0.2998046875;-0.00104766845703125;3.12999999209751;314;100 mA
14.2184209641019;-0.29974365234375;-0.001051025390625;3.13999999207226;315;100 mA
14.2284209640767;-0.299774169921875;-0.00104705810546875;3.14999999204701;316;100 mA
14.2384209640514;-0.299713134765625;-0.00104583740234375;3.15999999202177;317;100 mA
14.2484209640262;-0.299774169921875;-0.00104522705078125;3.16999999199652;318;100 mA
14.2584209640009;-0.299774169921875;-0.00104339599609375;3.17999999197127;319;100 mA
14.2684209639757;-0.29986572265625;-0.00104888916015625;3.18999999194602;320;100 mA
14.2784209639505;-0.299774169921875;-0.00104583740234375;3.19999999192078;321;100 mA
14.2884209639252;-0.299835205078125;-0.001044921875;3.20999999189553;322;100 mA
14.2984209639;-0.299774169921875;-0.00104827880859375;3.21999999187028;323;100 mA
14.3084209638747;-0.2998046875;-0.00104217529296875;3.22999999184503;324;100 mA
14.3184209638495;-0.299835205078125;-0.0010479736328125;3.23999999181979;325;100 mA
14.3284209638242;-0.299835205078125;-0.00105133056640625;3.24999999179454;326;100 mA
14.338420963799;-0.299774169921875;-0.0010479736328125;3.25999999176929;327;100 mA
14.3484209637737;-0.2998046875;-0.00105010986328125;3.26999999174404;328;100 mA
14.3584209637485;-0.299774169921875;-0.00104736328125;3.2799999917188;329;100 mA
14.3684209637232;-0.299774169921875;-0.0010540771484375;3.28999999169355;330;100 mA
14.378420963698;-0.2998046875;-0.0010491943359375;3.2999999916683;331;100 mA
14.3884209636727;-0.299774169921875;-0.00104766845703125;3.30999999164305;332;100 mA
14.3984209636475;-0.299835205078125;-0.001051025390625;3.31999999161781;333;100 mA
14.4084209636222;-0.2998046875;-0.0010479736328125;3.32999999159256;334;100 mA
14.418420963597;-0.299835205078125;-0.0010565185546875;3.33999999156731;335;100 mA
14.4284209635717;-0.2998046875;-0.0010504150390625;3.34999999154206;336;100 mA
14.4384209635465;-0.29974365234375;-0.001048583984375;3.35999999151682;337;100 mA
14.4484209635212;-0.299774169921875;-0.00104888916015625;3.36999999149157;338;100 mA
14.458420963496;-0.299774169921875;-0.00104583740234375;3.37999999146632;339;100 mA
14.4684209634707;-0.29974365234375;-0.00105010986328125;3.38999999144107;340;100 mA
14.4784209634455;-0.299835205078125;-0.00104522705078125;3.39999999141583;341;100 mA
14.4884209634203;-0.299774169921875;-0.001043701171875;3.40999999139058;342;100 mA
14.498420963395;-0.299835205078125;-0.00104705810546875;3.41999999136533;343;100 mA
14.5084209633698;-0.299835205078125;-0.0010406494140625;3.42999999134008;344;100 mA
14.5184209633445;-0.2998046875;-0.00104705810546875;3.43999999131483;345;100 mA
14.5284209633193;-0.299835205078125;-0.00104248046875;3.44999999128959;346;100 mA
14.538420963294;-0.2998046875;-0.00104034423828125;3.45999999126434;347;100 mA
14.5484209632688;-0.299774169921875;-0.00104400634765625;3.46999999123909;348;100 mA
14.5584209632435;-0.2998046875;-0.00104095458984375;3.47999999121384;349;100 mA
14.5684209632183;-0.299774169921875;-0.0010479736328125;3.4899999911886;350;100 mA
14.578420963193;-0.299774169921875;-0.001046142578125;3.49999999116335;351;100 mA
14.5884209631678;-0.2998046875;-0.00104705810546875;3.5099999911381;352;100 mA
14.5984209631425;-0.2998046875;-0.0010491943359375;3.51999999111285;353;100 mA
14.6084209631173;-0.29986572265625;-0.0010455322265625;3.52999999108761;354;100 mA
14.618420963092;-0.2998046875;-0.00105224609375;3.53999999106236;355;100 mA
14.6284209630668;-0.299835205078125;-0.0010504150390625;3.54999999103711;356;100 mA
14.6384209630415;-0.2998046875;-0.00104705810546875;3.55999999101186;357;100 mA
14.6484209630163;-0.299774169921875;-0.001051025390625;3.56999999098662;358;100 mA
14.658420962991;-0.29974365234375;-0.00104888916015625;3.57999999096137;359;100 mA
14.6684209629658;-0.299774169921875;-0.00105194091796875;3.58999999093612;360;100 mA
14.6784209629405;-0.299774169921875;-0.0010467529296875;3.59999999091087;361;100 mA
14.6884209629153;-0.29986572265625;-0.001043701171875;3.60999999088563;362;100 mA
14.6984209628901;-0.2998046875;-0.00104827880859375;3.61999999086038;363;100 mA
14.7084209628648;-0.299774169921875;-0.00104156494140625;3.62999999083513;364;100 mA
14.7184209628396;-0.29986572265625;-0.00104583740234375;3.63999999080988;365;100 mA
14.7284209628143;-0.299774169921875;-0.0010467529296875;3.64999999078464;366;100 mA
14.7384209627891;-0.29974365234375;-0.00104095458984375;3.65999999075939;367;100 mA
14.7484209627638;-0.29974365234375;-0.0010443115234375;3.66999999073414;368;100 mA
14.7584209627386;-0.2998046875;-0.0010394287109375;3.67999999070889;369;100 mA
14.7684209627133;-0.2998046875;-0.00104644775390625;3.68999999068365;370;100 mA
14.7784209626881;-0.2998046875;-0.0010406494140625;3.6999999906584;371;100 mA
14.7884209626628;-0.299774169921875;-0.0010400390625;3.70999999063315;372;100 mA
14.7984209626376;-0.2998046875;-0.00104156494140625;3.7199999906079;373;100 mA
14.8084209626123;-0.2998046875;-0.00103912353515625;3.72999999058266;374;100 mA
14.8184209625871;-0.29974365234375;-0.00104522705078125;3.73999999055741;375;100 mA
14.8284209625618;-0.29974365234375;-0.00104400634765625;3.74999999053216;376;100 mA
14.8384209625366;-0.299774169921875;-0.001043701171875;3.75999999050691;377;100 mA
14.8484209625113;-0.29974365234375;-0.00104522705078125;3.76999999048167;378;100 mA
14.8584209624861;-0.2998046875;-0.00104339599609375;3.77999999045642;379;100 mA
14.8684209624608;-0.29986572265625;-0.00104827880859375;3.78999999043117;380;100 mA
14.8784209624356;-0.299774169921875;-0.00104522705078125;3.79999999040592;381;100 mA
14.8884209624104;-0.299774169921875;-0.00104461669921875;3.80999999038067;382;100 mA
14.8984209623851;-0.299835205078125;-0.0010498046875;3.81999999035543;383;100 mA
14.9084209623599;-0.2998046875;-0.00104217529296875;3.82999999033018;384;100 mA
14.9184209623346;-0.2998046875;-0.00104827880859375;3.83999999030493;385;100 mA
14.9284209623094;-0.299774169921875;-0.00104278564453125;3.84999999027968;386;100 mA
14.9384209622841;-0.2998046875;-0.00104400634765625;3.85999999025444;387;100 mA
14.9484209622589;-0.2998046875;-0.00104278564453125;3.86999999022919;388;100 mA
14.9584209622336;-0.2998046875;-0.00103790283203125;3.87999999020394;389;100 mA
14.9684209622084;-0.299774169921875;-0.00104248046875;3.88999999017869;390;100 mA
14.9784209621831;-0.29974365234375;-0.0010400390625;3.89999999015345;391;100 mA
14.9884209621579;-0.299835205078125;-0.00104095458984375;3.9099999901282;392;100 mA
14.9984209621326;-0.2998046875;-0.00104156494140625;3.91999999010295;393;100 mA
15.0084209621074;-0.299835205078125;-0.00104034423828125;3.9299999900777;394;100 mA
15.0184209620821;-0.29974365234375;-0.0010443115234375;3.93999999005246;395;100 mA
15.0284209620569;-0.29986572265625;-0.00104034423828125;3.94999999002721;396;100 mA
15.0384209620316;-0.2998046875;-0.0010369873046875;3.95999999000196;397;100 mA
15.0484209620064;-0.2998046875;-0.00103973388671875;3.96999998997671;398;100 mA
15.0584209619811;-0.299774169921875;-0.0010369873046875;3.97999998995147;399;100 mA
15.0684209619559;-0.2998046875;-0.001044921875;3.98999998992622;400;100 mA
15.0784209619306;-0.299774169921875;-0.0010418701171875;3.99999998990097;401;100 mA
15.0884209619054;-0.2998046875;-0.00104095458984375;4.00999998987572;402;100 mA
15.0984209618802;-0.29986572265625;-0.001043701171875;4.01999998985048;403;100 mA
15.1084209618549;-0.2998046875;-0.0010394287109375;4.02999998982523;404;100 mA
15.1184209618297;-0.299835205078125;-0.00104583740234375;4.03999998979998;405;100 mA
15.1284209618044;-0.2998046875;-0.00104217529296875;4.04999998977473;406;100 mA
15.1384209617792;-0.299774169921875;-0.00104248046875;4.05999998974949;407;100 mA
15.1484209617539;-0.29974365234375;-0.001043701171875;4.06999998972424;408;100 mA
15.1584209617287;-0.299835205078125;-0.0010394287109375;4.07999998969899;409;100 mA
15.1684209617034;-0.299835205078125;-0.001044921875;4.08999998967374;410;100 mA
15.1784209616782;-0.29974365234375;-0.00104095458984375;4.0999999896485;411;100 mA
15.1884209616529;-0.2998046875;-0.0010394287109375;4.10999998962325;412;100 mA
15.1984209616277;-0.29986572265625;-0.0010400390625;4.119999989598;413;100 mA
15.2084209616024;-0.2998046875;-0.00103485107421875;4.12999998957275;414;100 mA
15.2184209615772;-0.299835205078125;-0.00104095458984375;4.1399999895475;415;100 mA
15.2284209615519;-0.29974365234375;-0.0010394287109375;4.14999998952226;416;100 mA
15.2384209615267;-0.299774169921875;-0.00103759765625;4.15999998949701;417;100 mA
15.2484209615014;-0.299774169921875;-0.0010406494140625;4.16999998947176;418;100 mA
15.2584209614762;-0.299835205078125;-0.00103546142578125;4.17999998944651;419;100 mA
15.2684209614509;-0.299835205078125;-0.00104156494140625;4.18999998942127;420;100 mA
15.2784209614257;-0.29986572265625;-0.00103790283203125;4.19999998939602;421;100 mA
15.2884209614004;-0.299774169921875;-0.00103759765625;4.20999998937077;422;100 mA
15.2984209613752;-0.299835205078125;-0.00103851318359375;4.21999998934552;423;100 mA
15.30842096135;-0.2998046875;-0.00103759765625;4.22999998932028;424;100 mA
15.3184209613247;-0.2998046875;-0.0010430908203125;4.23999998929503;425;100 mA
15.3284209612995;-0.2998046875;-0.0010406494140625;4.24999998926978;426;100 mA
15.3384209612742;-0.2998046875;-0.001038818359375;4.25999998924453;427;100 mA
15.348420961249;-0.2998046875;-0.00104248046875;4.26999998921929;428;100 mA
15.3584209612237;-0.29986572265625;-0.00103912353515625;4.27999998919404;429;100 mA
15.3684209611985;-0.299835205078125;-0.00104522705078125;4.28999998916879;430;100 mA
15.3784209611732;-0.2998046875;-0.0010430908203125;4.29999998914354;431;100 mA
15.388420961148;-0.2998046875;-0.0010418701171875;4.3099999891183;432;100 mA
15.3984209611227;-0.299835205078125;-0.00104339599609375;4.31999998909305;433;100 mA
15.4084209610975;-0.299835205078125;-0.0010345458984375;4.3299999890678;434;100 mA
15.4184209610722;-0.299835205078125;-0.00104248046875;4.33999998904255;435;100 mA
15.428420961047;-0.2998046875;-0.0010382080078125;4.34999998901731;436;100 mA
15.4384209610217;-0.29974365234375;-0.001036376953125;4.35999998899206;437;100 mA
15.4484209609965;-0.2998046875;-0.0010382080078125;4.36999998896681;438;100 mA
15.4584209609712;-0.299835205078125;-0.00103515625;4.37999998894156;439;100 mA
15.468420960946;-0.2998046875;-0.00104156494140625;4.38999998891632;440;100 mA
15.4784209609207;-0.2998046875;-0.00103729248046875;4.39999998889107;441;100 mA
15.4884209608955;-0.2998046875;-0.00103790283203125;4.40999998886582;442;100 mA
15.4984209608702;-0.29974365234375;-0.00103912353515625;4.41999998884057;443;100 mA
15.508420960845;-0.299774169921875;-0.00103424072265625;4.42999998881533;444;100 mA
15.5184209608198;-0.2998046875;-0.00103851318359375;4.43999998879008;445;100 mA
15.5284209607945;-0.299774169921875;-0.0010382080078125;4.44999998876483;446;100 mA
15.5384209607693;-0.299774169921875;-0.00103759765625;4.45999998873958;447;100 mA
15.548420960744;-0.2998046875;-0.00103729248046875;4.46999998871433;448;100 mA
15.5584209607188;-0.29986572265625;-0.00103515625;4.47999998868909;449;100 mA
15.5684209606935;-0.299835205078125;-0.0010443115234375;4.48999998866384;450;100 mA
15.5784209606683;-0.29986572265625;-0.00103912353515625;4.49999998863859;451;100 mA
15.588420960643;-0.2998046875;-0.00103790283203125;4.50999998861334;452;100 mA
15.5984209606178;-0.2998046875;-0.00104095458984375;4.5199999885881;453;100 mA
15.6084209605925;-0.299774169921875;-0.00103912353515625;4.52999998856285;454;100 mA
15.6184209605673;-0.2998046875;-0.001048583984375;4.5399999885376;455;100 mA
15.628420960542;-0.2998046875;-0.00104278564453125;4.54999998851235;456;100 mA
15.6384209605168;-0.299774169921875;-0.00104217529296875;4.55999998848711;457;100 mA
15.6484209604915;-0.299774169921875;-0.0010400390625;4.56999998846186;458;100 mA
15.6584209604663;-0.299835205078125;-0.00103912353515625;4.57999998843661;459;100 mA
15.668420960441;-0.2998046875;-0.00104217529296875;4.58999998841136;460;100 mA
15.6784209604158;-0.2998046875;-0.00103790283203125;4.59999998838612;461;100 mA
15.6884209603905;-0.299835205078125;-0.0010400390625;4.60999998836087;462;100 mA
15.6984209603653;-0.29974365234375;-0.00104095458984375;4.61999998833562;463;100 mA
15.70842096034;-0.299774169921875;-0.001036376953125;4.62999998831037;464;100 mA
15.7184209603148;-0.2998046875;-0.001043701171875;4.63999998828513;465;100 mA
15.7284209602896;-0.2998046875;-0.00104095458984375;4.64999998825988;466;100 mA
15.7384209602643;-0.29986572265625;-0.001038818359375;4.65999998823463;467;100 mA
15.7484209602391;-0.299774169921875;-0.00104156494140625;4.66999998820938;468;100 mA
15.7584209602138;-0.299774169921875;-0.0010394287109375;4.67999998818414;469;100 mA
15.7684209601886;-0.2998046875;-0.00104644775390625;4.68999998815889;470;100 mA
15.7784209601633;-0.299774169921875;-0.001041259765625;4.69999998813364;471;100 mA
15.7884209601381;-0.299835205078125;-0.0010455322265625;4.70999998810839;472;100 mA
15.7984209601128;-0.2998046875;-0.0010479736328125;4.71999998808315;473;100 mA
15.8084209600876;-0.29974365234375;-0.00104705810546875;4.7299999880579;474;100 mA
15.8184209600623;-0.299835205078125;-0.00105255126953125;4.73999998803265;475;100 mA
15.8284209600371;-0.29974365234375;-0.0010504150390625;4.7499999880074;476;100 mA
15.8384209600118;-0.29986572265625;-0.0010491943359375;4.75999998798216;477;100 mA
15.8484209599866;-0.299835205078125;-0.00105194091796875;4.76999998795691;478;100 mA
15.8584209599613;-0.299774169921875;-0.00104888916015625;4.77999998793166;479;100 mA
15.8684209599361;-0.29974365234375;-0.00105316162109375;4.78999998790641;480;100 mA
15.8784209599108;-0.299835205078125;-0.0010498046875;4.79999998788116;481;100 mA
15.8884209598856;-0.299774169921875;-0.00104583740234375;4.80999998785592;482;100 mA
15.8984209598603;-0.29974365234375;-0.001048583984375;4.81999998783067;483;100 mA
15.9084209598351;-0.2998046875;-0.00104522705078125;4.82999998780542;484;100 mA
15.9184209598099;-0.299835205078125;-0.0010504150390625;4.83999998778017;485;100 mA
15.9284209597846;-0.2998046875;-0.001051025390625;4.84999998775493;486;100 mA
15.9384209597594;-0.2998046875;-0.00104736328125;4.85999998772968;487;100 mA
15.9484209597341;-0.2998046875;-0.00104888916015625;4.86999998770443;488;100 mA
15.9584209597089;-0.299835205078125;-0.0010443115234375;4.87999998767918;489;100 mA
15.9684209596836;-0.2998046875;-0.00105072021484375;4.88999998765394;490;100 mA
15.9784209596584;-0.2998046875;-0.00104522705078125;4.89999998762869;491;100 mA
15.9884209596331;-0.299774169921875;-0.00104766845703125;4.90999998760344;492;100 mA
15.9984209596079;-0.299835205078125;-0.00104949951171875;4.91999998757819;493;100 mA
16.0084209595826;-0.299835205078125;-0.0010467529296875;4.92999998755295;494;100 mA
16.0184209595574;-0.29974365234375;-0.00105377197265625;4.9399999875277;495;100 mA
16.0284209595321;-0.299774169921875;-0.0010504150390625;4.94999998750245;496;100 mA
16.0384209595069;-0.2998046875;-0.001048583984375;4.9599999874772;497;100 mA
16.0484209594816;-0.2998046875;-0.00105438232421875;4.96999998745196;498;100 mA
16.0584209594564;-0.2998046875;-0.0010516357421875;4.97999998742671;499;100 mA
16.0684209594311;-0.299896240234375;-0.00105072021484375;4.98999998740146;500;100 mA
16.0784209594059;-0.299774169921875;-0.0010504150390625;4.99999998737621;501;100 mA
16.0884209593806;-0.299774169921875;-0.00105194091796875;5.00999998735097;502;100 mA
16.0984209593554;-0.299713134765625;-0.0010552978515625;5.01999998732572;503;100 mA
16.1084209593301;-0.299835205078125;-0.0010504150390625;5.02999998730047;504;100 mA
16.1184209593049;-0.29974365234375;-0.0010540771484375;5.03999998727522;505;100 mA
16.1284209592797;-0.2998046875;-0.0010498046875;5.04999998724998;506;100 mA
16.1384209592544;-0.299774169921875;-0.0010504150390625;5.05999998722473;507;100 mA
16.1484209592292;-0.299835205078125;-0.0010528564453125;5.06999998719948;508;100 mA
16.1584209592039;-0.2998046875;-0.00104888916015625;5.07999998717423;509;100 mA
16.1684209591787;-0.2998046875;-0.00105560302734375;5.08999998714899;510;100 mA
16.1784209591534;-0.2998046875;-0.0010516357421875;5.09999998712374;511;100 mA
16.1884209591282;-0.2998046875;-0.00105255126953125;5.10999998709849;512;100 mA
16.1984209591029;-0.2998046875;-0.00105438232421875;5.11999998707324;513;100 mA
16.2084209590777;-0.2998046875;-0.00105224609375;5.129999987048;514;100 mA
16.2184209590524;-0.299835205078125;-0.00105499267578125;5.13999998702275;515;100 mA
16.2284209590272;-0.299774169921875;-0.00105377197265625;5.1499999869975;516;100 mA
16.2384209590019;-0.2998046875;-0.0010528564453125;5.15999998697225;517;100 mA
16.2484209589767;-0.299896240234375;-0.001053466796875;5.169999986947;518;100 mA
16.2584209589514;-0.2998046875;-0.00105133056640625;5.17999998692176;519;100 mA
16.2684209589262;-0.29974365234375;-0.00105621337890625;5.18999998689651;520;100 mA
16.2784209589009;-0.2998046875;-0.00105133056640625;5.19999998687126;521;100 mA
16.2884209588757;-0.29986572265625;-0.0010528564453125;5.20999998684601;522;100 mA
16.2984209588504;-0.299896240234375;-0.0010540771484375;5.21999998682077;523;100 mA
16.3084209588252;-0.29974365234375;-0.00105499267578125;5.22999998679552;524;100 mA
16.3184209587999;-0.2998046875;-0.001060791015625;5.23999998677027;525;100 mA
16.3284209587747;-0.299774169921875;-0.00105560302734375;5.24999998674502;526;100 mA
16.3384209587495;-0.299835205078125;-0.0010565185546875;5.25999998671978;527;100 mA
16.3484209587242;-0.2998046875;-0.00105712890625;5.26999998669453;528;100 mA
16.358420958699;-0.299774169921875;-0.00105255126953125;5.27999998666928;529;100 mA
16.3684209586737;-0.2998046875;-0.00105926513671875;5.28999998664403;530;100 mA
16.3784209586485;-0.29986572265625;-0.001053466796875;5.29999998661879;531;100 mA
16.3884209586232;-0.2998046875;-0.00105438232421875;5.30999998659354;532;100 mA
16.398420958598;-0.2998046875;-0.00105499267578125;5.31999998656829;533;100 mA
16.4084209585727;-0.299835205078125;-0.001053466796875;5.32999998654304;534;100 mA
16.4184209585475;-0.299774169921875;-0.001058349609375;5.3399999865178;535;100 mA
16.4284209585222;-0.2998046875;-0.0010546875;5.34999998649255;536;100 mA
16.438420958497;-0.299835205078125;-0.00105377197265625;5.3599999864673;537;100 mA
16.4484209584717;-0.29974365234375;-0.0010577392578125;5.36999998644205;538;100 mA
16.4584209584465;-0.299835205078125;-0.00105377197265625;5.37999998641681;539;100 mA
16.4684209584212;-0.2998046875;-0.00105682373046875;5.38999998639156;540;100 mA
16.478420958396;-0.299835205078125;-0.00105377197265625;5.39999998636631;541;100 mA
16.4884209583707;-0.2998046875;-0.001051025390625;5.40999998634106;542;100 mA
16.4984209583455;-0.299896240234375;-0.00105438232421875;5.41999998631582;543;100 mA
16.5084209583202;-0.2998046875;-0.00105194091796875;5.42999998629057;544;100 mA
16.518420958295;-0.2998046875;-0.00105865478515625;5.43999998626532;545;100 mA
16.5284209582697;-0.299774169921875;-0.00105316162109375;5.44999998624007;546;100 mA
16.5384209582445;-0.299835205078125;-0.00105224609375;5.45999998621483;547;100 mA
16.5484209582193;-0.2998046875;-0.0010565185546875;5.46999998618958;548;100 mA
16.558420958194;-0.29986572265625;-0.00105377197265625;5.47999998616433;549;100 mA
16.5684209581688;-0.299835205078125;-0.00106048583984375;5.48999998613908;550;100 mA
16.5784209581435;-0.299774169921875;-0.00105712890625;5.49999998611383;551;100 mA
16.5884209581183;-0.299774169921875;-0.00105560302734375;5.50999998608859;552;100 mA
16.598420958093;-0.2998046875;-0.00105682373046875;5.51999998606334;553;100 mA
16.6084209580678;-0.29974365234375;-0.00105224609375;5.52999998603809;554;100 mA
16.6184209580425;-0.299835205078125;-0.00105743408203125;5.53999998601284;555;100 mA
16.6284209580173;-0.299774169921875;-0.001053466796875;5.5499999859876;556;100 mA
16.638420957992;-0.299835205078125;-0.0010540771484375;5.55999998596235;557;100 mA
16.6484209579668;-0.2998046875;-0.0010540771484375;5.5699999859371;558;100 mA
16.6584209579415;-0.29986572265625;-0.001051025390625;5.57999998591185;559;100 mA
16.6684209579163;-0.2998046875;-0.00105743408203125;5.58999998588661;560;100 mA
16.678420957891;-0.29974365234375;-0.00105316162109375;5.59999998586136;561;100 mA
16.6884209578658;-0.299835205078125;-0.00105560302734375;5.60999998583611;562;100 mA
16.6984209578405;-0.299774169921875;-0.0010565185546875;5.61999998581086;563;100 mA
16.7084209578153;-0.299835205078125;-0.00105224609375;5.62999998578562;564;100 mA
16.71842095779;-0.2998046875;-0.0010577392578125;5.63999998576037;565;100 mA
16.7284209577648;-0.2998046875;-0.0010528564453125;5.64999998573512;566;100 mA
16.7384209577395;-0.29974365234375;-0.0010546875;5.65999998570987;567;100 mA
16.7484209577143;-0.299774169921875;-0.00105682373046875;5.66999998568463;568;100 mA
16.7584209576891;-0.299774169921875;-0.0010516357421875;5.67999998565938;569;100 mA
16.7684209576638;-0.29974365234375;-0.00105682373046875;5.68999998563413;570;100 mA
16.7784209576386;-0.299774169921875;-0.00105316162109375;5.69999998560888;571;100 mA
16.7884209576133;-0.29986572265625;-0.0010546875;5.70999998558364;572;100 mA
16.7984209575881;-0.299835205078125;-0.00105987548828125;5.71999998555839;573;100 mA
16.8084209575628;-0.2998046875;-0.0010565185546875;5.72999998553314;574;100 mA
16.8184209575376;-0.2998046875;-0.00106475830078125;5.73999998550789;575;100 mA
16.8284209575123;-0.299835205078125;-0.00105804443359375;5.74999998548265;576;100 mA
16.8384209574871;-0.299835205078125;-0.00105621337890625;5.7599999854574;577;100 mA
16.8484209574618;-0.2998046875;-0.00105499267578125;5.76999998543215;578;100 mA
16.8584209574366;-0.299835205078125;-0.0010540771484375;5.7799999854069;579;100 mA
16.8684209574113;-0.2998046875;-0.0010589599609375;5.78999998538166;580;100 mA
16.8784209573861;-0.2998046875;-0.00105438232421875;5.79999998535641;581;100 mA
16.8884209573608;-0.2998046875;-0.00105560302734375;5.80999998533116;582;100 mA
16.8984209573356;-0.29974365234375;-0.00105560302734375;5.81999998530591;583;100 mA
16.9084209573103;-0.299774169921875;-0.0010516357421875;5.82999998528066;584;100 mA
16.9184209572851;-0.299835205078125;-0.0010595703125;5.83999998525542;585;100 mA
16.9284209572598;-0.2998046875;-0.00105743408203125;5.84999998523017;586;100 mA
16.9384209572346;-0.2998046875;-0.00105499267578125;5.85999998520492;587;100 mA
16.9484209572094;-0.29986572265625;-0.001055908203125;5.86999998517967;588;100 mA
16.9584209571841;-0.2998046875;-0.00105316162109375;5.87999998515443;589;100 mA
16.9684209571589;-0.2998046875;-0.00105926513671875;5.88999998512918;590;100 mA
16.9784209571336;-0.2998046875;-0.0010546875;5.89999998510393;591;100 mA
16.9884209571084;-0.2998046875;-0.001053466796875;5.90999998507868;592;100 mA
16.9984209570831;-0.2998046875;-0.00105621337890625;5.91999998505344;593;100 mA
17.0084209570579;-0.299774169921875;-0.0010540771484375;5.92999998502819;594;100 mA
17.0184209570326;-0.2998046875;-0.00105987548828125;5.93999998500294;595;100 mA
17.0284209570074;-0.2998046875;-0.00105743408203125;5.94999998497769;596;100 mA
17.0384209569821;-0.29974365234375;-0.00105865478515625;5.95999998495245;597;100 mA
17.0484209569569;-0.2998046875;-0.001060791015625;5.9699999849272;598;100 mA
17.0584209569316;-0.299774169921875;-0.0010595703125;5.97999998490195;599;100 mA
17.0684209569064;-0.299774169921875;-0.001064453125;5.9899999848767;600;100 mA
17.0784209568811;-0.2998046875;-0.00105712890625;5.99999998485146;601;100 mA
17.0884209568559;-0.299774169921875;-0.00105743408203125;6.00999998482621;602;100 mA
17.0984209568306;-0.299774169921875;-0.0010595703125;6.01999998480096;603;100 mA
17.1084209568054;-0.29986572265625;-0.0010552978515625;6.02999998477571;604;100 mA
17.1184209567801;-0.29986572265625;-0.00106048583984375;6.03999998475047;605;100 mA
17.1284209567549;-0.2998046875;-0.0010552978515625;6.04999998472522;606;100 mA
17.1384209567296;-0.2998046875;-0.00105712890625;6.05999998469997;607;100 mA
17.1484209567044;-0.299896240234375;-0.00105804443359375;6.06999998467472;608;100 mA
17.1584209566792;-0.299835205078125;-0.00105682373046875;6.07999998464948;609;100 mA
17.1684209566539;-0.2998046875;-0.00106231689453125;6.08999998462423;610;100 mA
17.1784209566287;-0.29986572265625;-0.0010565185546875;6.09999998459898;611;100 mA
17.1884209566034;-0.29986572265625;-0.00105743408203125;6.10999998457373;612;100 mA
17.1984209565782;-0.2998046875;-0.00105926513671875;6.11999998454849;613;100 mA
17.2084209565529;-0.299835205078125;-0.00105682373046875;6.12999998452324;614;100 mA
17.2184209565277;-0.2998046875;-0.0010589599609375;6.13999998449799;615;100 mA
17.2284209565024;-0.2998046875;-0.00105682373046875;6.14999998447274;616;100 mA
17.2384209564772;-0.29974365234375;-0.00105804443359375;6.1599999844475;617;100 mA
17.2484209564519;-0.2998046875;-0.00105865478515625;6.16999998442225;618;100 mA
17.2584209564267;-0.299774169921875;-0.00105712890625;6.179999984397;619;100 mA
17.2684209564014;-0.29986572265625;-0.00106414794921875;6.18999998437175;620;100 mA
17.2784209563762;-0.29986572265625;-0.00106048583984375;6.1999999843465;621;100 mA
17.2884209563509;-0.299774169921875;-0.00105804443359375;6.20999998432126;622;100 mA
17.2984209563257;-0.2998046875;-0.001063232421875;6.21999998429601;623;100 mA
17.3084209563004;-0.2998046875;-0.00106048583984375;6.22999998427076;624;100 mA
17.3184209562752;-0.2998046875;-0.0010650634765625;6.23999998424551;625;100 mA
17.3284209562499;-0.2998046875;-0.0010565185546875;6.24999998422027;626;100 mA
17.3384209562247;-0.299774169921875;-0.00105865478515625;6.25999998419502;627;100 mA
17.3484209561994;-0.2998046875;-0.0010601806640625;6.26999998416977;628;100 mA
17.3584209561742;-0.299835205078125;-0.00105682373046875;6.27999998414452;629;100 mA
17.368420956149;-0.299835205078125;-0.001064453125;6.28999998411928;630;100 mA
17.3784209561237;-0.299835205078125;-0.001058349609375;6.29999998409403;631;100 mA
17.3884209560985;-0.2998046875;-0.00105865478515625;6.30999998406878;632;100 mA
17.3984209560732;-0.299774169921875;-0.00105987548828125;6.31999998404353;633;100 mA
17.408420956048;-0.2998046875;-0.0010595703125;6.32999998401829;634;100 mA
17.4184209560227;-0.299774169921875;-0.0010626220703125;6.33999998399304;635;100 mA
17.4284209559975;-0.299774169921875;-0.001058349609375;6.34999998396779;636;100 mA
17.4384209559722;-0.2998046875;-0.001058349609375;6.35999998394254;637;100 mA
17.448420955947;-0.2998046875;-0.001060791015625;6.3699999839173;638;100 mA
17.4584209559217;-0.299774169921875;-0.00105743408203125;6.37999998389205;639;100 mA
17.4684209558965;-0.2998046875;-0.0010638427734375;6.3899999838668;640;100 mA
17.4784209558712;-0.299774169921875;-0.0010589599609375;6.39999998384155;641;100 mA
17.488420955846;-0.299774169921875;-0.0010595703125;6.40999998381631;642;100 mA
17.4984209558207;-0.29986572265625;-0.00106170654296875;6.41999998379106;643;100 mA
17.5084209557955;-0.299835205078125;-0.0010601806640625;6.42999998376581;644;100 mA
17.5184209557702;-0.299774169921875;-0.00106658935546875;6.43999998374056;645;100 mA
17.528420955745;-0.29974365234375;-0.00106353759765625;6.44999998371532;646;100 mA
17.5384209557197;-0.299835205078125;-0.00106353759765625;6.45999998369007;647;100 mA
17.5484209556945;-0.2998046875;-0.00106689453125;6.46999998366482;648;100 mA
17.5584209556692;-0.299835205078125;-0.0010638427734375;6.47999998363957;649;100 mA
17.568420955644;-0.29986572265625;-0.00106781005859375;6.48999998361433;650;100 mA
17.5784209556188;-0.29986572265625;-0.00106353759765625;6.49999998358908;651;100 mA
17.5884209555935;-0.2998046875;-0.00106414794921875;6.50999998356383;652;100 mA
17.5984209555683;-0.299774169921875;-0.00106781005859375;6.51999998353858;653;100 mA
17.608420955543;-0.2998046875;-0.001063232421875;6.52999998351333;654;100 mA
17.6184209555178;-0.2998046875;-0.0010687255859375;6.53999998348809;655;100 mA
17.6284209554925;-0.29986572265625;-0.0010662841796875;6.54999998346284;656;100 mA
17.6384209554673;-0.2998046875;-0.0010675048828125;6.55999998343759;657;100 mA
17.648420955442;-0.2998046875;-0.00106964111328125;6.56999998341234;658;100 mA
17.6584209554168;-0.2998046875;-0.00106781005859375;6.5799999833871;659;100 mA
17.6684209553915;-0.29986572265625;-0.00107330322265625;6.58999998336185;660;100 mA
17.6784209553663;-0.299774169921875;-0.00106903076171875;6.5999999833366;661;100 mA
17.688420955341;-0.29974365234375;-0.00107147216796875;6.60999998331135;662;100 mA
17.6984209553158;-0.2998046875;-0.00107391357421875;6.61999998328611;663;100 mA
17.7084209552905;-0.299835205078125;-0.0010736083984375;6.62999998326086;664;100 mA
17.7184209552653;-0.299774169921875;-0.0010791015625;6.63999998323561;665;100 mA
17.72842095524;-0.299835205078125;-0.0010748291015625;6.64999998321036;666;100 mA
17.7384209552148;-0.2998046875;-0.00107635498046875;6.65999998318512;667;100 mA
17.7484209551895;-0.29974365234375;-0.00108154296875;6.66999998315987;668;100 mA
17.7584209551643;-0.2998046875;-0.0010784912109375;6.67999998313462;669;100 mA
17.768420955139;-0.2998046875;-0.00108856201171875;6.68999998310937;670;100 mA
17.7784209551138;-0.299774169921875;-0.00108428955078125;6.69999998308413;671;100 mA
17.7884209550886;-0.29974365234375;-0.00108489990234375;6.70999998305888;672;100 mA
17.7984209550633;-0.299774169921875;-0.001083984375;6.71999998303363;673;100 mA
17.8084209550381;-0.29986572265625;-0.0010833740234375;6.72999998300838;674;100 mA
17.8184209550128;-0.299835205078125;-0.00108917236328125;6.73999998298314;675;100 mA
17.8284209549876;-0.299774169921875;-0.00108245849609375;6.74999998295789;676;100 mA
17.8384209549623;-0.299774169921875;-0.0010858154296875;6.75999998293264;677;100 mA
17.8484209549371;-0.2998046875;-0.0010870361328125;6.76999998290739;678;100 mA
17.8584209549118;-0.2998046875;-0.00108489990234375;6.77999998288215;679;100 mA
17.8684209548866;-0.2998046875;-0.00109161376953125;6.7899999828569;680;100 mA
17.8784209548613;-0.299835205078125;-0.00108795166015625;6.79999998283165;681;100 mA
17.8884209548361;-0.299835205078125;-0.00108612060546875;6.8099999828064;682;100 mA
17.8984209548108;-0.2998046875;-0.00109222412109375;6.81999998278116;683;100 mA
17.9084209547856;-0.2998046875;-0.0010906982421875;6.82999998275591;684;100 mA
17.9184209547603;-0.2998046875;-0.001094970703125;6.83999998273066;685;100 mA
17.9284209547351;-0.299774169921875;-0.0010888671875;6.84999998270541;686;100 mA
17.9384209547098;-0.2998046875;-0.0010919189453125;6.85999998268016;687;100 mA
17.9484209546846;-0.2998046875;-0.001094970703125;6.86999998265492;688;100 mA
17.9584209546593;-0.2998046875;-0.0010931396484375;6.87999998262967;689;100 mA
17.9684209546341;-0.299774169921875;-0.00110198974609375;6.88999998260442;690;100 mA
17.9784209546089;-0.299774169921875;-0.0010968017578125;6.89999998257917;691;100 mA
17.9884209545836;-0.2998046875;-0.00110198974609375;6.90999998255393;692;100 mA
17.9984209545584;-0.299774169921875;-0.00110626220703125;6.91999998252868;693;100 mA
18.0084209545331;-0.299835205078125;-0.001102294921875;6.92999998250343;694;100 mA
18.0184209545079;-0.2998046875;-0.0011102294921875;6.93999998247818;695;100 mA
18.0284209544826;-0.299774169921875;-0.00110626220703125;6.94999998245294;696;100 mA
18.0384209544574;-0.299835205078125;-0.0011083984375;6.95999998242769;697;100 mA
18.0484209544321;-0.299835205078125;-0.00110931396484375;6.96999998240244;698;100 mA
18.0584209544069;-0.299774169921875;-0.00110809326171875;6.97999998237719;699;100 mA
18.0684209543816;-0.299835205078125;-0.00111236572265625;6.98999998235195;700;100 mA
18.0784209543564;-0.2998046875;-0.00110870361328125;6.9999999823267;701;100 mA
18.0884209543311;-0.299835205078125;-0.0011102294921875;7.00999998230145;702;100 mA
18.0984209543059;-0.2998046875;-0.00111328125;7.0199999822762;703;100 mA
18.1084209542806;-0.299835205078125;-0.0011083984375;7.02999998225096;704;100 mA
18.1184209542554;-0.299774169921875;-0.00111480712890625;7.03999998222571;705;100 mA
18.1284209542301;-0.2998046875;-0.00110809326171875;7.04999998220046;706;100 mA
18.1384209542049;-0.299774169921875;-0.00111297607421875;7.05999998217521;707;100 mA
18.1484209541796;-0.29986572265625;-0.0011163330078125;7.06999998214997;708;100 mA
18.1584209541544;-0.29986572265625;-0.00111572265625;7.07999998212472;709;100 mA
18.1684209541291;-0.2998046875;-0.00111968994140625;7.08999998209947;710;100 mA
18.1784209541039;-0.2998046875;-0.00111724853515625;7.09999998207422;711;100 mA
18.1884209540787;-0.299774169921875;-0.00111602783203125;7.10999998204898;712;100 mA
18.1984209540534;-0.299774169921875;-0.00111907958984375;7.11999998202373;713;100 mA
18.2084209540282;-0.2998046875;-0.0011187744140625;7.12999998199848;714;100 mA
18.2184209540029;-0.299774169921875;-0.0011248779296875;7.13999998197323;715;100 mA
18.2284209539777;-0.2998046875;-0.0011224365234375;7.14999998194799;716;100 mA
18.2384209539524;-0.299774169921875;-0.0011236572265625;7.15999998192274;717;100 mA
18.2484209539272;-0.29986572265625;-0.00112884521484375;7.16999998189749;718;100 mA
18.2584209539019;-0.299835205078125;-0.00112762451171875;7.17999998187224;719;100 mA
18.2684209538767;-0.299774169921875;-0.00113311767578125;7.189999981847;720;100 mA
18.2784209538514;-0.2998046875;-0.00112579345703125;7.19999998182175;721;100 mA
18.2884209538262;-0.299774169921875;-0.0011273193359375;7.2099999817965;722;100 mA
18.2984209538009;-0.299835205078125;-0.0011309814453125;7.21999998177125;723;100 mA
18.3084209537757;-0.299713134765625;-0.0011273193359375;7.229999981746;724;100 mA
18.3184209537504;-0.299835205078125;-0.0011322021484375;7.23999998172076;725;100 mA
18.3284209537252;-0.299774169921875;-0.00112457275390625;7.24999998169551;726;100 mA
18.3384209536999;-0.2998046875;-0.00112701416015625;7.25999998167026;727;100 mA
18.3484209536747;-0.29986572265625;-0.00113189697265625;7.26999998164501;728;100 mA
18.3584209536494;-0.2998046875;-0.001129150390625;7.27999998161977;729;100 mA
18.3684209536242;-0.2998046875;-0.0011346435546875;7.28999998159452;730;100 mA
18.3784209535989;-0.29974365234375;-0.00112823486328125;7.29999998156927;731;100 mA
18.3884209535737;-0.299835205078125;-0.00113067626953125;7.30999998154402;732;100 mA
18.3984209535485;-0.299835205078125;-0.00113372802734375;7.31999998151878;733;100 mA
18.4084209535232;-0.2998046875;-0.00113006591796875;7.32999998149353;734;100 mA
18.418420953498;-0.29986572265625;-0.00113555908203125;7.33999998146828;735;100 mA
18.4284209534727;-0.29974365234375;-0.001131591796875;7.34999998144303;736;100 mA
18.4384209534475;-0.2998046875;-0.00113311767578125;7.35999998141779;737;100 mA
18.4484209534222;-0.2998046875;-0.0011358642578125;7.36999998139254;738;100 mA
18.458420953397;-0.299774169921875;-0.00113433837890625;7.37999998136729;739;100 mA
18.4684209533717;-0.299774169921875;-0.0011419677734375;7.38999998134204;740;100 mA
18.4784209533465;-0.2998046875;-0.00113739013671875;7.3999999813168;741;100 mA
18.4884209533212;-0.299774169921875;-0.00113922119140625;7.40999998129155;742;100 mA
18.498420953296;-0.29974365234375;-0.0011431884765625;7.4199999812663;743;100 mA
18.5084209532707;-0.299774169921875;-0.00113983154296875;7.42999998124105;744;100 mA
18.5184209532455;-0.2998046875;-0.001143798828125;7.43999998121581;745;100 mA
18.5284209532202;-0.299774169921875;-0.0011370849609375;7.44999998119056;746;100 mA
18.538420953195;-0.2998046875;-0.00113739013671875;7.45999998116531;747;100 mA
18.5484209531697;-0.29986572265625;-0.00113739013671875;7.46999998114006;748;100 mA
18.5584209531445;-0.2998046875;-0.0011346435546875;7.47999998111482;749;100 mA
18.5684209531192;-0.299835205078125;-0.00114044189453125;7.48999998108957;750;100 mA
18.578420953094;-0.299774169921875;-0.001134033203125;7.49999998106432;751;100 mA
18.5884209530687;-0.299774169921875;-0.00113677978515625;7.50999998103907;752;100 mA
18.5984209530435;-0.299774169921875;-0.00113861083984375;7.51999998101383;753;100 mA
18.6084209530183;-0.2998046875;-0.00113433837890625;7.52999998098858;754;100 mA
18.618420952993;-0.29986572265625;-0.00113800048828125;7.53999998096333;755;100 mA
18.6284209529678;-0.299774169921875;-0.0011322021484375;7.54999998093808;756;100 mA
18.6384209529425;-0.2998046875;-0.00113494873046875;7.55999998091283;757;100 mA
18.6484209529173;-0.29986572265625;-0.00112579345703125;7.56999998088759;758;100 mA
18.658420952892;-0.299774169921875;-0.0011273193359375;7.57999998086234;759;100 mA
18.6684209528668;-0.2998046875;-0.0011383056640625;7.58999998083709;760;100 mA
18.6784209528415;-0.299835205078125;-0.00113800048828125;7.59999998081184;761;100 mA
18.6884209528163;-0.2998046875;-0.00113555908203125;7.6099999807866;762;100 mA
18.698420952791;-0.2998046875;-0.0011383056640625;7.61999998076135;763;100 mA
18.7084209527658;-0.29986572265625;-0.00114501953125;7.6299999807361;764;100 mA
18.7184209527405;-0.299774169921875;-0.00114471435546875;7.63999998071085;765;100 mA
18.7284209527153;-0.2998046875;-0.00113494873046875;7.64999998068561;766;100 mA
18.73842095269;-0.299774169921875;-0.00113922119140625;7.65999998066036;767;100 mA
18.7484209526648;-0.299835205078125;-0.00114166259765625;7.66999998063511;768;100 mA
18.7584209526395;-0.299774169921875;-0.00113739013671875;7.67999998060986;769;100 mA
18.7684209526143;-0.299774169921875;-0.0011395263671875;7.68999998058462;770;100 mA
18.778420952589;-0.299835205078125;-0.00113250732421875;7.69999998055937;771;100 mA
18.7884209525638;-0.2998046875;-0.0011346435546875;7.70999998053412;772;100 mA
18.7984209525385;-0.2998046875;-0.0011383056640625;7.71999998050887;773;100 mA
18.8084209525133;-0.299835205078125;-0.00113372802734375;7.72999998048363;774;100 mA
18.8184209524881;-0.2998046875;-0.00114044189453125;7.73999998045838;775;100 mA
18.8284209524628;-0.2998046875;-0.001134033203125;7.74999998043313;776;100 mA
18.8384209524376;-0.2998046875;-0.001134033203125;7.75999998040788;777;100 mA
18.8484209524123;-0.299835205078125;-0.00113800048828125;7.76999998038264;778;100 mA
18.8584209523871;-0.2998046875;-0.0011334228515625;7.77999998035739;779;100 mA
18.8684209523618;-0.299835205078125;-0.0011383056640625;7.78999998033214;780;100 mA
18.8784209523366;-0.299835205078125;-0.00113037109375;7.79999998030689;781;100 mA
18.8884209523113;-0.29986572265625;-0.00113128662109375;7.80999998028165;782;100 mA
18.8984209522861;-0.299774169921875;-0.0011358642578125;7.8199999802564;783;100 mA
18.9084209522608;-0.2998046875;-0.001131591796875;7.82999998023115;784;100 mA
18.9184209522356;-0.29974365234375;-0.00113616943359375;7.8399999802059;785;100 mA
18.9284209522103;-0.2998046875;-0.00112762451171875;7.84999998018066;786;100 mA
18.9384209521851;-0.299835205078125;-0.0011297607421875;7.85999998015541;787;100 mA
18.9484209521598;-0.29974365234375;-0.00113128662109375;7.86999998013016;788;100 mA
18.9584209521346;-0.299774169921875;-0.00112945556640625;7.87999998010491;789;100 mA
18.9684209521093;-0.299835205078125;-0.00113494873046875;7.88999998007966;790;100 mA
18.9784209520841;-0.2998046875;-0.00112884521484375;7.89999998005442;791;100 mA
18.9884209520588;-0.29974365234375;-0.00113006591796875;7.90999998002917;792;100 mA
18.9984209520336;-0.2998046875;-0.001131591796875;7.91999998000392;793;100 mA
19.0084209520084;-0.2998046875;-0.00112640380859375;7.92999997997867;794;100 mA
19.0184209519831;-0.29974365234375;-0.00113250732421875;7.93999997995343;795;100 mA
19.0284209519579;-0.299835205078125;-0.00112457275390625;7.94999997992818;796;100 mA
19.0384209519326;-0.2998046875;-0.00112579345703125;7.95999997990293;797;100 mA
19.0484209519074;-0.299774169921875;-0.0011273193359375;7.96999997987768;798;100 mA
19.0584209518821;-0.2998046875;-0.00112579345703125;7.97999997985244;799;100 mA
19.0684209518569;-0.299774169921875;-0.00112884521484375;7.98999997982719;800;100 mA
19.0784209518316;-0.29986572265625;-0.00112091064453125;7.99999997980194;801;100 mA
19.0884209518064;-0.299774169921875;-0.00112274169921875;8.00999997977669;802;100 mA
19.0984209517811;-0.2998046875;-0.0011248779296875;8.01999997975145;803;100 mA
19.1084209517559;-0.299835205078125;-0.001123046875;8.0299999797262;804;100 mA
19.1184209517306;-0.29986572265625;-0.00112548828125;8.03999997970095;805;100 mA
19.1284209517054;-0.2998046875;-0.00111663818359375;8.0499999796757;806;100 mA
19.1384209516801;-0.299835205078125;-0.00112091064453125;8.05999997965046;807;100 mA
19.1484209516549;-0.2998046875;-0.0011212158203125;8.06999997962521;808;100 mA
19.1584209516296;-0.299835205078125;-0.00112091064453125;8.07999997959996;809;100 mA
19.1684209516044;-0.299774169921875;-0.00112396240234375;8.08999997957471;810;100 mA
19.1784209515791;-0.2998046875;-0.0011163330078125;8.09999997954947;811;100 mA
19.1884209515539;-0.299774169921875;-0.00112213134765625;8.10999997952422;812;100 mA
19.1984209515286;-0.299835205078125;-0.00112579345703125;8.11999997949897;813;100 mA
19.2084209515034;-0.299774169921875;-0.00112396240234375;8.12999997947372;814;100 mA
19.2184209514782;-0.299835205078125;-0.00112823486328125;8.13999997944848;815;100 mA
19.2284209514529;-0.299774169921875;-0.00112060546875;8.14999997942323;816;100 mA
19.2384209514277;-0.2998046875;-0.0011199951171875;8.15999997939798;817;100 mA
19.2484209514024;-0.299774169921875;-0.0011199951171875;8.16999997937273;818;100 mA
19.2584209513772;-0.299835205078125;-0.0011199951171875;8.17999997934749;819;100 mA
19.2684209513519;-0.299774169921875;-0.0011236572265625;8.18999997932224;820;100 mA
19.2784209513267;-0.29974365234375;-0.0011175537109375;8.19999997929699;821;100 mA
19.2884209513014;-0.2998046875;-0.0011181640625;8.20999997927174;822;100 mA
19.2984209512762;-0.299774169921875;-0.001121826171875;8.2199999792465;823;100 mA
19.3084209512509;-0.29986572265625;-0.00111358642578125;8.22999997922125;824;100 mA
19.3184209512257;-0.2998046875;-0.0011224365234375;8.239999979196;825;100 mA
19.3284209512004;-0.299835205078125;-0.0011175537109375;8.24999997917075;826;100 mA
19.3384209511752;-0.2998046875;-0.00111907958984375;8.2599999791455;827;100 mA
19.3484209511499;-0.2998046875;-0.00111968994140625;8.26999997912026;828;100 mA
19.3584209511247;-0.29986572265625;-0.0011163330078125;8.27999997909501;829;100 mA
19.3684209510994;-0.299774169921875;-0.00112152099609375;8.28999997906976;830;100 mA
19.3784209510742;-0.29974365234375;-0.00110809326171875;8.29999997904451;831;100 mA
19.3884209510489;-0.2998046875;-0.00111328125;8.30999997901927;832;100 mA
19.3984209510237;-0.299774169921875;-0.00111602783203125;8.31999997899402;833;100 mA
19.4084209509984;-0.2998046875;-0.0011126708984375;8.32999997896877;834;100 mA
19.4184209509732;-0.299774169921875;-0.001119384765625;8.33999997894352;835;100 mA
19.428420950948;-0.299835205078125;-0.00111419677734375;8.34999997891828;836;100 mA
19.4384209509227;-0.29974365234375;-0.00111724853515625;8.35999997889303;837;100 mA
19.4484209508975;-0.299835205078125;-0.00111572265625;8.36999997886778;838;100 mA
19.4584209508722;-0.29986572265625;-0.0011163330078125;8.37999997884253;839;100 mA
19.468420950847;-0.299774169921875;-0.00112030029296875;8.38999997881729;840;100 mA
19.4784209508217;-0.2998046875;-0.00111175537109375;8.39999997879204;841;100 mA
19.4884209507965;-0.299896240234375;-0.0011114501953125;8.40999997876679;842;100 mA
19.4984209507712;-0.299774169921875;-0.0011175537109375;8.41999997874154;843;100 mA
19.508420950746;-0.2998046875;-0.0011126708984375;8.4299999787163;844;100 mA
19.5184209507207;-0.2998046875;-0.0011181640625;8.43999997869105;845;100 mA
19.5284209506955;-0.2998046875;-0.00111236572265625;8.4499999786658;846;100 mA
19.5384209506702;-0.299835205078125;-0.00111328125;8.45999997864055;847;100 mA
19.548420950645;-0.299835205078125;-0.00111572265625;8.46999997861531;848;100 mA
19.5584209506197;-0.299774169921875;-0.001112060546875;8.47999997859006;849;100 mA
19.5684209505945;-0.2998046875;-0.00111541748046875;8.48999997856481;850;100 mA
19.5784209505692;-0.299835205078125;-0.00110870361328125;8.49999997853956;851;100 mA
19.588420950544;-0.299835205078125;-0.00111114501953125;8.50999997851432;852;100 mA
19.5984209505187;-0.29974365234375;-0.00111328125;8.51999997848907;853;100 mA
19.6084209504935;-0.2998046875;-0.001112060546875;8.52999997846382;854;100 mA
19.6184209504682;-0.2998046875;-0.0011151123046875;8.53999997843857;855;100 mA
19.628420950443;-0.29986572265625;-0.00110809326171875;8.54999997841333;856;100 mA
19.6384209504178;-0.2998046875;-0.0011102294921875;8.55999997838808;857;100 mA
19.6484209503925;-0.299835205078125;-0.00111114501953125;8.56999997836283;858;100 mA
19.6584209503673;-0.299835205078125;-0.00110931396484375;8.57999997833758;859;100 mA
19.668420950342;-0.299774169921875;-0.00111419677734375;8.58999997831233;860;100 mA
19.6784209503168;-0.299835205078125;-0.001109619140625;8.59999997828709;861;100 mA
19.6884209502915;-0.299835205078125;-0.00111541748046875;8.60999997826184;862;100 mA
19.6984209502663;-0.299774169921875;-0.00111602783203125;8.61999997823659;863;100 mA
19.708420950241;-0.29986572265625;-0.001112060546875;8.62999997821134;864;100 mA
19.7184209502158;-0.299835205078125;-0.00111572265625;8.6399999781861;865;100 mA
19.7284209501905;-0.29974365234375;-0.00110809326171875;8.64999997816085;866;100 mA
19.7384209501653;-0.299835205078125;-0.00111175537109375;8.6599999781356;867;100 mA
19.74842095014;-0.2998046875;-0.00110992431640625;8.66999997811035;868;100 mA
19.7584209501148;-0.2998046875;-0.00111053466796875;8.67999997808511;869;100 mA
19.7684209500895;-0.299835205078125;-0.00111358642578125;8.68999997805986;870;100 mA
19.7784209500643;-0.2998046875;-0.0011065673828125;8.69999997803461;871;100 mA
19.788420950039;-0.299835205078125;-0.00110870361328125;8.70999997800936;872;100 mA
19.7984209500138;-0.299835205078125;-0.0011114501953125;8.71999997798412;873;100 mA
19.8084209499885;-0.29986572265625;-0.001104736328125;8.72999997795887;874;100 mA
19.8184209499633;-0.299774169921875;-0.00110992431640625;8.73999997793362;875;100 mA
19.828420949938;-0.299774169921875;-0.00110260009765625;8.74999997790837;876;100 mA
19.8384209499128;-0.29986572265625;-0.00110687255859375;8.75999997788313;877;100 mA
19.8484209498876;-0.2998046875;-0.00110809326171875;8.76999997785788;878;100 mA
19.8584209498623;-0.2998046875;-0.001104736328125;8.77999997783263;879;100 mA
19.8684209498371;-0.2998046875;-0.00110992431640625;8.78999997780738;880;100 mA
19.8784209498118;-0.299774169921875;-0.00110382080078125;8.79999997778214;881;100 mA
19.8884209497866;-0.2998046875;-0.00110687255859375;8.80999997775689;882;100 mA
19.8984209497613;-0.299835205078125;-0.001109619140625;8.81999997773164;883;100 mA
19.9084209497361;-0.2998046875;-0.0011077880859375;8.82999997770639;884;100 mA
19.9184209497108;-0.299835205078125;-0.00111358642578125;8.83999997768115;885;100 mA
19.9284209496856;-0.299774169921875;-0.00110595703125;8.8499999776559;886;100 mA
19.9384209496603;-0.2998046875;-0.0011077880859375;8.85999997763065;887;100 mA
19.9484209496351;-0.2998046875;-0.00110748291015625;8.8699999776054;888;100 mA
19.9584209496098;-0.299774169921875;-0.00110595703125;8.87999997758016;889;100 mA
19.9684209495846;-0.2998046875;-0.0011090087890625;8.88999997755491;890;100 mA
19.9784209495593;-0.2998046875;-0.00110260009765625;8.89999997752966;891;100 mA
19.9884209495341;-0.299774169921875;-0.00110321044921875;8.90999997750441;892;100 mA
19.9984209495088;-0.299774169921875;-0.001107177734375;8.91999997747916;893;100 mA
20.0084209494836;-0.2998046875;-0.0011029052734375;8.92999997745392;894;100 mA
20.0184209494583;-0.299774169921875;-0.00110748291015625;8.93999997742867;895;100 mA
20.0284209494331;-0.29986572265625;-0.0011004638671875;8.94999997740342;896;100 mA
20.0384209494079;-0.299774169921875;-0.00110443115234375;8.95999997737817;897;100 mA
20.0484209493826;-0.2998046875;-0.00110321044921875;8.96999997735293;898;100 mA
20.0584209493574;-0.2998046875;-0.00110260009765625;8.97999997732768;899;100 mA
20.0684209493321;-0.299774169921875;-0.00110565185546875;8.98999997730243;900;100 mA
20.0784209493069;-0.299774169921875;-0.00110015869140625;8.99999997727718;901;100 mA
20.0884209492816;-0.299774169921875;-0.00110076904296875;9.00999997725194;902;100 mA
20.0984209492564;-0.2998046875;-0.00110198974609375;9.01999997722669;903;100 mA
20.1084209492311;-0.299774169921875;-0.001099853515625;9.02999997720144;904;100 mA
20.1184209492059;-0.299835205078125;-0.00110443115234375;9.03999997717619;905;100 mA
20.1284209491806;-0.299774169921875;-0.0011004638671875;9.04999997715095;906;100 mA
20.1384209491554;-0.2998046875;-0.001107177734375;9.0599999771257;907;100 mA
20.1484209491301;-0.2998046875;-0.00110870361328125;9.06999997710045;908;100 mA
20.1584209491049;-0.29974365234375;-0.00110565185546875;9.0799999770752;909;100 mA
20.1684209490796;-0.2998046875;-0.0011102294921875;9.08999997704996;910;100 mA
20.1784209490544;-0.299774169921875;-0.00110626220703125;9.09999997702471;911;100 mA
20.1884209490291;-0.29974365234375;-0.00110992431640625;9.10999997699946;912;100 mA
20.1984209490039;-0.299774169921875;-0.0011083984375;9.11999997697421;913;100 mA
20.2084209489786;-0.299835205078125;-0.00110443115234375;9.12999997694897;914;100 mA
20.2184209489534;-0.29986572265625;-0.00111083984375;9.13999997692372;915;100 mA
20.2284209489281;-0.29986572265625;-0.0011041259765625;9.14999997689847;916;100 mA
20.2384209489029;-0.299835205078125;-0.00110382080078125;9.15999997687322;917;100 mA
20.2484209488777;-0.2998046875;-0.00110382080078125;9.16999997684798;918;100 mA
20.2584209488524;-0.2998046875;-0.001102294921875;9.17999997682273;919;100 mA
20.2684209488272;-0.299835205078125;-0.001109619140625;9.18999997679748;920;100 mA
20.2784209488019;-0.2998046875;-0.00110076904296875;9.19999997677223;921;100 mA
20.2884209487767;-0.2998046875;-0.001104736328125;9.20999997674699;922;100 mA
20.2984209487514;-0.2998046875;-0.00110595703125;9.21999997672174;923;100 mA
20.3084209487262;-0.29986572265625;-0.001103515625;9.22999997669649;924;100 mA
20.3184209487009;-0.299774169921875;-0.00110687255859375;9.23999997667124;925;100 mA
20.3284209486757;-0.2998046875;-0.00110198974609375;9.249999976646;926;100 mA
20.3384209486504;-0.29986572265625;-0.00110321044921875;9.25999997662075;927;100 mA
20.3484209486252;-0.29986572265625;-0.00110565185546875;9.2699999765955;928;100 mA
20.3584209485999;-0.2998046875;-0.00110382080078125;9.27999997657025;929;100 mA
20.3684209485747;-0.2998046875;-0.00110809326171875;9.289999976545;930;100 mA
20.3784209485494;-0.29986572265625;-0.0011029052734375;9.29999997651976;931;100 mA
20.3884209485242;-0.29986572265625;-0.00111053466796875;9.30999997649451;932;100 mA
20.3984209484989;-0.2998046875;-0.00111053466796875;9.31999997646926;933;100 mA
20.4084209484737;-0.29974365234375;-0.0011090087890625;9.32999997644401;934;100 mA
20.4184209484484;-0.2998046875;-0.00111328125;9.33999997641877;935;100 mA
20.4284209484232;-0.299835205078125;-0.001107177734375;9.34999997639352;936;100 mA
20.4384209483979;-0.29986572265625;-0.0011090087890625;9.35999997636827;937;100 mA
20.4484209483727;-0.2998046875;-0.00110870361328125;9.36999997634302;938;100 mA
20.4584209483475;-0.299774169921875;-0.001107177734375;9.37999997631778;939;100 mA
20.4684209483222;-0.2998046875;-0.00110931396484375;9.38999997629253;940;100 mA
20.478420948297;-0.299835205078125;-0.001103515625;9.39999997626728;941;100 mA
20.4884209482717;-0.299774169921875;-0.00110809326171875;9.40999997624203;942;100 mA
20.4984209482465;-0.299774169921875;-0.00110809326171875;9.41999997621679;943;100 mA
20.5084209482212;-0.299835205078125;-0.00110748291015625;9.42999997619154;944;100 mA
20.518420948196;-0.299774169921875;-0.00111083984375;9.43999997616629;945;100 mA
20.5284209481707;-0.299774169921875;-0.00110260009765625;9.44999997614104;946;100 mA
20.5384209481455;-0.299835205078125;-0.0011090087890625;9.4599999761158;947;100 mA
20.5484209481202;-0.29986572265625;-0.00110870361328125;9.46999997609055;948;100 mA
20.558420948095;-0.2998046875;-0.00110626220703125;9.4799999760653;949;100 mA
20.5684209480697;-0.299835205078125;-0.00110931396484375;9.48999997604005;950;100 mA
20.5784209480445;-0.2998046875;-0.00110321044921875;9.49999997601481;951;100 mA
20.5884209480192;-0.299835205078125;-0.0011053466796875;9.50999997598956;952;100 mA
20.598420947994;-0.2998046875;-0.00110595703125;9.51999997596431;953;100 mA
20.6084209479687;-0.299774169921875;-0.001103515625;9.52999997593906;954;100 mA
20.6184209479435;-0.2998046875;-0.00110687255859375;9.53999997591382;955;100 mA
20.6284209479182;-0.29986572265625;-0.00110443115234375;9.54999997588857;956;100 mA
20.638420947893;-0.299835205078125;-0.00110565185546875;9.55999997586332;957;100 mA
20.6484209478677;-0.2998046875;-0.0011053466796875;9.56999997583807;958;100 mA
20.6584209478425;-0.29986572265625;-0.00110626220703125;9.57999997581283;959;100 mA
20.6684209478173;-0.2998046875;-0.00110931396484375;9.58999997578758;960;100 mA
20.678420947792;-0.2998046875;-0.00110198974609375;9.59999997576233;961;100 mA
20.6884209477668;-0.299835205078125;-0.00110595703125;9.60999997573708;962;100 mA
20.6984209477415;-0.2998046875;-0.00110870361328125;9.61999997571183;963;100 mA
20.7084209477163;-0.299774169921875;-0.00110565185546875;9.62999997568659;964;100 mA
20.718420947691;-0.29986572265625;-0.0011090087890625;9.63999997566134;965;100 mA
20.7284209476658;-0.29986572265625;-0.00110260009765625;9.64999997563609;966;100 mA
20.7384209476405;-0.299835205078125;-0.0011053466796875;9.65999997561084;967;100 mA
20.7484209476153;-0.2998046875;-0.001103515625;9.6699999755856;968;100 mA
20.75842094759;-0.299774169921875;-0.00110198974609375;9.67999997556035;969;100 mA
20.7684209475648;-0.29974365234375;-0.0011077880859375;9.6899999755351;970;100 mA
20.7784209475395;-0.2998046875;-0.00110107421875;9.69999997550985;971;100 mA
20.7884209475143;-0.299774169921875;-0.0011041259765625;9.70999997548461;972;100 mA
20.798420947489;-0.2998046875;-0.001104736328125;9.71999997545936;973;100 mA
20.8084209474638;-0.299774169921875;-0.001102294921875;9.72999997543411;974;100 mA
20.8184209474385;-0.29986572265625;-0.001107177734375;9.73999997540886;975;100 mA
20.8284209474133;-0.299774169921875;-0.00110443115234375;9.74999997538362;976;100 mA
20.838420947388;-0.299774169921875;-0.00110687255859375;9.75999997535837;977;100 mA
20.8484209473628;-0.2998046875;-0.0011083984375;9.76999997533312;978;100 mA
20.8584209473375;-0.299835205078125;-0.00110504150390625;9.77999997530787;979;100 mA
20.8684209473123;-0.29986572265625;-0.00110870361328125;9.78999997528263;980;100 mA
20.8784209472871;-0.299835205078125;-0.0011041259765625;9.79999997525738;981;100 mA
20.8884209472618;-0.2998046875;-0.00110870361328125;9.80999997523213;982;100 mA
20.8984209472366;-0.29986572265625;-0.0011126708984375;9.81999997520688;983;100 mA
20.9084209472113;-0.299835205078125;-0.00110992431640625;9.82999997518164;984;100 mA
20.9184209471861;-0.2998046875;-0.001114501953125;9.83999997515639;985;100 mA
20.9284209471608;-0.299774169921875;-0.0011077880859375;9.84999997513114;986;100 mA
20.9384209471356;-0.29986572265625;-0.00111083984375;9.85999997510589;987;100 mA
20.9484209471103;-0.299835205078125;-0.00111175537109375;9.86999997508065;988;100 mA
20.9584209470851;-0.2998046875;-0.00110809326171875;9.8799999750554;989;100 mA
20.9684209470598;-0.2998046875;-0.0011151123046875;9.88999997503015;990;100 mA
20.9784209470346;-0.29986572265625;-0.00110809326171875;9.8999999750049;991;100 mA
20.9884209470093;-0.299835205078125;-0.00111053466796875;9.90999997497966;992;100 mA
20.9984209469841;-0.299835205078125;-0.00111358642578125;9.91999997495441;993;100 mA
21.0084209469588;-0.2998046875;-0.0011114501953125;9.92999997492916;994;100 mA
21.0184209469336;-0.299896240234375;-0.00111358642578125;9.93999997490391;995;100 mA
21.0284209469083;-0.2998046875;-0.00111083984375;9.94999997487866;996;100 mA
21.0384209468831;-0.2998046875;-0.0011138916015625;9.95999997485342;997;100 mA
21.0484209468578;-0.299835205078125;-0.00111541748046875;9.96999997482817;998;100 mA
21.0584209468326;-0.2998046875;-0.00111328125;9.97999997480292;999;100 mA
21.0684209468074;-0.29974365234375;-0.00111907958984375;9.98999997477767;1000;100 mA
