Time (s);WE(1).Potential (V);WE(1).Current (A);Corrected time (s);Index;Current range
21.6827039452564;-0.199859619140625;-0.000140991210937499;0;1;100 mA
21.6927039452312;-0.199920654296875;-0.0004168701171875;0.00999999997475243;2;100 mA
21.7027039452059;-0.199951171875;-0.0005462646484375;0.0199999999495049;3;100 mA
21.7127039451807;-0.199920654296875;-0.000634765625;0.0299999999242573;4;100 mA
21.7227039451554;-0.199920654296875;-0.000689086914062501;0.0399999998990097;5;100 mA
21.7327039451302;-0.199951171875;-0.0007293701171875;0.0499999998737621;6;100 mA
21.7427039451049;-0.199951171875;-0.000765380859375001;0.0599999998485146;7;100 mA
21.7527039450797;-0.199981689453125;-0.00078765869140625;0.069999999823267;8;100 mA
21.7627039450545;-0.19989013671875;-0.00081634521484375;0.0799999997980194;9;100 mA
21.7727039450292;-0.199920654296875;-0.000834045410156251;0.0899999997727718;10;100 mA
21.782703945004;-0.199920654296875;-0.000848388671875;0.0999999997475243;11;100 mA
21.7927039449787;-0.199981689453125;-0.00086639404296875;0.109999999722277;12;100 mA
21.8027039449535;-0.199920654296875;-0.00087310791015625;0.119999999697029;13;100 mA
21.8127039449282;-0.199920654296875;-0.0008892822265625;0.129999999671782;14;100 mA
21.822703944903;-0.199920654296875;-0.0009002685546875;0.139999999646534;15;100 mA
21.8327039448777;-0.199920654296875;-0.0009075927734375;0.149999999621286;16;100 mA
21.8427039448525;-0.19989013671875;-0.000919189453124999;0.159999999596039;17;100 mA
21.8527039448272;-0.199981689453125;-0.000919189453124999;0.169999999570791;18;100 mA
21.862703944802;-0.199859619140625;-0.000933227539062501;0.179999999545544;19;100 mA
21.8727039447767;-0.199920654296875;-0.0009381103515625;0.189999999520296;20;100 mA
21.8827039447515;-0.199920654296875;-0.000940551757812499;0.199999999495049;21;100 mA
21.8927039447262;-0.19989013671875;-0.00095062255859375;0.209999999469801;22;100 mA
21.902703944701;-0.19989013671875;-0.000948181152343749;0.219999999444553;23;100 mA
21.9127039446757;-0.199920654296875;-0.000957336425781249;0.229999999419306;24;100 mA
21.9227039446505;-0.199920654296875;-0.000962219238281251;0.239999999394058;25;100 mA
21.9327039446252;-0.199920654296875;-0.00096282958984375;0.249999999368811;26;100 mA
21.9427039446;-0.199859619140625;-0.000972595214843749;0.259999999343563;27;100 mA
21.9527039445748;-0.199951171875;-0.0009674072265625;0.269999999318316;28;100 mA
21.9627039445495;-0.19989013671875;-0.00097381591796875;0.279999999293068;29;100 mA
21.9727039445243;-0.199951171875;-0.00097625732421875;0.28999999926782;30;100 mA
21.982703944499;-0.19989013671875;-0.00097381591796875;0.299999999242573;31;100 mA
21.9927039444738;-0.19989013671875;-0.00098419189453125;0.309999999217325;32;100 mA
22.0027039444485;-0.19989013671875;-0.00098297119140625;0.319999999192078;33;100 mA
22.0127039444233;-0.199920654296875;-0.000989685058593751;0.32999999916683;34;100 mA
22.022703944398;-0.19989013671875;-0.000994262695312501;0.339999999141583;35;100 mA
22.0327039443728;-0.199920654296875;-0.00099853515625;0.349999999116335;36;100 mA
22.0427039443475;-0.199859619140625;-0.0010028076171875;0.359999999091087;37;100 mA
22.0527039443223;-0.199859619140625;-0.00099853515625;0.36999999906584;38;100 mA
22.062703944297;-0.199951171875;-0.00100616455078125;0.379999999040592;39;100 mA
22.0727039442718;-0.199951171875;-0.00100860595703125;0.389999999015345;40;100 mA
22.0827039442465;-0.19989013671875;-0.00101043701171875;0.399999998990097;41;100 mA
22.0927039442213;-0.19989013671875;-0.0010162353515625;0.40999999896485;42;100 mA
22.102703944196;-0.19989013671875;-0.00101165771484375;0.419999998939602;43;100 mA
22.1127039441708;-0.199951171875;-0.00101806640625;0.429999998914354;44;100 mA
22.1227039441455;-0.199859619140625;-0.00101806640625;0.439999998889107;45;100 mA
22.1327039441203;-0.19989013671875;-0.0010186767578125;0.449999998863859;46;100 mA
22.142703944095;-0.199951171875;-0.0010235595703125;0.459999998838612;47;100 mA
22.1527039440698;-0.199920654296875;-0.001015625;0.469999998813364;48;100 mA
22.1627039440446;-0.19989013671875;-0.00102203369140625;0.479999998788116;49;100 mA
22.1727039440193;-0.19989013671875;-0.001024169921875;0.489999998762869;50;100 mA
22.1827039439941;-0.199951171875;-0.00102081298828125;0.499999998737621;51;100 mA
22.1927039439688;-0.199920654296875;-0.00102508544921875;0.509999998712374;52;100 mA
22.2027039439436;-0.199859619140625;-0.00102081298828125;0.519999998687126;53;100 mA
22.2127039439183;-0.199859619140625;-0.00102783203125;0.529999998661879;54;100 mA
22.2227039438931;-0.199920654296875;-0.00102752685546875;0.539999998636631;55;100 mA
22.2327039438678;-0.19989013671875;-0.001026611328125;0.549999998611383;56;100 mA
22.2427039438426;-0.199920654296875;-0.0010302734375;0.559999998586136;57;100 mA
22.2527039438173;-0.199920654296875;-0.00102783203125;0.569999998560888;58;100 mA
22.2627039437921;-0.19989013671875;-0.00103515625;0.579999998535641;59;100 mA
22.2727039437668;-0.199920654296875;-0.00103515625;0.589999998510393;60;100 mA
22.2827039437416;-0.199920654296875;-0.00103546142578125;0.599999998485146;61;100 mA
22.2927039437163;-0.19989013671875;-0.00104034423828125;0.609999998459898;62;100 mA
22.3027039436911;-0.1998291015625;-0.001036376953125;0.61999999843465;63;100 mA
22.3127039436658;-0.19989013671875;-0.00104095458984375;0.629999998409403;64;100 mA
22.3227039436406;-0.19989013671875;-0.00104278564453125;0.639999998384155;65;100 mA
22.3327039436153;-0.199920654296875;-0.00104095458984375;0.649999998358908;66;100 mA
22.3427039435901;-0.19989013671875;-0.001046142578125;0.65999999833366;67;100 mA
22.3527039435648;-0.1998291015625;-0.0010400390625;0.669999998308413;68;100 mA
22.3627039435396;-0.199951171875;-0.00104400634765625;0.679999998283165;69;100 mA
22.3727039435144;-0.19989013671875;-0.00104583740234375;0.689999998257917;70;100 mA
22.3827039434891;-0.19989013671875;-0.0010418701171875;0.69999999823267;71;100 mA
22.3927039434639;-0.199920654296875;-0.00104583740234375;0.709999998207422;72;100 mA
22.4027039434386;-0.1998291015625;-0.0010400390625;0.719999998182175;73;100 mA
22.4127039434134;-0.199859619140625;-0.0010418701171875;0.729999998156927;74;100 mA
22.4227039433881;-0.199859619140625;-0.00104461669921875;0.73999999813168;75;100 mA
22.4327039433629;-0.19989013671875;-0.00104217529296875;0.749999998106432;76;100 mA
22.4427039433376;-0.199859619140625;-0.001044921875;0.759999998081184;77;100 mA
22.4527039433124;-0.19989013671875;-0.0010394287109375;0.769999998055937;78;100 mA
22.4627039432871;-0.199920654296875;-0.00104583740234375;0.779999998030689;79;100 mA
22.4727039432619;-0.19989013671875;-0.0010467529296875;0.789999998005442;80;100 mA
22.4827039432366;-0.199981689453125;-0.001046142578125;0.799999997980194;81;100 mA
22.4927039432114;-0.199951171875;-0.00105010986328125;0.809999997954947;82;100 mA
22.5027039431861;-0.199951171875;-0.00104278564453125;0.819999997929699;83;100 mA
22.5127039431609;-0.199859619140625;-0.00105072021484375;0.829999997904451;84;100 mA
22.5227039431356;-0.19989013671875;-0.0010479736328125;0.839999997879204;85;100 mA
22.5327039431104;-0.19989013671875;-0.0010467529296875;0.849999997853956;86;100 mA
22.5427039430851;-0.19989013671875;-0.00105010986328125;0.859999997828709;87;100 mA
22.5527039430599;-0.199920654296875;-0.0010443115234375;0.869999997803461;88;100 mA
22.5627039430346;-0.199920654296875;-0.0010504150390625;0.879999997778214;89;100 mA
22.5727039430094;-0.199920654296875;-0.00104888916015625;0.889999997752966;90;100 mA
22.5827039429842;-0.19989013671875;-0.00104766845703125;0.899999997727718;91;100 mA
22.5927039429589;-0.199920654296875;-0.00105010986328125;0.909999997702471;92;100 mA
22.6027039429337;-0.199920654296875;-0.00104522705078125;0.919999997677223;93;100 mA
22.6127039429084;-0.199920654296875;-0.0010516357421875;0.929999997651976;94;100 mA
22.6227039428832;-0.199951171875;-0.00104705810546875;0.939999997626728;95;100 mA
22.6327039428579;-0.1998291015625;-0.0010479736328125;0.949999997601481;96;100 mA
22.6427039428327;-0.199920654296875;-0.001048583984375;0.959999997576233;97;100 mA
22.6527039428074;-0.19989013671875;-0.00104461669921875;0.969999997550985;98;100 mA
22.6627039427822;-0.19989013671875;-0.0010498046875;0.979999997525738;99;100 mA
22.6727039427569;-0.199920654296875;-0.00104766845703125;0.98999999750049;100;100 mA
22.6827039427317;-0.199920654296875;-0.00104522705078125;0.999999997475243;101;100 mA
22.6927039427064;-0.19989013671875;-0.0010504150390625;1.00999999745;102;100 mA
22.7027039426812;-0.19989013671875;-0.0010430908203125;1.01999999742475;103;100 mA
22.7127039426559;-0.199920654296875;-0.0010491943359375;1.0299999973995;104;100 mA
22.7227039426307;-0.199951171875;-0.0010498046875;1.03999999737425;105;100 mA
22.7327039426054;-0.19989013671875;-0.00104766845703125;1.049999997349;106;100 mA
22.7427039425802;-0.199951171875;-0.001051025390625;1.05999999732376;107;100 mA
22.7527039425549;-0.199920654296875;-0.00104705810546875;1.06999999729851;108;100 mA
22.7627039425297;-0.19989013671875;-0.0010516357421875;1.07999999727326;109;100 mA
22.7727039425044;-0.199859619140625;-0.001051025390625;1.08999999724801;110;100 mA
22.7827039424792;-0.19989013671875;-0.00104949951171875;1.09999999722277;111;100 mA
22.792703942454;-0.199951171875;-0.0010528564453125;1.10999999719752;112;100 mA
22.8027039424287;-0.199981689453125;-0.0010491943359375;1.11999999717227;113;100 mA
22.8127039424035;-0.199920654296875;-0.00105621337890625;1.12999999714702;114;100 mA
22.8227039423782;-0.199920654296875;-0.00105377197265625;1.13999999712178;115;100 mA
22.832703942353;-0.199859619140625;-0.00105224609375;1.14999999709653;116;100 mA
22.8427039423277;-0.199951171875;-0.00105377197265625;1.15999999707128;117;100 mA
22.8527039423025;-0.199920654296875;-0.0010479736328125;1.16999999704603;118;100 mA
22.8627039422772;-0.199951171875;-0.0010528564453125;1.17999999702079;119;100 mA
22.872703942252;-0.199920654296875;-0.0010498046875;1.18999999699554;120;100 mA
22.8827039422267;-0.199859619140625;-0.0010498046875;1.19999999697029;121;100 mA
22.8927039422015;-0.199920654296875;-0.00105010986328125;1.20999999694504;122;100 mA
22.9027039421762;-0.199920654296875;-0.00104644775390625;1.2199999969198;123;100 mA
22.912703942151;-0.199798583984375;-0.0010516357421875;1.22999999689455;124;100 mA
22.9227039421257;-0.19989013671875;-0.0010498046875;1.2399999968693;125;100 mA
22.9327039421005;-0.199951171875;-0.0010491943359375;1.24999999684405;126;100 mA
22.9427039420752;-0.199920654296875;-0.00105133056640625;1.25999999681881;127;100 mA
22.95270394205;-0.199920654296875;-0.00104888916015625;1.26999999679356;128;100 mA
22.9627039420247;-0.199859619140625;-0.0010546875;1.27999999676831;129;100 mA
22.9727039419995;-0.199920654296875;-0.00105316162109375;1.28999999674306;130;100 mA
22.9827039419743;-0.19989013671875;-0.00105224609375;1.29999999671782;131;100 mA
22.992703941949;-0.199951171875;-0.0010540771484375;1.30999999669257;132;100 mA
23.0027039419238;-0.19989013671875;-0.00104888916015625;1.31999999666732;133;100 mA
23.0127039418985;-0.199951171875;-0.00105499267578125;1.32999999664207;134;100 mA
23.0227039418733;-0.199859619140625;-0.0010540771484375;1.33999999661683;135;100 mA
23.032703941848;-0.19989013671875;-0.00105010986328125;1.34999999659158;136;100 mA
23.0427039418228;-0.19989013671875;-0.00105438232421875;1.35999999656633;137;100 mA
23.0527039417975;-0.19989013671875;-0.001051025390625;1.36999999654108;138;100 mA
23.0627039417723;-0.19989013671875;-0.00105560302734375;1.37999999651583;139;100 mA
23.072703941747;-0.19989013671875;-0.00105316162109375;1.38999999649059;140;100 mA
23.0827039417218;-0.199951171875;-0.00105072021484375;1.39999999646534;141;100 mA
23.0927039416965;-0.19989013671875;-0.00105316162109375;1.40999999644009;142;100 mA
23.1027039416713;-0.19989013671875;-0.00104705810546875;1.41999999641484;143;100 mA
23.112703941646;-0.19989013671875;-0.00105438232421875;1.4299999963896;144;100 mA
23.1227039416208;-0.199951171875;-0.00105133056640625;1.43999999636435;145;100 mA
23.1327039415955;-0.20001220703125;-0.00104766845703125;1.4499999963391;146;100 mA
23.1427039415703;-0.19989013671875;-0.001051025390625;1.45999999631385;147;100 mA
23.152703941545;-0.199920654296875;-0.001046142578125;1.46999999628861;148;100 mA
23.1627039415198;-0.19989013671875;-0.00105194091796875;1.47999999626336;149;100 mA
23.1727039414945;-0.19989013671875;-0.0010498046875;1.48999999623811;150;100 mA
23.1827039414693;-0.199951171875;-0.00104583740234375;1.49999999621286;151;100 mA
23.1927039414441;-0.199859619140625;-0.00105224609375;1.50999999618762;152;100 mA
23.2027039414188;-0.19989013671875;-0.0010467529296875;1.51999999616237;153;100 mA
23.2127039413936;-0.19989013671875;-0.00105316162109375;1.52999999613712;154;100 mA
23.2227039413683;-0.19989013671875;-0.00105133056640625;1.53999999611187;155;100 mA
23.2327039413431;-0.199859619140625;-0.00104949951171875;1.54999999608663;156;100 mA
23.2427039413178;-0.199951171875;-0.0010540771484375;1.55999999606138;157;100 mA
23.2527039412926;-0.19989013671875;-0.0010479736328125;1.56999999603613;158;100 mA
23.2627039412673;-0.199920654296875;-0.00105438232421875;1.57999999601088;159;100 mA
23.2727039412421;-0.199920654296875;-0.001051025390625;1.58999999598564;160;100 mA
23.2827039412168;-0.199920654296875;-0.0010491943359375;1.59999999596039;161;100 mA
23.2927039411916;-0.19989013671875;-0.00105224609375;1.60999999593514;162;100 mA
23.3027039411663;-0.19989013671875;-0.00104644775390625;1.61999999590989;163;100 mA
23.3127039411411;-0.19989013671875;-0.0010491943359375;1.62999999588465;164;100 mA
23.3227039411158;-0.19989013671875;-0.00104949951171875;1.6399999958594;165;100 mA
23.3327039410906;-0.199920654296875;-0.00104888916015625;1.64999999583415;166;100 mA
23.3427039410653;-0.199859619140625;-0.00104766845703125;1.6599999958089;167;100 mA
23.3527039410401;-0.199981689453125;-0.00104339599609375;1.66999999578366;168;100 mA
23.3627039410148;-0.199920654296875;-0.00104766845703125;1.67999999575841;169;100 mA
23.3727039409896;-0.19989013671875;-0.00104644775390625;1.68999999573316;170;100 mA
23.3827039409643;-0.199859619140625;-0.0010443115234375;1.69999999570791;171;100 mA
23.3927039409391;-0.199951171875;-0.00104644775390625;1.70999999568267;172;100 mA
23.4027039409139;-0.199859619140625;-0.00104095458984375;1.71999999565742;173;100 mA
23.4127039408886;-0.19989013671875;-0.00104766845703125;1.72999999563217;174;100 mA
23.4227039408634;-0.199920654296875;-0.0010455322265625;1.73999999560692;175;100 mA
23.4327039408381;-0.199859619140625;-0.001046142578125;1.74999999558167;176;100 mA
23.4427039408129;-0.199951171875;-0.00104827880859375;1.75999999555643;177;100 mA
23.4527039407876;-0.199920654296875;-0.00104339599609375;1.76999999553118;178;100 mA
23.4627039407624;-0.19989013671875;-0.0010491943359375;1.77999999550593;179;100 mA
23.4727039407371;-0.199951171875;-0.00104736328125;1.78999999548068;180;100 mA
23.4827039407119;-0.199920654296875;-0.00104705810546875;1.79999999545544;181;100 mA
23.4927039406866;-0.19989013671875;-0.00105010986328125;1.80999999543019;182;100 mA
23.5027039406614;-0.199951171875;-0.00104461669921875;1.81999999540494;183;100 mA
23.5127039406361;-0.199920654296875;-0.00105010986328125;1.82999999537969;184;100 mA
23.5227039406109;-0.19989013671875;-0.00104736328125;1.83999999535445;185;100 mA
23.5327039405856;-0.19989013671875;-0.00104766845703125;1.8499999953292;186;100 mA
23.5427039405604;-0.199920654296875;-0.00105224609375;1.85999999530395;187;100 mA
23.5527039405351;-0.199920654296875;-0.00104766845703125;1.8699999952787;188;100 mA
23.5627039405099;-0.199951171875;-0.0010516357421875;1.87999999525346;189;100 mA
23.5727039404846;-0.19989013671875;-0.00104949951171875;1.88999999522821;190;100 mA
23.5827039404594;-0.199951171875;-0.0010467529296875;1.89999999520296;191;100 mA
23.5927039404341;-0.199859619140625;-0.001048583984375;1.90999999517771;192;100 mA
23.6027039404089;-0.199920654296875;-0.0010430908203125;1.91999999515247;193;100 mA
23.6127039403837;-0.199920654296875;-0.0010467529296875;1.92999999512722;194;100 mA
23.6227039403584;-0.1998291015625;-0.00104644775390625;1.93999999510197;195;100 mA
23.6327039403332;-0.199920654296875;-0.0010479736328125;1.94999999507672;196;100 mA
23.6427039403079;-0.199920654296875;-0.0010491943359375;1.95999999505148;197;100 mA
23.6527039402827;-0.199920654296875;-0.0010430908203125;1.96999999502623;198;100 mA
23.6627039402574;-0.19989013671875;-0.0010498046875;1.97999999500098;199;100 mA
23.6727039402322;-0.199981689453125;-0.001046142578125;1.98999999497573;200;100 mA
23.6827039402069;-0.199920654296875;-0.0010467529296875;1.99999999495049;201;100 mA
23.6927039401817;-0.199859619140625;-0.0010504150390625;2.00999999492524;202;100 mA
23.7027039401564;-0.199920654296875;-0.00104339599609375;2.01999999489999;203;100 mA
23.7127039401312;-0.19989013671875;-0.00105194091796875;2.02999999487474;204;100 mA
23.7227039401059;-0.199859619140625;-0.001051025390625;2.0399999948495;205;100 mA
23.7327039400807;-0.199920654296875;-0.00104827880859375;2.04999999482425;206;100 mA
23.7427039400554;-0.19989013671875;-0.0010528564453125;2.059999994799;207;100 mA
23.7527039400302;-0.199920654296875;-0.00104888916015625;2.06999999477375;208;100 mA
23.7627039400049;-0.1998291015625;-0.00105499267578125;2.0799999947485;209;100 mA
23.7727039399797;-0.19989013671875;-0.00105255126953125;2.08999999472326;210;100 mA
23.7827039399544;-0.19989013671875;-0.00105010986328125;2.09999999469801;211;100 mA
23.7927039399292;-0.19989013671875;-0.00105194091796875;2.10999999467276;212;100 mA
23.8027039399039;-0.199920654296875;-0.00104705810546875;2.11999999464751;213;100 mA
23.8127039398787;-0.19989013671875;-0.0010528564453125;2.12999999462227;214;100 mA
23.8227039398535;-0.199951171875;-0.0010504150390625;2.13999999459702;215;100 mA
23.8327039398282;-0.19989013671875;-0.001048583984375;2.14999999457177;216;100 mA
23.842703939803;-0.199920654296875;-0.001051025390625;2.15999999454652;217;100 mA
23.8527039397777;-0.199920654296875;-0.00104522705078125;2.16999999452128;218;100 mA
23.8627039397525;-0.19989013671875;-0.00104888916015625;2.17999999449603;219;100 mA
23.8727039397272;-0.199920654296875;-0.0010504150390625;2.18999999447078;220;100 mA
23.882703939702;-0.19989013671875;-0.00104705810546875;2.19999999444553;221;100 mA
23.8927039396767;-0.19989013671875;-0.0010504150390625;2.20999999442029;222;100 mA
23.9027039396515;-0.199920654296875;-0.00104217529296875;2.21999999439504;223;100 mA
23.9127039396262;-0.199920654296875;-0.0010498046875;2.22999999436979;224;100 mA
23.922703939601;-0.199951171875;-0.00104888916015625;2.23999999434454;225;100 mA
23.9327039395757;-0.199920654296875;-0.00104644775390625;2.2499999943193;226;100 mA
23.9427039395505;-0.1998291015625;-0.00104766845703125;2.25999999429405;227;100 mA
23.9527039395252;-0.199859619140625;-0.00104248046875;2.2699999942688;228;100 mA
23.9627039395;-0.199920654296875;-0.0010516357421875;2.27999999424355;229;100 mA
23.9727039394747;-0.199920654296875;-0.0010491943359375;2.28999999421831;230;100 mA
23.9827039394495;-0.199859619140625;-0.00104583740234375;2.29999999419306;231;100 mA
23.9927039394242;-0.1998291015625;-0.00105010986328125;2.30999999416781;232;100 mA
24.002703939399;-0.19989013671875;-0.0010430908203125;2.31999999414256;233;100 mA
24.0127039393738;-0.199920654296875;-0.00105194091796875;2.32999999411732;234;100 mA
24.0227039393485;-0.199920654296875;-0.001044921875;2.33999999409207;235;100 mA
24.0327039393233;-0.199951171875;-0.00104583740234375;2.34999999406682;236;100 mA
24.042703939298;-0.199920654296875;-0.00104766845703125;2.35999999404157;237;100 mA
24.0527039392728;-0.199920654296875;-0.001043701171875;2.36999999401633;238;100 mA
24.0627039392475;-0.199859619140625;-0.00104888916015625;2.37999999399108;239;100 mA
24.0727039392223;-0.199859619140625;-0.001046142578125;2.38999999396583;240;100 mA
24.082703939197;-0.199920654296875;-0.00104461669921875;2.39999999394058;241;100 mA
24.0927039391718;-0.199859619140625;-0.00104705810546875;2.40999999391533;242;100 mA
24.1027039391465;-0.199859619140625;-0.0010430908203125;2.41999999389009;243;100 mA
24.1127039391213;-0.19989013671875;-0.0010479736328125;2.42999999386484;244;100 mA
24.122703939096;-0.199859619140625;-0.00104583740234375;2.43999999383959;245;100 mA
24.1327039390708;-0.199920654296875;-0.00104248046875;2.44999999381434;246;100 mA
24.1427039390455;-0.199859619140625;-0.001041259765625;2.4599999937891;247;100 mA
24.1527039390203;-0.199859619140625;-0.0010369873046875;2.46999999376385;248;100 mA
24.162703938995;-0.19989013671875;-0.00104400634765625;2.4799999937386;249;100 mA
24.1727039389698;-0.19989013671875;-0.0010406494140625;2.48999999371335;250;100 mA
24.1827039389445;-0.199951171875;-0.00103790283203125;2.49999999368811;251;100 mA
24.1927039389193;-0.1998291015625;-0.00104248046875;2.50999999366286;252;100 mA
24.202703938894;-0.199920654296875;-0.0010406494140625;2.51999999363761;253;100 mA
24.2127039388688;-0.199951171875;-0.00104827880859375;2.52999999361236;254;100 mA
24.2227039388436;-0.199951171875;-0.001046142578125;2.53999999358712;255;100 mA
24.2327039388183;-0.199920654296875;-0.001043701171875;2.54999999356187;256;100 mA
24.2427039387931;-0.199920654296875;-0.001043701171875;2.55999999353662;257;100 mA
24.2527039387678;-0.19989013671875;-0.0010406494140625;2.56999999351137;258;100 mA
24.2627039387426;-0.199920654296875;-0.00104644775390625;2.57999999348613;259;100 mA
24.2727039387173;-0.19989013671875;-0.0010406494140625;2.58999999346088;260;100 mA
24.2827039386921;-0.199920654296875;-0.00103912353515625;2.59999999343563;261;100 mA
24.2927039386668;-0.19989013671875;-0.00104278564453125;2.60999999341038;262;100 mA
24.3027039386416;-0.1998291015625;-0.001036376953125;2.61999999338514;263;100 mA
24.3127039386163;-0.199951171875;-0.00104248046875;2.62999999335989;264;100 mA
24.3227039385911;-0.19989013671875;-0.001038818359375;2.63999999333464;265;100 mA
24.3327039385658;-0.199859619140625;-0.00103607177734375;2.64999999330939;266;100 mA
24.3427039385406;-0.199859619140625;-0.0010394287109375;2.65999999328415;267;100 mA
24.3527039385153;-0.199951171875;-0.00103424072265625;2.6699999932589;268;100 mA
24.3627039384901;-0.199859619140625;-0.001041259765625;2.67999999323365;269;100 mA
24.3727039384648;-0.199798583984375;-0.00103759765625;2.6899999932084;270;100 mA
24.3827039384396;-0.199859619140625;-0.00103179931640625;2.69999999318316;271;100 mA
24.3927039384143;-0.19989013671875;-0.001038818359375;2.70999999315791;272;100 mA
24.4027039383891;-0.19989013671875;-0.00103057861328125;2.71999999313266;273;100 mA
24.4127039383638;-0.199920654296875;-0.0010394287109375;2.72999999310741;274;100 mA
24.4227039383386;-0.19989013671875;-0.00103729248046875;2.73999999308217;275;100 mA
24.4327039383134;-0.199951171875;-0.00103546142578125;2.74999999305692;276;100 mA
24.4427039382881;-0.1998291015625;-0.0010369873046875;2.75999999303167;277;100 mA
24.4527039382629;-0.19989013671875;-0.00103363037109375;2.76999999300642;278;100 mA
24.4627039382376;-0.199920654296875;-0.0010382080078125;2.77999999298117;279;100 mA
24.4727039382124;-0.199859619140625;-0.001036376953125;2.78999999295593;280;100 mA
24.4827039381871;-0.199920654296875;-0.00103363037109375;2.79999999293068;281;100 mA
24.4927039381619;-0.19989013671875;-0.0010357666015625;2.80999999290543;282;100 mA
24.5027039381366;-0.199859619140625;-0.00103118896484375;2.81999999288018;283;100 mA
24.5127039381114;-0.19989013671875;-0.001038818359375;2.82999999285494;284;100 mA
24.5227039380861;-0.19989013671875;-0.0010345458984375;2.83999999282969;285;100 mA
24.5327039380609;-0.19989013671875;-0.0010308837890625;2.84999999280444;286;100 mA
24.5427039380356;-0.199920654296875;-0.00103271484375;2.85999999277919;287;100 mA
24.5527039380104;-0.19989013671875;-0.001026611328125;2.86999999275395;288;100 mA
24.5627039379851;-0.199859619140625;-0.00103515625;2.8799999927287;289;100 mA
24.5727039379599;-0.19989013671875;-0.001031494140625;2.88999999270345;290;100 mA
24.5827039379346;-0.199920654296875;-0.001031494140625;2.8999999926782;291;100 mA
24.5927039379094;-0.199951171875;-0.00103240966796875;2.90999999265296;292;100 mA
24.6027039378841;-0.19989013671875;-0.00102783203125;2.91999999262771;293;100 mA
24.6127039378589;-0.199951171875;-0.001033935546875;2.92999999260246;294;100 mA
24.6227039378336;-0.19989013671875;-0.00102874755859375;2.93999999257721;295;100 mA
24.6327039378084;-0.19989013671875;-0.00102752685546875;2.94999999255197;296;100 mA
24.6427039377832;-0.199920654296875;-0.00102996826171875;2.95999999252672;297;100 mA
24.6527039377579;-0.19989013671875;-0.001024169921875;2.96999999250147;298;100 mA
24.6627039377327;-0.199920654296875;-0.0010284423828125;2.97999999247622;299;100 mA
24.6727039377074;-0.199920654296875;-0.0010260009765625;2.98999999245098;300;100 mA
24.6827039376822;-0.19989013671875;-0.0010247802734375;2.99999999242573;301;100 mA
24.6927039376569;-0.1998291015625;-0.00102996826171875;3.00999999240048;302;100 mA
24.7027039376317;-0.199920654296875;-0.0010260009765625;3.01999999237523;303;100 mA
24.7127039376064;-0.199951171875;-0.00103179931640625;3.02999999234999;304;100 mA
24.7227039375812;-0.199859619140625;-0.00102752685546875;3.03999999232474;305;100 mA
24.7327039375559;-0.199920654296875;-0.00102691650390625;3.04999999229949;306;100 mA
24.7427039375307;-0.19989013671875;-0.00102783203125;3.05999999227424;307;100 mA
24.7527039375054;-0.19989013671875;-0.00102508544921875;3.069999992249;308;100 mA
24.7627039374802;-0.19989013671875;-0.00102996826171875;3.07999999222375;309;100 mA
24.7727039374549;-0.19989013671875;-0.00102783203125;3.0899999921985;310;100 mA
24.7827039374297;-0.19989013671875;-0.00102325439453125;3.09999999217325;311;100 mA
24.7927039374044;-0.19989013671875;-0.0010260009765625;3.109999992148;312;100 mA
24.8027039373792;-0.19989013671875;-0.00102081298828125;3.11999999212276;313;100 mA
24.8127039373539;-0.19989013671875;-0.00102813720703125;3.12999999209751;314;100 mA
24.8227039373287;-0.199920654296875;-0.0010284423828125;3.13999999207226;315;100 mA
24.8327039373034;-0.19989013671875;-0.00102386474609375;3.14999999204701;316;100 mA
24.8427039372782;-0.19989013671875;-0.00102752685546875;3.15999999202177;317;100 mA
24.852703937253;-0.199859619140625;-0.00101226806640625;3.16999999199652;318;100 mA
24.8627039372277;-0.199859619140625;-0.00102508544921875;3.17999999197127;319;100 mA
24.8727039372025;-0.199920654296875;-0.00102264404296875;3.18999999194602;320;100 mA
24.8827039371772;-0.1998291015625;-0.001021728515625;3.19999999192078;321;100 mA
24.892703937152;-0.19989013671875;-0.00102447509765625;3.20999999189553;322;100 mA
24.9027039371267;-0.19989013671875;-0.00102020263671875;3.21999999187028;323;100 mA
24.9127039371015;-0.19989013671875;-0.00102508544921875;3.22999999184503;324;100 mA
24.9227039370762;-0.199920654296875;-0.0010235595703125;3.23999999181979;325;100 mA
24.932703937051;-0.19989013671875;-0.0010223388671875;3.24999999179454;326;100 mA
24.9427039370257;-0.19989013671875;-0.00102447509765625;3.25999999176929;327;100 mA
24.9527039370005;-0.19989013671875;-0.001019287109375;3.26999999174404;328;100 mA
24.9627039369752;-0.199920654296875;-0.00102783203125;3.2799999917188;329;100 mA
24.97270393695;-0.19989013671875;-0.00102508544921875;3.28999999169355;330;100 mA
24.9827039369247;-0.199920654296875;-0.00102142333984375;3.2999999916683;331;100 mA
24.9927039368995;-0.199920654296875;-0.0010247802734375;3.30999999164305;332;100 mA
25.0027039368742;-0.199981689453125;-0.0010015869140625;3.31999999161781;333;100 mA
25.012703936849;-0.199859619140625;-0.0010235595703125;3.32999999159256;334;100 mA
25.0227039368237;-0.199920654296875;-0.00101898193359375;3.33999999156731;335;100 mA
25.0327039367985;-0.19989013671875;-0.0010186767578125;3.34999999154206;336;100 mA
25.0427039367733;-0.19989013671875;-0.00101898193359375;3.35999999151682;337;100 mA
25.052703936748;-0.1998291015625;-0.00101409912109375;3.36999999149157;338;100 mA
25.0627039367228;-0.199920654296875;-0.00100189208984375;3.37999999146632;339;100 mA
25.0727039366975;-0.199920654296875;-0.00101898193359375;3.38999999144107;340;100 mA
25.0827039366723;-0.19989013671875;-0.0010137939453125;3.39999999141583;341;100 mA
25.092703936647;-0.199920654296875;-0.00100799560546875;3.40999999139058;342;100 mA
25.1027039366218;-0.199920654296875;-0.00101531982421875;3.41999999136533;343;100 mA
25.1127039365965;-0.199951171875;-0.00102081298828125;3.42999999134008;344;100 mA
25.1227039365713;-0.199920654296875;-0.0010162353515625;3.43999999131483;345;100 mA
25.132703936546;-0.199859619140625;-0.00101531982421875;3.44999999128959;346;100 mA
25.1427039365208;-0.199920654296875;-0.001016845703125;3.45999999126434;347;100 mA
25.1527039364955;-0.19989013671875;-0.00101348876953125;3.46999999123909;348;100 mA
25.1627039364703;-0.19989013671875;-0.00101959228515625;3.47999999121384;349;100 mA
25.172703936445;-0.199859619140625;-0.001016845703125;3.4899999911886;350;100 mA
25.1827039364198;-0.199951171875;-0.001016845703125;3.49999999116335;351;100 mA
25.1927039363945;-0.199859619140625;-0.0010174560546875;3.5099999911381;352;100 mA
25.2027039363693;-0.199920654296875;-0.0010137939453125;3.51999999111285;353;100 mA
25.212703936344;-0.19989013671875;-0.00102020263671875;3.52999999108761;354;100 mA
25.2227039363188;-0.19989013671875;-0.0009991455078125;3.53999999106236;355;100 mA
25.2327039362935;-0.19989013671875;-0.00100341796875;3.54999999103711;356;100 mA
25.2427039362683;-0.19989013671875;-0.001015625;3.55999999101186;357;100 mA
25.2527039362431;-0.199981689453125;-0.00101043701171875;3.56999999098662;358;100 mA
25.2627039362178;-0.199859619140625;-0.001016845703125;3.57999999096137;359;100 mA
25.2727039361926;-0.19989013671875;-0.00101531982421875;3.58999999093612;360;100 mA
25.2827039361673;-0.199859619140625;-0.00101318359375;3.59999999091087;361;100 mA
25.2927039361421;-0.199920654296875;-0.0010150146484375;3.60999999088563;362;100 mA
25.3027039361168;-0.19989013671875;-0.00101318359375;3.61999999086038;363;100 mA
25.3127039360916;-0.199981689453125;-0.00101959228515625;3.62999999083513;364;100 mA
25.3227039360663;-0.199951171875;-0.001016845703125;3.63999999080988;365;100 mA
25.3327039360411;-0.199859619140625;-0.0010150146484375;3.64999999078464;366;100 mA
25.3427039360158;-0.199920654296875;-0.00100982666015625;3.65999999075939;367;100 mA
25.3527039359906;-0.1998291015625;-0.001009521484375;3.66999999073414;368;100 mA
25.3627039359653;-0.19989013671875;-0.00101531982421875;3.67999999070889;369;100 mA
25.3727039359401;-0.199920654296875;-0.001007080078125;3.68999999068365;370;100 mA
25.3827039359148;-0.19989013671875;-0.001007080078125;3.6999999906584;371;100 mA
25.3927039358896;-0.19989013671875;-0.0010137939453125;3.70999999063315;372;100 mA
25.4027039358643;-0.19989013671875;-0.00100830078125;3.7199999906079;373;100 mA
25.4127039358391;-0.199920654296875;-0.00101715087890625;3.72999999058266;374;100 mA
25.4227039358138;-0.199920654296875;-0.00101348876953125;3.73999999055741;375;100 mA
25.4327039357886;-0.1998291015625;-0.00101318359375;3.74999999053216;376;100 mA
25.4427039357633;-0.19989013671875;-0.0010137939453125;3.75999999050691;377;100 mA
25.4527039357381;-0.199951171875;-0.0010107421875;3.76999999048167;378;100 mA
25.4627039357129;-0.19989013671875;-0.00101715087890625;3.77999999045642;379;100 mA
25.4727039356876;-0.199981689453125;-0.0010113525390625;3.78999999043117;380;100 mA
25.4827039356624;-0.199920654296875;-0.00101165771484375;3.79999999040592;381;100 mA
25.4927039356371;-0.19989013671875;-0.00101348876953125;3.80999999038067;382;100 mA
25.5027039356119;-0.19989013671875;-0.00100799560546875;3.81999999035543;383;100 mA
25.5127039355866;-0.199951171875;-0.001014404296875;3.82999999033018;384;100 mA
25.5227039355614;-0.199920654296875;-0.00101165771484375;3.83999999030493;385;100 mA
25.5327039355361;-0.1998291015625;-0.00101043701171875;3.84999999027968;386;100 mA
25.5427039355109;-0.199981689453125;-0.00101287841796875;3.85999999025444;387;100 mA
25.5527039354856;-0.19989013671875;-0.00101043701171875;3.86999999022919;388;100 mA
25.5627039354604;-0.19989013671875;-0.00101470947265625;3.87999999020394;389;100 mA
25.5727039354351;-0.19989013671875;-0.001011962890625;3.88999999017869;390;100 mA
25.5827039354099;-0.19989013671875;-0.00101043701171875;3.89999999015345;391;100 mA
25.5927039353846;-0.199920654296875;-0.001014404296875;3.9099999901282;392;100 mA
25.6027039353594;-0.19989013671875;-0.00100677490234375;3.91999999010295;393;100 mA
25.6127039353341;-0.19989013671875;-0.0010125732421875;3.9299999900777;394;100 mA
25.6227039353089;-0.19989013671875;-0.0010076904296875;3.93999999005246;395;100 mA
25.6327039352836;-0.19989013671875;-0.001009521484375;3.94999999002721;396;100 mA
25.6427039352584;-0.199920654296875;-0.0010101318359375;3.95999999000196;397;100 mA
25.6527039352331;-0.199920654296875;-0.00100616455078125;3.96999998997671;398;100 mA
25.6627039352079;-0.19989013671875;-0.00101348876953125;3.97999998995147;399;100 mA
25.6727039351827;-0.199920654296875;-0.001009521484375;3.98999998992622;400;100 mA
25.6827039351574;-0.19989013671875;-0.0010089111328125;3.99999998990097;401;100 mA
25.6927039351322;-0.199859619140625;-0.001011962890625;4.00999998987572;402;100 mA
25.7027039351069;-0.199920654296875;-0.001007080078125;4.01999998985048;403;100 mA
25.7127039350817;-0.199920654296875;-0.001011962890625;4.02999998982523;404;100 mA
25.7227039350564;-0.19989013671875;-0.001007080078125;4.03999998979998;405;100 mA
25.7327039350312;-0.199920654296875;-0.0010040283203125;4.04999998977473;406;100 mA
25.7427039350059;-0.199859619140625;-0.00100738525390625;4.05999998974949;407;100 mA
25.7527039349807;-0.199859619140625;-0.00100311279296875;4.06999998972424;408;100 mA
25.7627039349554;-0.19989013671875;-0.001011962890625;4.07999998969899;409;100 mA
25.7727039349302;-0.199859619140625;-0.0010064697265625;4.08999998967374;410;100 mA
25.7827039349049;-0.19989013671875;-0.0010076904296875;4.0999999896485;411;100 mA
25.7927039348797;-0.199981689453125;-0.00100494384765625;4.10999998962325;412;100 mA
25.8027039348544;-0.199920654296875;-0.00100555419921875;4.119999989598;413;100 mA
25.8127039348292;-0.19989013671875;-0.00101104736328125;4.12999998957275;414;100 mA
25.8227039348039;-0.19989013671875;-0.00100555419921875;4.1399999895475;415;100 mA
25.8327039347787;-0.199920654296875;-0.0010052490234375;4.14999998952226;416;100 mA
25.8427039347534;-0.19989013671875;-0.00100372314453125;4.15999998949701;417;100 mA
25.8527039347282;-0.199981689453125;-0.00100128173828125;4.16999998947176;418;100 mA
25.8627039347029;-0.19989013671875;-0.0010040283203125;4.17999998944651;419;100 mA
25.8727039346777;-0.199920654296875;-0.001002197265625;4.18999998942127;420;100 mA
25.8827039346525;-0.199951171875;-0.0009979248046875;4.19999998939602;421;100 mA
25.8927039346272;-0.199859619140625;-0.00100006103515625;4.20999998937077;422;100 mA
25.902703934602;-0.199920654296875;-0.00099945068359375;4.21999998934552;423;100 mA
25.9127039345767;-0.199859619140625;-0.00100128173828125;4.22999998932028;424;100 mA
25.9227039345515;-0.19989013671875;-0.00100311279296875;4.23999998929503;425;100 mA
25.9327039345262;-0.19989013671875;-0.0009991455078125;4.24999998926978;426;100 mA
25.942703934501;-0.19989013671875;-0.001004638671875;4.25999998924453;427;100 mA
25.9527039344757;-0.199920654296875;-0.00100189208984375;4.26999998921929;428;100 mA
25.9627039344505;-0.199920654296875;-0.00100494384765625;4.27999998919404;429;100 mA
25.9727039344252;-0.19989013671875;-0.0010003662109375;4.28999998916879;430;100 mA
25.9827039344;-0.199920654296875;-0.00100067138671875;4.29999998914354;431;100 mA
25.9927039343747;-0.199859619140625;-0.00100067138671875;4.3099999891183;432;100 mA
26.0027039343495;-0.19989013671875;-0.0009967041015625;4.31999998909305;433;100 mA
26.0127039343242;-0.199981689453125;-0.00100341796875;4.3299999890678;434;100 mA
26.022703934299;-0.19989013671875;-0.00099761962890625;4.33999998904255;435;100 mA
26.0327039342737;-0.19989013671875;-0.000997009277343749;4.34999998901731;436;100 mA
26.0427039342485;-0.19989013671875;-0.00099945068359375;4.35999998899206;437;100 mA
26.0527039342232;-0.199920654296875;-0.000994873046875;4.36999998896681;438;100 mA
26.062703934198;-0.199951171875;-0.0010009765625;4.37999998894156;439;100 mA
26.0727039341728;-0.199859619140625;-0.000997009277343749;4.38999998891632;440;100 mA
26.0827039341475;-0.19989013671875;-0.000995483398437499;4.39999998889107;441;100 mA
26.0927039341223;-0.19989013671875;-0.00099822998046875;4.40999998886582;442;100 mA
26.102703934097;-0.19989013671875;-0.000992736816406251;4.41999998884057;443;100 mA
26.1127039340718;-0.199859619140625;-0.000998840332031251;4.42999998881533;444;100 mA
26.1227039340465;-0.199920654296875;-0.000994873046875;4.43999998879008;445;100 mA
26.1327039340213;-0.199920654296875;-0.00097503662109375;4.44999998876483;446;100 mA
26.142703933996;-0.19989013671875;-0.0009674072265625;4.45999998873958;447;100 mA
26.1527039339708;-0.199920654296875;-0.000930175781250001;4.46999998871433;448;100 mA
26.1627039339455;-0.19989013671875;-0.00099945068359375;4.47999998868909;449;100 mA
26.1727039339203;-0.1998291015625;-0.00099151611328125;4.48999998866384;450;100 mA
26.182703933895;-0.19989013671875;-0.00099517822265625;4.49999998863859;451;100 mA
26.1927039338698;-0.199920654296875;-0.00099822998046875;4.50999998861334;452;100 mA
26.2027039338445;-0.19989013671875;-0.000992431640624999;4.5199999885881;453;100 mA
26.2127039338193;-0.199859619140625;-0.00099822998046875;4.52999998856285;454;100 mA
26.222703933794;-0.19989013671875;-0.000992736816406251;4.5399999885376;455;100 mA
26.2327039337688;-0.199920654296875;-0.000992431640624999;4.54999998851235;456;100 mA
26.2427039337435;-0.199859619140625;-0.00099334716796875;4.55999998848711;457;100 mA
26.2527039337183;-0.199920654296875;-0.00099090576171875;4.56999998846186;458;100 mA
26.262703933693;-0.199920654296875;-0.00099639892578125;4.57999998843661;459;100 mA
26.2727039336678;-0.199981689453125;-0.00099029541015625;4.58999998841136;460;100 mA
26.2827039336426;-0.199951171875;-0.000989990234375;4.59999998838612;461;100 mA
26.2927039336173;-0.19989013671875;-0.00099151611328125;4.60999998836087;462;100 mA
26.3027039335921;-0.199951171875;-0.0009844970703125;4.61999998833562;463;100 mA
26.3127039335668;-0.19989013671875;-0.0009906005859375;4.62999998831037;464;100 mA
26.3227039335416;-0.199859619140625;-0.00098724365234375;4.63999998828513;465;100 mA
26.3327039335163;-0.199920654296875;-0.000983581542968751;4.64999998825988;466;100 mA
26.3427039334911;-0.199951171875;-0.000986633300781251;4.65999998823463;467;100 mA
26.3527039334658;-0.199951171875;-0.0009844970703125;4.66999998820938;468;100 mA
26.3627039334406;-0.19989013671875;-0.00098876953125;4.67999998818414;469;100 mA
26.3727039334153;-0.199920654296875;-0.00098297119140625;4.68999998815889;470;100 mA
26.3827039333901;-0.199859619140625;-0.00098541259765625;4.69999998813364;471;100 mA
26.3927039333648;-0.199859619140625;-0.00098541259765625;4.70999998810839;472;100 mA
26.4027039333396;-0.19989013671875;-0.0009832763671875;4.71999998808315;473;100 mA
26.4127039333143;-0.199951171875;-0.00099090576171875;4.7299999880579;474;100 mA
26.4227039332891;-0.199859619140625;-0.000986633300781251;4.73999998803265;475;100 mA
26.4327039332638;-0.199920654296875;-0.00098724365234375;4.7499999880074;476;100 mA
26.4427039332386;-0.199920654296875;-0.00098907470703125;4.75999998798216;477;100 mA
26.4527039332133;-0.199859619140625;-0.00098541259765625;4.76999998795691;478;100 mA
26.4627039331881;-0.1998291015625;-0.00099090576171875;4.77999998793166;479;100 mA
26.4727039331628;-0.199981689453125;-0.000986328125;4.78999998790641;480;100 mA
26.4827039331376;-0.199920654296875;-0.00098541259765625;4.79999998788116;481;100 mA
26.4927039331124;-0.199951171875;-0.0009869384765625;4.80999998785592;482;100 mA
26.5027039330871;-0.19989013671875;-0.00098419189453125;4.81999998783067;483;100 mA
26.5127039330619;-0.19989013671875;-0.00098876953125;4.82999998780542;484;100 mA
26.5227039330366;-0.19989013671875;-0.000985107421875001;4.83999998778017;485;100 mA
26.5327039330114;-0.199859619140625;-0.000985107421875001;4.84999998775493;486;100 mA
26.5427039329861;-0.19989013671875;-0.0009844970703125;4.85999998772968;487;100 mA
26.5527039329609;-0.199951171875;-0.000980529785156251;4.86999998770443;488;100 mA
26.5627039329356;-0.199920654296875;-0.000984802246093749;4.87999998767918;489;100 mA
26.5727039329104;-0.19989013671875;-0.000980529785156251;4.88999998765394;490;100 mA
26.5827039328851;-0.199951171875;-0.00097991943359375;4.89999998762869;491;100 mA
26.5927039328599;-0.19989013671875;-0.00098388671875;4.90999998760344;492;100 mA
26.6027039328346;-0.199859619140625;-0.000977478027343751;4.91999998757819;493;100 mA
26.6127039328094;-0.19989013671875;-0.000985107421875001;4.92999998755295;494;100 mA
26.6227039327841;-0.199920654296875;-0.00098236083984375;4.9399999875277;495;100 mA
26.6327039327589;-0.19989013671875;-0.00098388671875;4.94999998750245;496;100 mA
26.6427039327336;-0.199920654296875;-0.000987548828125;4.9599999874772;497;100 mA
26.6527039327084;-0.19989013671875;-0.00098419189453125;4.96999998745196;498;100 mA
26.6627039326831;-0.199951171875;-0.0009918212890625;4.97999998742671;499;100 mA
26.6727039326579;-0.199951171875;-0.000986633300781251;4.98999998740146;500;100 mA
26.6827039326326;-0.199859619140625;-0.000986328125;4.99999998737621;501;100 mA
26.6927039326074;-0.199859619140625;-0.000988159179687501;5.00999998735097;502;100 mA
26.7027039325822;-0.199951171875;-0.000982666015625;5.01999998732572;503;100 mA
26.7127039325569;-0.199920654296875;-0.000986633300781251;5.02999998730047;504;100 mA
26.7227039325317;-0.19989013671875;-0.00098388671875;5.03999998727522;505;100 mA
26.7327039325064;-0.199859619140625;-0.00098388671875;5.04999998724998;506;100 mA
26.7427039324812;-0.199920654296875;-0.00098724365234375;5.05999998722473;507;100 mA
26.7527039324559;-0.199859619140625;-0.00098541259765625;5.06999998719948;508;100 mA
26.7627039324307;-0.19989013671875;-0.000992736816406251;5.07999998717423;509;100 mA
26.7727039324054;-0.199920654296875;-0.000988159179687501;5.08999998714899;510;100 mA
26.7827039323802;-0.19989013671875;-0.000987548828125;5.09999998712374;511;100 mA
26.7927039323549;-0.199920654296875;-0.000987548828125;5.10999998709849;512;100 mA
26.8027039323297;-0.19989013671875;-0.000985107421875001;5.11999998707324;513;100 mA
26.8127039323044;-0.199859619140625;-0.000992736816406251;5.129999987048;514;100 mA
26.8227039322792;-0.19989013671875;-0.000988159179687501;5.13999998702275;515;100 mA
26.8327039322539;-0.19989013671875;-0.000988159179687501;5.1499999869975;516;100 mA
26.8427039322287;-0.199859619140625;-0.00098876953125;5.15999998697225;517;100 mA
26.8527039322034;-0.199981689453125;-0.0009869384765625;5.169999986947;518;100 mA
26.8627039321782;-0.19989013671875;-0.000994262695312501;5.17999998692176;519;100 mA
26.8727039321529;-0.19989013671875;-0.00099029541015625;5.18999998689651;520;100 mA
26.8827039321277;-0.199920654296875;-0.000989379882812499;5.19999998687126;521;100 mA
26.8927039321024;-0.199920654296875;-0.00099365234375;5.20999998684601;522;100 mA
26.9027039320772;-0.199920654296875;-0.000991210937500001;5.21999998682077;523;100 mA
26.912703932052;-0.199859619140625;-0.0009967041015625;5.22999998679552;524;100 mA
26.9227039320267;-0.199951171875;-0.00099090576171875;5.23999998677027;525;100 mA
26.9327039320015;-0.199859619140625;-0.00099151611328125;5.24999998674502;526;100 mA
26.9427039319762;-0.199920654296875;-0.0009918212890625;5.25999998671978;527;100 mA
26.952703931951;-0.199920654296875;-0.000989379882812499;5.26999998669453;528;100 mA
26.9627039319257;-0.19989013671875;-0.000994873046875;5.27999998666928;529;100 mA
26.9727039319005;-0.199920654296875;-0.00098724365234375;5.28999998664403;530;100 mA
26.9827039318752;-0.19989013671875;-0.00099090576171875;5.29999998661879;531;100 mA
26.99270393185;-0.199920654296875;-0.00099334716796875;5.30999998659354;532;100 mA
27.0027039318247;-0.199920654296875;-0.000992431640624999;5.31999998656829;533;100 mA
27.0127039317995;-0.1998291015625;-0.00099761962890625;5.32999998654304;534;100 mA
27.0227039317742;-0.19989013671875;-0.0009918212890625;5.3399999865178;535;100 mA
27.032703931749;-0.199920654296875;-0.00099365234375;5.34999998649255;536;100 mA
27.0427039317237;-0.199920654296875;-0.000995483398437499;5.3599999864673;537;100 mA
27.0527039316985;-0.19989013671875;-0.000991210937500001;5.36999998644205;538;100 mA
27.0627039316732;-0.19989013671875;-0.0009979248046875;5.37999998641681;539;100 mA
27.072703931648;-0.199920654296875;-0.0009918212890625;5.38999998639156;540;100 mA
27.0827039316227;-0.199920654296875;-0.0009930419921875;5.39999998636631;541;100 mA
27.0927039315975;-0.19989013671875;-0.00099395751953125;5.40999998634106;542;100 mA
27.1027039315723;-0.1998291015625;-0.00099334716796875;5.41999998631582;543;100 mA
27.112703931547;-0.19989013671875;-0.000977783203125;5.42999998629057;544;100 mA
27.1227039315218;-0.19989013671875;-0.000995788574218751;5.43999998626532;545;100 mA
27.1327039314965;-0.199951171875;-0.00099639892578125;5.44999998624007;546;100 mA
27.1427039314713;-0.199951171875;-0.00099945068359375;5.45999998621483;547;100 mA
27.152703931446;-0.199920654296875;-0.00099609375;5.46999998618958;548;100 mA
27.1627039314208;-0.199920654296875;-0.0010009765625;5.47999998616433;549;100 mA
27.1727039313955;-0.199920654296875;-0.000995483398437499;5.48999998613908;550;100 mA
27.1827039313703;-0.199951171875;-0.000997009277343749;5.49999998611383;551;100 mA
27.192703931345;-0.199920654296875;-0.00099822998046875;5.50999998608859;552;100 mA
27.2027039313198;-0.199920654296875;-0.0009967041015625;5.51999998606334;553;100 mA
27.2127039312945;-0.19989013671875;-0.0010015869140625;5.52999998603809;554;100 mA
27.2227039312693;-0.19989013671875;-0.000997314453125001;5.53999998601284;555;100 mA
27.232703931244;-0.199920654296875;-0.00099822998046875;5.5499999859876;556;100 mA
27.2427039312188;-0.199951171875;-0.000999755859375;5.55999998596235;557;100 mA
27.2527039311935;-0.1998291015625;-0.00099853515625;5.5699999859371;558;100 mA
27.2627039311683;-0.199920654296875;-0.0010009765625;5.57999998591185;559;100 mA
27.272703931143;-0.199951171875;-0.00099456787109375;5.58999998588661;560;100 mA
27.2827039311178;-0.199951171875;-0.0009967041015625;5.59999998586136;561;100 mA
27.2927039310925;-0.199859619140625;-0.000997009277343749;5.60999998583611;562;100 mA
27.3027039310673;-0.19989013671875;-0.000997009277343749;5.61999998581086;563;100 mA
27.3127039310421;-0.199951171875;-0.0010015869140625;5.62999998578562;564;100 mA
27.3227039310168;-0.199920654296875;-0.00099151611328125;5.63999998576037;565;100 mA
27.3327039309916;-0.199920654296875;-0.00097869873046875;5.64999998573512;566;100 mA
27.3427039309663;-0.19989013671875;-0.0010009765625;5.65999998570987;567;100 mA
27.3527039309411;-0.19989013671875;-0.00099761962890625;5.66999998568463;568;100 mA
27.3627039309158;-0.199951171875;-0.001004638671875;5.67999998565938;569;100 mA
27.3727039308906;-0.199920654296875;-0.00099822998046875;5.68999998563413;570;100 mA
27.3827039308653;-0.19989013671875;-0.00100128173828125;5.69999998560888;571;100 mA
27.3927039308401;-0.199859619140625;-0.00100311279296875;5.70999998558364;572;100 mA
27.4027039308148;-0.199951171875;-0.0009991455078125;5.71999998555839;573;100 mA
27.4127039307896;-0.19989013671875;-0.001004638671875;5.72999998553314;574;100 mA
27.4227039307643;-0.199920654296875;-0.0009979248046875;5.73999998550789;575;100 mA
27.4327039307391;-0.199859619140625;-0.00100006103515625;5.74999998548265;576;100 mA
27.4427039307138;-0.19989013671875;-0.00100433349609375;5.7599999854574;577;100 mA
27.4527039306886;-0.19989013671875;-0.0010015869140625;5.76999998543215;578;100 mA
27.4627039306633;-0.199951171875;-0.0010076904296875;5.7799999854069;579;100 mA
27.4727039306381;-0.199920654296875;-0.000999755859375;5.78999998538166;580;100 mA
27.4827039306128;-0.19989013671875;-0.00100372314453125;5.79999998535641;581;100 mA
27.4927039305876;-0.19989013671875;-0.0010040283203125;5.80999998533116;582;100 mA
27.5027039305623;-0.199951171875;-0.0009991455078125;5.81999998530591;583;100 mA
27.5127039305371;-0.19989013671875;-0.00100738525390625;5.82999998528066;584;100 mA
27.5227039305119;-0.1998291015625;-0.00100250244140625;5.83999998525542;585;100 mA
27.5327039304866;-0.199951171875;-0.00100311279296875;5.84999998523017;586;100 mA
27.5427039304614;-0.199951171875;-0.00100341796875;5.85999998520492;587;100 mA
27.5527039304361;-0.199920654296875;-0.00100311279296875;5.86999998517967;588;100 mA
27.5627039304109;-0.19989013671875;-0.0010052490234375;5.87999998515443;589;100 mA
27.5727039303856;-0.19989013671875;-0.0010015869140625;5.88999998512918;590;100 mA
27.5827039303604;-0.199859619140625;-0.00100341796875;5.89999998510393;591;100 mA
27.5927039303351;-0.199981689453125;-0.00100494384765625;5.90999998507868;592;100 mA
27.6027039303099;-0.199951171875;-0.00100341796875;5.91999998505344;593;100 mA
27.6127039302846;-0.199920654296875;-0.0010101318359375;5.92999998502819;594;100 mA
27.6227039302594;-0.19989013671875;-0.0010052490234375;5.93999998500294;595;100 mA
27.6327039302341;-0.199920654296875;-0.001005859375;5.94999998497769;596;100 mA
27.6427039302089;-0.199920654296875;-0.001005859375;5.95999998495245;597;100 mA
27.6527039301836;-0.199859619140625;-0.00100372314453125;5.9699999849272;598;100 mA
27.6627039301584;-0.199920654296875;-0.0010089111328125;5.97999998490195;599;100 mA
27.6727039301331;-0.199859619140625;-0.00100341796875;5.9899999848767;600;100 mA
27.6827039301079;-0.199951171875;-0.00100799560546875;5.99999998485146;601;100 mA
27.6927039300826;-0.199951171875;-0.00100860595703125;6.00999998482621;602;100 mA
27.7027039300574;-0.199920654296875;-0.001007080078125;6.01999998480096;603;100 mA
27.7127039300321;-0.199920654296875;-0.00101226806640625;6.02999998477571;604;100 mA
27.7227039300069;-0.199920654296875;-0.00101043701171875;6.03999998475047;605;100 mA
27.7327039299817;-0.199920654296875;-0.00101043701171875;6.04999998472522;606;100 mA
27.7427039299564;-0.199920654296875;-0.00101226806640625;6.05999998469997;607;100 mA
27.7527039299312;-0.199920654296875;-0.0010107421875;6.06999998467472;608;100 mA
27.7627039299059;-0.19989013671875;-0.0010162353515625;6.07999998464948;609;100 mA
27.7727039298807;-0.19989013671875;-0.00101043701171875;6.08999998462423;610;100 mA
27.7827039298554;-0.19989013671875;-0.00101287841796875;6.09999998459898;611;100 mA
27.7927039298302;-0.199920654296875;-0.0010150146484375;6.10999998457373;612;100 mA
27.8027039298049;-0.199920654296875;-0.0010113525390625;6.11999998454849;613;100 mA
27.8127039297797;-0.199859619140625;-0.00101776123046875;6.12999998452324;614;100 mA
27.8227039297544;-0.199859619140625;-0.001014404296875;6.13999998449799;615;100 mA
27.8327039297292;-0.19989013671875;-0.0010174560546875;6.14999998447274;616;100 mA
27.8427039297039;-0.199859619140625;-0.001021728515625;6.1599999844475;617;100 mA
27.8527039296787;-0.199920654296875;-0.00101959228515625;6.16999998442225;618;100 mA
27.8627039296534;-0.199920654296875;-0.00102691650390625;6.179999984397;619;100 mA
27.8727039296282;-0.199920654296875;-0.0010211181640625;6.18999998437175;620;100 mA
27.8827039296029;-0.199981689453125;-0.0010235595703125;6.1999999843465;621;100 mA
27.8927039295777;-0.199859619140625;-0.0010260009765625;6.20999998432126;622;100 mA
27.9027039295524;-0.199920654296875;-0.00102325439453125;6.21999998429601;623;100 mA
27.9127039295272;-0.199859619140625;-0.00102935791015625;6.22999998427076;624;100 mA
27.9227039295019;-0.199920654296875;-0.00102447509765625;6.23999998424551;625;100 mA
27.9327039294767;-0.199951171875;-0.0010272216796875;6.24999998422027;626;100 mA
27.9427039294515;-0.19989013671875;-0.0010308837890625;6.25999998419502;627;100 mA
27.9527039294262;-0.199920654296875;-0.001029052734375;6.26999998416977;628;100 mA
27.962703929401;-0.199859619140625;-0.00103546142578125;6.27999998414452;629;100 mA
27.9727039293757;-0.199859619140625;-0.00103057861328125;6.28999998411928;630;100 mA
27.9827039293505;-0.199859619140625;-0.00103302001953125;6.29999998409403;631;100 mA
27.9927039293252;-0.199951171875;-0.00103485107421875;6.30999998406878;632;100 mA
28.0027039293;-0.199859619140625;-0.00103302001953125;6.31999998404353;633;100 mA
28.0127039292747;-0.199920654296875;-0.00103759765625;6.32999998401829;634;100 mA
28.0227039292495;-0.199920654296875;-0.00103363037109375;6.33999998399304;635;100 mA
28.0327039292242;-0.199920654296875;-0.0010369873046875;6.34999998396779;636;100 mA
28.042703929199;-0.1998291015625;-0.0010418701171875;6.35999998394254;637;100 mA
28.0527039291737;-0.199859619140625;-0.00103790283203125;6.3699999839173;638;100 mA
28.0627039291485;-0.199920654296875;-0.001044921875;6.37999998389205;639;100 mA
28.0727039291232;-0.19989013671875;-0.0010400390625;6.3899999838668;640;100 mA
28.082703929098;-0.19989013671875;-0.00104400634765625;6.39999998384155;641;100 mA
28.0927039290727;-0.199859619140625;-0.00105010986328125;6.40999998381631;642;100 mA
28.1027039290475;-0.199920654296875;-0.001048583984375;6.41999998379106;643;100 mA
28.1127039290222;-0.19989013671875;-0.00105316162109375;6.42999998376581;644;100 mA
28.122703928997;-0.199859619140625;-0.00104644775390625;6.43999998374056;645;100 mA
28.1327039289718;-0.19989013671875;-0.0010504150390625;6.44999998371532;646;100 mA
28.1427039289465;-0.19989013671875;-0.00105194091796875;6.45999998369007;647;100 mA
28.1527039289213;-0.199920654296875;-0.001051025390625;6.46999998366482;648;100 mA
28.162703928896;-0.199859619140625;-0.001055908203125;6.47999998363957;649;100 mA
28.1727039288708;-0.199951171875;-0.00105010986328125;6.48999998361433;650;100 mA
28.1827039288455;-0.199920654296875;-0.00105438232421875;6.49999998358908;651;100 mA
28.1927039288203;-0.199951171875;-0.0010565185546875;6.50999998356383;652;100 mA
28.202703928795;-0.19989013671875;-0.00105560302734375;6.51999998353858;653;100 mA
28.2127039287698;-0.199859619140625;-0.001060791015625;6.52999998351333;654;100 mA
28.2227039287445;-0.199859619140625;-0.00105499267578125;6.53999998348809;655;100 mA
28.2327039287193;-0.19989013671875;-0.001058349609375;6.54999998346284;656;100 mA
28.242703928694;-0.19989013671875;-0.0010614013671875;6.55999998343759;657;100 mA
28.2527039286688;-0.199920654296875;-0.00106201171875;6.56999998341234;658;100 mA
28.2627039286435;-0.19989013671875;-0.00106292724609375;6.5799999833871;659;100 mA
28.2727039286183;-0.199981689453125;-0.00105926513671875;6.58999998336185;660;100 mA
28.282703928593;-0.19989013671875;-0.001064453125;6.5999999833366;661;100 mA
28.2927039285678;-0.199951171875;-0.0010675048828125;6.60999998331135;662;100 mA
28.3027039285425;-0.199859619140625;-0.00106658935546875;6.61999998328611;663;100 mA
28.3127039285173;-0.19989013671875;-0.00107147216796875;6.62999998326086;664;100 mA
28.322703928492;-0.199920654296875;-0.00106842041015625;6.63999998323561;665;100 mA
28.3327039284668;-0.199951171875;-0.00107177734375;6.64999998321036;666;100 mA
28.3427039284416;-0.199951171875;-0.00107513427734375;6.65999998318512;667;100 mA
28.3527039284163;-0.199951171875;-0.0010736083984375;6.66999998315987;668;100 mA
28.3627039283911;-0.199920654296875;-0.00107818603515625;6.67999998313462;669;100 mA
28.3727039283658;-0.199920654296875;-0.00107269287109375;6.68999998310937;670;100 mA
28.3827039283406;-0.199981689453125;-0.0010760498046875;6.69999998308413;671;100 mA
28.3927039283153;-0.199920654296875;-0.00107818603515625;6.70999998305888;672;100 mA
28.4027039282901;-0.19989013671875;-0.0010772705078125;6.71999998303363;673;100 mA
28.4127039282648;-0.199859619140625;-0.00108306884765625;6.72999998300838;674;100 mA
28.4227039282396;-0.199951171875;-0.0010760498046875;6.73999998298314;675;100 mA
28.4327039282143;-0.199920654296875;-0.001080322265625;6.74999998295789;676;100 mA
28.4427039281891;-0.19989013671875;-0.00108062744140625;6.75999998293264;677;100 mA
28.4527039281638;-0.19989013671875;-0.0010760498046875;6.76999998290739;678;100 mA
28.4627039281386;-0.199920654296875;-0.0010833740234375;6.77999998288215;679;100 mA
28.4727039281133;-0.19989013671875;-0.00107666015625;6.7899999828569;680;100 mA
28.4827039280881;-0.19989013671875;-0.00108123779296875;6.79999998283165;681;100 mA
28.4927039280628;-0.199920654296875;-0.00108367919921875;6.8099999828064;682;100 mA
28.5027039280376;-0.199920654296875;-0.00108123779296875;6.81999998278116;683;100 mA
28.5127039280123;-0.199951171875;-0.0010858154296875;6.82999998275591;684;100 mA
28.5227039279871;-0.19989013671875;-0.00108184814453125;6.83999998273066;685;100 mA
28.5327039279618;-0.199859619140625;-0.0010845947265625;6.84999998270541;686;100 mA
28.5427039279366;-0.199859619140625;-0.00108612060546875;6.85999998268016;687;100 mA
28.5527039279114;-0.19989013671875;-0.00108489990234375;6.86999998265492;688;100 mA
28.5627039278861;-0.19989013671875;-0.00109222412109375;6.87999998262967;689;100 mA
28.5727039278609;-0.19989013671875;-0.0010858154296875;6.88999998260442;690;100 mA
28.5827039278356;-0.199920654296875;-0.00109222412109375;6.89999998257917;691;100 mA
28.5927039278104;-0.19989013671875;-0.00109375;6.90999998255393;692;100 mA
28.6027039277851;-0.199859619140625;-0.0010870361328125;6.91999998252868;693;100 mA
28.6127039277599;-0.199920654296875;-0.00109375;6.92999998250343;694;100 mA
28.6227039277346;-0.199920654296875;-0.001087646484375;6.93999998247818;695;100 mA
28.6327039277094;-0.199859619140625;-0.00109130859375;6.94999998245294;696;100 mA
28.6427039276841;-0.199951171875;-0.001092529296875;6.95999998242769;697;100 mA
28.6527039276589;-0.199981689453125;-0.00108978271484375;6.96999998240244;698;100 mA
28.6627039276336;-0.1998291015625;-0.00109527587890625;6.97999998237719;699;100 mA
28.6727039276084;-0.199920654296875;-0.00108795166015625;6.98999998235195;700;100 mA
28.6827039275831;-0.199951171875;-0.00109222412109375;6.9999999823267;701;100 mA
28.6927039275579;-0.19989013671875;-0.00109466552734375;7.00999998230145;702;100 mA
28.7027039275326;-0.199920654296875;-0.0010906982421875;7.0199999822762;703;100 mA
28.7127039275074;-0.199859619140625;-0.00109649658203125;7.02999998225096;704;100 mA
28.7227039274821;-0.199920654296875;-0.00108795166015625;7.03999998222571;705;100 mA
28.7327039274569;-0.19989013671875;-0.00109222412109375;7.04999998220046;706;100 mA
28.7427039274316;-0.199920654296875;-0.00109283447265625;7.05999998217521;707;100 mA
28.7527039274064;-0.19989013671875;-0.0010931396484375;7.06999998214997;708;100 mA
28.7627039273812;-0.19989013671875;-0.0010955810546875;7.07999998212472;709;100 mA
28.7727039273559;-0.199981689453125;-0.001090087890625;7.08999998209947;710;100 mA
28.7827039273307;-0.199798583984375;-0.00109375;7.09999998207422;711;100 mA
28.7927039273054;-0.19989013671875;-0.00109649658203125;7.10999998204898;712;100 mA
28.8027039272802;-0.199859619140625;-0.0010986328125;7.11999998202373;713;100 mA
28.8127039272549;-0.199951171875;-0.00110260009765625;7.12999998199848;714;100 mA
28.8227039272297;-0.199859619140625;-0.0010992431640625;7.13999998197323;715;100 mA
28.8327039272044;-0.199920654296875;-0.00110321044921875;7.14999998194799;716;100 mA
28.8427039271792;-0.199920654296875;-0.00110137939453125;7.15999998192274;717;100 mA
28.8527039271539;-0.199920654296875;-0.0011016845703125;7.16999998189749;718;100 mA
28.8627039271287;-0.199951171875;-0.00110595703125;7.17999998187224;719;100 mA
28.8727039271034;-0.199920654296875;-0.001099853515625;7.189999981847;720;100 mA
28.8827039270782;-0.199859619140625;-0.00110382080078125;7.19999998182175;721;100 mA
28.8927039270529;-0.199859619140625;-0.00110687255859375;7.2099999817965;722;100 mA
28.9027039270277;-0.19989013671875;-0.00110504150390625;7.21999998177125;723;100 mA
28.9127039270024;-0.19989013671875;-0.00110992431640625;7.229999981746;724;100 mA
28.9227039269772;-0.199859619140625;-0.0011053466796875;7.23999998172076;725;100 mA
28.9327039269519;-0.19989013671875;-0.00110687255859375;7.24999998169551;726;100 mA
28.9427039269267;-0.199859619140625;-0.00110992431640625;7.25999998167026;727;100 mA
28.9527039269014;-0.19989013671875;-0.00110809326171875;7.26999998164501;728;100 mA
28.9627039268762;-0.199951171875;-0.00111083984375;7.27999998161977;729;100 mA
28.972703926851;-0.199920654296875;-0.00110748291015625;7.28999998159452;730;100 mA
28.9827039268257;-0.199798583984375;-0.00111236572265625;7.29999998156927;731;100 mA
28.9927039268005;-0.199920654296875;-0.00111419677734375;7.30999998154402;732;100 mA
29.0027039267752;-0.19989013671875;-0.00111419677734375;7.31999998151878;733;100 mA
29.01270392675;-0.19989013671875;-0.0011175537109375;7.32999998149353;734;100 mA
29.0227039267247;-0.19989013671875;-0.0011138916015625;7.33999998146828;735;100 mA
29.0327039266995;-0.199920654296875;-0.00111846923828125;7.34999998144303;736;100 mA
29.0427039266742;-0.199920654296875;-0.00112152099609375;7.35999998141779;737;100 mA
29.052703926649;-0.199920654296875;-0.00111968994140625;7.36999998139254;738;100 mA
29.0627039266237;-0.19989013671875;-0.00112579345703125;7.37999998136729;739;100 mA
29.0727039265985;-0.199951171875;-0.00112091064453125;7.38999998134204;740;100 mA
29.0827039265732;-0.199859619140625;-0.0011224365234375;7.3999999813168;741;100 mA
29.092703926548;-0.19989013671875;-0.00112457275390625;7.40999998129155;742;100 mA
29.1027039265227;-0.199920654296875;-0.0011224365234375;7.4199999812663;743;100 mA
29.1127039264975;-0.19989013671875;-0.00112762451171875;7.42999998124105;744;100 mA
29.1227039264722;-0.199951171875;-0.00112213134765625;7.43999998121581;745;100 mA
29.132703926447;-0.199951171875;-0.00112579345703125;7.44999998119056;746;100 mA
29.1427039264217;-0.199951171875;-0.00112701416015625;7.45999998116531;747;100 mA
29.1527039263965;-0.19989013671875;-0.0011260986328125;7.46999998114006;748;100 mA
29.1627039263713;-0.199920654296875;-0.0011322021484375;7.47999998111482;749;100 mA
29.172703926346;-0.199859619140625;-0.00112762451171875;7.48999998108957;750;100 mA
29.1827039263208;-0.19989013671875;-0.00113128662109375;7.49999998106432;751;100 mA
29.1927039262955;-0.19989013671875;-0.0011328125;7.50999998103907;752;100 mA
29.2027039262703;-0.199920654296875;-0.00113067626953125;7.51999998101383;753;100 mA
29.212703926245;-0.199951171875;-0.0011376953125;7.52999998098858;754;100 mA
29.2227039262198;-0.199920654296875;-0.00113128662109375;7.53999998096333;755;100 mA
29.2327039261945;-0.199920654296875;-0.0011358642578125;7.54999998093808;756;100 mA
29.2427039261693;-0.19989013671875;-0.00114044189453125;7.55999998091283;757;100 mA
29.252703926144;-0.199951171875;-0.00113494873046875;7.56999998088759;758;100 mA
29.2627039261188;-0.19989013671875;-0.0011419677734375;7.57999998086234;759;100 mA
29.2727039260935;-0.199859619140625;-0.001136474609375;7.58999998083709;760;100 mA
29.2827039260683;-0.199920654296875;-0.0011407470703125;7.59999998081184;761;100 mA
29.292703926043;-0.199920654296875;-0.00114349365234375;7.6099999807866;762;100 mA
29.3027039260178;-0.199859619140625;-0.0011419677734375;7.61999998076135;763;100 mA
29.3127039259925;-0.19989013671875;-0.00114501953125;7.6299999807361;764;100 mA
29.3227039259673;-0.19989013671875;-0.00113922119140625;7.63999998071085;765;100 mA
29.332703925942;-0.199920654296875;-0.00114471435546875;7.64999998068561;766;100 mA
29.3427039259168;-0.199951171875;-0.001146240234375;7.65999998066036;767;100 mA
29.3527039258915;-0.19989013671875;-0.00114410400390625;7.66999998063511;768;100 mA
29.3627039258663;-0.199951171875;-0.001148681640625;7.67999998060986;769;100 mA
29.3727039258411;-0.199951171875;-0.00114227294921875;7.68999998058462;770;100 mA
29.3827039258158;-0.199920654296875;-0.0011480712890625;7.69999998055937;771;100 mA
29.3927039257906;-0.199920654296875;-0.00115081787109375;7.70999998053412;772;100 mA
29.4027039257653;-0.19989013671875;-0.00114715576171875;7.71999998050887;773;100 mA
29.4127039257401;-0.199920654296875;-0.00115264892578125;7.72999998048363;774;100 mA
29.4227039257148;-0.199951171875;-0.00114715576171875;7.73999998045838;775;100 mA
29.4327039256896;-0.19989013671875;-0.0011517333984375;7.74999998043313;776;100 mA
29.4427039256643;-0.199859619140625;-0.00115020751953125;7.75999998040788;777;100 mA
29.4527039256391;-0.1998291015625;-0.001146240234375;7.76999998038264;778;100 mA
29.4627039256138;-0.199920654296875;-0.00115447998046875;7.77999998035739;779;100 mA
29.4727039255886;-0.19989013671875;-0.00115020751953125;7.78999998033214;780;100 mA
29.4827039255633;-0.199859619140625;-0.00115325927734375;7.79999998030689;781;100 mA
29.4927039255381;-0.19989013671875;-0.00115509033203125;7.80999998028165;782;100 mA
29.5027039255128;-0.19989013671875;-0.00115264892578125;7.8199999802564;783;100 mA
29.5127039254876;-0.199920654296875;-0.0011590576171875;7.82999998023115;784;100 mA
29.5227039254623;-0.199951171875;-0.001151123046875;7.8399999802059;785;100 mA
29.5327039254371;-0.199920654296875;-0.0011578369140625;7.84999998018066;786;100 mA
29.5427039254118;-0.19989013671875;-0.0011614990234375;7.85999998015541;787;100 mA
29.5527039253866;-0.19989013671875;-0.001160888671875;7.86999998013016;788;100 mA
29.5627039253613;-0.199920654296875;-0.00116485595703125;7.87999998010491;789;100 mA
29.5727039253361;-0.199859619140625;-0.00116119384765625;7.88999998007966;790;100 mA
29.5827039253109;-0.19989013671875;-0.0011651611328125;7.89999998005442;791;100 mA
29.5927039252856;-0.199859619140625;-0.00116607666015625;7.90999998002917;792;100 mA
29.6027039252604;-0.199920654296875;-0.00116455078125;7.91999998000392;793;100 mA
29.6127039252351;-0.199859619140625;-0.0011688232421875;7.92999997997867;794;100 mA
29.6227039252099;-0.199951171875;-0.00116180419921875;7.93999997995343;795;100 mA
29.6327039251846;-0.19989013671875;-0.0011676025390625;7.94999997992818;796;100 mA
29.6427039251594;-0.199981689453125;-0.00116729736328125;7.95999997990293;797;100 mA
29.6527039251341;-0.199951171875;-0.00116851806640625;7.96999997987768;798;100 mA
29.6627039251089;-0.199920654296875;-0.001171875;7.97999997985244;799;100 mA
29.6727039250836;-0.199981689453125;-0.0011651611328125;7.98999997982719;800;100 mA
29.6827039250584;-0.199951171875;-0.0011553955078125;7.99999997980194;801;100 mA
29.6927039250331;-0.19989013671875;-0.00117034912109375;8.00999997977669;802;100 mA
29.7027039250079;-0.199859619140625;-0.00117095947265625;8.01999997975145;803;100 mA
29.7127039249826;-0.199920654296875;-0.00117462158203125;8.0299999797262;804;100 mA
29.7227039249574;-0.199951171875;-0.00117156982421875;8.03999997970095;805;100 mA
29.7327039249321;-0.19989013671875;-0.00117431640625;8.0499999796757;806;100 mA
29.7427039249069;-0.19989013671875;-0.00117767333984375;8.05999997965046;807;100 mA
29.7527039248816;-0.199859619140625;-0.00117828369140625;8.06999997962521;808;100 mA
29.7627039248564;-0.199951171875;-0.00118133544921875;8.07999997959996;809;100 mA
29.7727039248311;-0.199981689453125;-0.00117645263671875;8.08999997957471;810;100 mA
29.7827039248059;-0.19989013671875;-0.0011798095703125;8.09999997954947;811;100 mA
29.7927039247807;-0.199859619140625;-0.00117889404296875;8.10999997952422;812;100 mA
29.8027039247554;-0.1998291015625;-0.00117889404296875;8.11999997949897;813;100 mA
29.8127039247302;-0.19989013671875;-0.00118408203125;8.12999997947372;814;100 mA
29.8227039247049;-0.199920654296875;-0.00117889404296875;8.13999997944848;815;100 mA
29.8327039246797;-0.19989013671875;-0.001181640625;8.14999997942323;816;100 mA
29.8427039246544;-0.199920654296875;-0.00118255615234375;8.15999997939798;817;100 mA
29.8527039246292;-0.199951171875;-0.0011822509765625;8.16999997937273;818;100 mA
29.8627039246039;-0.19989013671875;-0.00118560791015625;8.17999997934749;819;100 mA
29.8727039245787;-0.199920654296875;-0.00118072509765625;8.18999997932224;820;100 mA
29.8827039245534;-0.199920654296875;-0.0011871337890625;8.19999997929699;821;100 mA
29.8927039245282;-0.199920654296875;-0.00118682861328125;8.20999997927174;822;100 mA
29.9027039245029;-0.199951171875;-0.00118560791015625;8.2199999792465;823;100 mA
29.9127039244777;-0.19989013671875;-0.001190185546875;8.22999997922125;824;100 mA
29.9227039244524;-0.199920654296875;-0.00118255615234375;8.239999979196;825;100 mA
29.9327039244272;-0.199859619140625;-0.0011859130859375;8.24999997917075;826;100 mA
29.9427039244019;-0.19989013671875;-0.00118743896484375;8.2599999791455;827;100 mA
29.9527039243767;-0.19989013671875;-0.001187744140625;8.26999997912026;828;100 mA
29.9627039243514;-0.19989013671875;-0.001170654296875;8.27999997909501;829;100 mA
29.9727039243262;-0.199859619140625;-0.00118621826171875;8.28999997906976;830;100 mA
29.9827039243009;-0.199951171875;-0.00118896484375;8.29999997904451;831;100 mA
29.9927039242757;-0.199920654296875;-0.0011907958984375;8.30999997901927;832;100 mA
30.0027039242505;-0.19989013671875;-0.00118896484375;8.31999997899402;833;100 mA
30.0127039242252;-0.199920654296875;-0.00119293212890625;8.32999997896877;834;100 mA
30.0227039242;-0.199859619140625;-0.00118804931640625;8.33999997894352;835;100 mA
30.0327039241747;-0.199981689453125;-0.0011920166015625;8.34999997891828;836;100 mA
30.0427039241495;-0.199920654296875;-0.00119140625;8.35999997889303;837;100 mA
30.0527039241242;-0.199859619140625;-0.001187744140625;8.36999997886778;838;100 mA
30.062703924099;-0.199920654296875;-0.0011822509765625;8.37999997884253;839;100 mA
30.0727039240737;-0.199920654296875;-0.0011871337890625;8.38999997881729;840;100 mA
30.0827039240485;-0.199951171875;-0.00119476318359375;8.39999997879204;841;100 mA
30.0927039240232;-0.19989013671875;-0.00119415283203125;8.40999997876679;842;100 mA
30.102703923998;-0.199859619140625;-0.001195068359375;8.41999997874154;843;100 mA
30.1127039239727;-0.19989013671875;-0.00119964599609375;8.4299999787163;844;100 mA
30.1227039239475;-0.1998291015625;-0.00119537353515625;8.43999997869105;845;100 mA
30.1327039239222;-0.19989013671875;-0.00119720458984375;8.4499999786658;846;100 mA
30.142703923897;-0.19989013671875;-0.001197509765625;8.45999997864055;847;100 mA
30.1527039238717;-0.199920654296875;-0.00119842529296875;8.46999997861531;848;100 mA
30.1627039238465;-0.199920654296875;-0.00120269775390625;8.47999997859006;849;100 mA
30.1727039238212;-0.19989013671875;-0.00119598388671875;8.48999997856481;850;100 mA
30.182703923796;-0.19989013671875;-0.0012005615234375;8.49999997853956;851;100 mA
30.1927039237708;-0.199951171875;-0.001199951171875;8.50999997851432;852;100 mA
30.2027039237455;-0.199859619140625;-0.00119964599609375;8.51999997848907;853;100 mA
30.2127039237203;-0.199951171875;-0.0012060546875;8.52999997846382;854;100 mA
30.222703923695;-0.199920654296875;-0.00119903564453125;8.53999997843857;855;100 mA
30.2327039236698;-0.19989013671875;-0.001204833984375;8.54999997841333;856;100 mA
30.2427039236445;-0.199920654296875;-0.0012060546875;8.55999997838808;857;100 mA
30.2527039236193;-0.199920654296875;-0.00120513916015625;8.56999997836283;858;100 mA
30.262703923594;-0.19989013671875;-0.0012103271484375;8.57999997833758;859;100 mA
30.2727039235688;-0.199859619140625;-0.0012042236328125;8.58999997831233;860;100 mA
30.2827039235435;-0.199859619140625;-0.001209716796875;8.59999997828709;861;100 mA
30.2927039235183;-0.199859619140625;-0.001209716796875;8.60999997826184;862;100 mA
30.302703923493;-0.199920654296875;-0.0012103271484375;8.61999997823659;863;100 mA
30.3127039234678;-0.19989013671875;-0.0012109375;8.62999997821134;864;100 mA
30.3227039234425;-0.199920654296875;-0.00120574951171875;8.6399999781861;865;100 mA
30.3327039234173;-0.19989013671875;-0.00121063232421875;8.64999997816085;866;100 mA
30.342703923392;-0.199951171875;-0.001209716796875;8.6599999781356;867;100 mA
30.3527039233668;-0.199951171875;-0.001209716796875;8.66999997811035;868;100 mA
30.3627039233415;-0.19989013671875;-0.00121246337890625;8.67999997808511;869;100 mA
30.3727039233163;-0.199920654296875;-0.00120849609375;8.68999997805986;870;100 mA
30.382703923291;-0.199951171875;-0.001212158203125;8.69999997803461;871;100 mA
30.3927039232658;-0.199920654296875;-0.001212158203125;8.70999997800936;872;100 mA
30.4027039232406;-0.199951171875;-0.00121063232421875;8.71999997798412;873;100 mA
30.4127039232153;-0.19989013671875;-0.00121368408203125;8.72999997795887;874;100 mA
30.4227039231901;-0.199920654296875;-0.001204833984375;8.73999997793362;875;100 mA
30.4327039231648;-0.199920654296875;-0.00121337890625;8.74999997790837;876;100 mA
30.4427039231396;-0.19989013671875;-0.0012139892578125;8.75999997788313;877;100 mA
30.4527039231143;-0.199951171875;-0.001212158203125;8.76999997785788;878;100 mA
30.4627039230891;-0.199981689453125;-0.00121673583984375;8.77999997783263;879;100 mA
30.4727039230638;-0.199951171875;-0.001212158203125;8.78999997780738;880;100 mA
30.4827039230386;-0.19989013671875;-0.00121734619140625;8.79999997778214;881;100 mA
30.4927039230133;-0.19989013671875;-0.0012188720703125;8.80999997775689;882;100 mA
30.5027039229881;-0.199920654296875;-0.00121826171875;8.81999997773164;883;100 mA
30.5127039229628;-0.19989013671875;-0.001221923828125;8.82999997770639;884;100 mA
30.5227039229376;-0.19989013671875;-0.0012127685546875;8.83999997768115;885;100 mA
30.5327039229123;-0.1998291015625;-0.001221923828125;8.8499999776559;886;100 mA
30.5427039228871;-0.199920654296875;-0.0012225341796875;8.85999997763065;887;100 mA
30.5527039228618;-0.199920654296875;-0.001220703125;8.8699999776054;888;100 mA
30.5627039228366;-0.19989013671875;-0.0012249755859375;8.87999997758016;889;100 mA
30.5727039228113;-0.199859619140625;-0.00121795654296875;8.88999997755491;890;100 mA
30.5827039227861;-0.199859619140625;-0.00122406005859375;8.89999997752966;891;100 mA
30.5927039227608;-0.199920654296875;-0.00122344970703125;8.90999997750441;892;100 mA
30.6027039227356;-0.199920654296875;-0.0012188720703125;8.91999997747916;893;100 mA
30.6127039227104;-0.19989013671875;-0.001190185546875;8.92999997745392;894;100 mA
30.6227039226851;-0.1998291015625;-0.00118194580078125;8.93999997742867;895;100 mA
30.6327039226599;-0.199951171875;-0.0012127685546875;8.94999997740342;896;100 mA
30.6427039226346;-0.199920654296875;-0.0012139892578125;8.95999997737817;897;100 mA
30.6527039226094;-0.199920654296875;-0.00121063232421875;8.96999997735293;898;100 mA
30.6627039225841;-0.19989013671875;-0.0012188720703125;8.97999997732768;899;100 mA
30.6727039225589;-0.199920654296875;-0.00120635986328125;8.98999997730243;900;100 mA
30.6827039225336;-0.19989013671875;-0.00121185302734375;8.99999997727718;901;100 mA
30.6927039225084;-0.19989013671875;-0.0012078857421875;9.00999997725194;902;100 mA
30.7027039224831;-0.19989013671875;-0.0012139892578125;9.01999997722669;903;100 mA
30.7127039224579;-0.199920654296875;-0.00121673583984375;9.02999997720144;904;100 mA
30.7227039224326;-0.199981689453125;-0.00121307373046875;9.03999997717619;905;100 mA
30.7327039224074;-0.19989013671875;-0.00121826171875;9.04999997715095;906;100 mA
30.7427039223821;-0.199951171875;-0.0012188720703125;9.0599999771257;907;100 mA
30.7527039223569;-0.19989013671875;-0.00122283935546875;9.06999997710045;908;100 mA
30.7627039223316;-0.199920654296875;-0.0012261962890625;9.0799999770752;909;100 mA
30.7727039223064;-0.199920654296875;-0.00121917724609375;9.08999997704996;910;100 mA
30.7827039222811;-0.199920654296875;-0.00122589111328125;9.09999997702471;911;100 mA
30.7927039222559;-0.199951171875;-0.00122650146484375;9.10999997699946;912;100 mA
30.8027039222306;-0.199859619140625;-0.001224365234375;9.11999997697421;913;100 mA
30.8127039222054;-0.199951171875;-0.00122894287109375;9.12999997694897;914;100 mA
30.8227039221802;-0.19989013671875;-0.001221923828125;9.13999997692372;915;100 mA
30.8327039221549;-0.199920654296875;-0.001226806640625;9.14999997689847;916;100 mA
30.8427039221297;-0.199951171875;-0.00122467041015625;9.15999997687322;917;100 mA
30.8527039221044;-0.199951171875;-0.00122589111328125;9.16999997684798;918;100 mA
30.8627039220792;-0.199920654296875;-0.0012249755859375;9.17999997682273;919;100 mA
30.8727039220539;-0.19989013671875;-0.00122161865234375;9.18999997679748;920;100 mA
30.8827039220287;-0.19989013671875;-0.00122802734375;9.19999997677223;921;100 mA
30.8927039220034;-0.1998291015625;-0.001226806640625;9.20999997674699;922;100 mA
30.9027039219782;-0.199920654296875;-0.0012225341796875;9.21999997672174;923;100 mA
30.9127039219529;-0.199920654296875;-0.001221923828125;9.22999997669649;924;100 mA
30.9227039219277;-0.199951171875;-0.00117706298828125;9.23999997667124;925;100 mA
30.9327039219024;-0.199859619140625;-0.00121551513671875;9.249999976646;926;100 mA
30.9427039218772;-0.199920654296875;-0.0011968994140625;9.25999997662075;927;100 mA
30.9527039218519;-0.199951171875;-0.0012139892578125;9.2699999765955;928;100 mA
30.9627039218267;-0.199859619140625;-0.00121551513671875;9.27999997657025;929;100 mA
30.9727039218014;-0.199951171875;-0.00120941162109375;9.289999976545;930;100 mA
30.9827039217762;-0.199920654296875;-0.00122589111328125;9.29999997651976;931;100 mA
30.9927039217509;-0.199920654296875;-0.0012225341796875;9.30999997649451;932;100 mA
31.0027039217257;-0.199859619140625;-0.00122650146484375;9.31999997646926;933;100 mA
31.0127039217004;-0.199951171875;-0.00123016357421875;9.32999997644401;934;100 mA
31.0227039216752;-0.199951171875;-0.00122161865234375;9.33999997641877;935;100 mA
31.03270392165;-0.199920654296875;-0.00122772216796875;9.34999997639352;936;100 mA
31.0427039216247;-0.19989013671875;-0.0012274169921875;9.35999997636827;937;100 mA
31.0527039215995;-0.19989013671875;-0.001226806640625;9.36999997634302;938;100 mA
31.0627039215742;-0.199951171875;-0.00123016357421875;9.37999997631778;939;100 mA
31.072703921549;-0.199951171875;-0.001224365234375;9.38999997629253;940;100 mA
31.0827039215237;-0.199951171875;-0.00122772216796875;9.39999997626728;941;100 mA
31.0927039214985;-0.19989013671875;-0.00122802734375;9.40999997624203;942;100 mA
31.1027039214732;-0.19989013671875;-0.00122406005859375;9.41999997621679;943;100 mA
31.112703921448;-0.199920654296875;-0.0012261962890625;9.42999997619154;944;100 mA
31.1227039214227;-0.19989013671875;-0.00122100830078125;9.43999997616629;945;100 mA
31.1327039213975;-0.199920654296875;-0.0012261962890625;9.44999997614104;946;100 mA
31.1427039213722;-0.19989013671875;-0.0012237548828125;9.4599999761158;947;100 mA
31.152703921347;-0.199981689453125;-0.0012213134765625;9.46999997609055;948;100 mA
31.1627039213217;-0.199920654296875;-0.00121978759765625;9.4799999760653;949;100 mA
31.1727039212965;-0.19989013671875;-0.0012139892578125;9.48999997604005;950;100 mA
31.1827039212712;-0.199920654296875;-0.001220703125;9.49999997601481;951;100 mA
31.192703921246;-0.199859619140625;-0.00121978759765625;9.50999997598956;952;100 mA
31.2027039212207;-0.199920654296875;-0.0012213134765625;9.51999997596431;953;100 mA
31.2127039211955;-0.199920654296875;-0.0012274169921875;9.52999997593906;954;100 mA
31.2227039211703;-0.199920654296875;-0.00122314453125;9.53999997591382;955;100 mA
31.232703921145;-0.199920654296875;-0.0012298583984375;9.54999997588857;956;100 mA
31.2427039211198;-0.1998291015625;-0.00123291015625;9.55999997586332;957;100 mA
31.2527039210945;-0.19989013671875;-0.0012274169921875;9.56999997583807;958;100 mA
31.2627039210693;-0.20001220703125;-0.00123199462890625;9.57999997581283;959;100 mA
31.272703921044;-0.19989013671875;-0.00122833251953125;9.58999997578758;960;100 mA
31.2827039210188;-0.199920654296875;-0.00123321533203125;9.59999997576233;961;100 mA
31.2927039209935;-0.199920654296875;-0.00123291015625;9.60999997573708;962;100 mA
31.3027039209683;-0.199859619140625;-0.0012310791015625;9.61999997571183;963;100 mA
31.312703920943;-0.199859619140625;-0.00123565673828125;9.62999997568659;964;100 mA
31.3227039209178;-0.199920654296875;-0.00122802734375;9.63999997566134;965;100 mA
31.3327039208925;-0.199920654296875;-0.001231689453125;9.64999997563609;966;100 mA
31.3427039208673;-0.19989013671875;-0.00122833251953125;9.65999997561084;967;100 mA
31.352703920842;-0.199859619140625;-0.00122955322265625;9.6699999755856;968;100 mA
31.3627039208168;-0.199951171875;-0.0012322998046875;9.67999997556035;969;100 mA
31.3727039207915;-0.199859619140625;-0.001224365234375;9.6899999755351;970;100 mA
31.3827039207663;-0.199859619140625;-0.00123016357421875;9.69999997550985;971;100 mA
31.392703920741;-0.19989013671875;-0.0012261962890625;9.70999997548461;972;100 mA
31.4027039207158;-0.19989013671875;-0.001220703125;9.71999997545936;973;100 mA
31.4127039206905;-0.199859619140625;-0.00122650146484375;9.72999997543411;974;100 mA
31.4227039206653;-0.199951171875;-0.00122161865234375;9.73999997540886;975;100 mA
31.4327039206401;-0.19989013671875;-0.0012237548828125;9.74999997538362;976;100 mA
31.4427039206148;-0.19989013671875;-0.00122589111328125;9.75999997535837;977;100 mA
31.4527039205896;-0.199920654296875;-0.00122650146484375;9.76999997533312;978;100 mA
31.4627039205643;-0.199951171875;-0.0012298583984375;9.77999997530787;979;100 mA
31.4727039205391;-0.19989013671875;-0.00122772216796875;9.78999997528263;980;100 mA
31.4827039205138;-0.1998291015625;-0.00123260498046875;9.79999997525738;981;100 mA
31.4927039204886;-0.19989013671875;-0.00123199462890625;9.80999997523213;982;100 mA
31.5027039204633;-0.199920654296875;-0.001231689453125;9.81999997520688;983;100 mA
31.5127039204381;-0.19989013671875;-0.00123504638671875;9.82999997518164;984;100 mA
31.5227039204128;-0.199859619140625;-0.0012310791015625;9.83999997515639;985;100 mA
31.5327039203876;-0.19989013671875;-0.00123626708984375;9.84999997513114;986;100 mA
31.5427039203623;-0.199920654296875;-0.0012347412109375;9.85999997510589;987;100 mA
31.5527039203371;-0.199920654296875;-0.00123291015625;9.86999997508065;988;100 mA
31.5627039203118;-0.19989013671875;-0.00123504638671875;9.8799999750554;989;100 mA
31.5727039202866;-0.19989013671875;-0.001231689453125;9.88999997503015;990;100 mA
31.5827039202613;-0.199951171875;-0.0012359619140625;9.8999999750049;991;100 mA
31.5927039202361;-0.199859619140625;-0.0012353515625;9.90999997497966;992;100 mA
31.6027039202108;-0.19989013671875;-0.0012335205078125;9.91999997495441;993;100 mA
31.6127039201856;-0.19989013671875;-0.0012347412109375;9.92999997492916;994;100 mA
31.6227039201603;-0.199920654296875;-0.001231689453125;9.93999997490391;995;100 mA
31.6327039201351;-0.19989013671875;-0.00123504638671875;9.94999997487866;996;100 mA
31.6427039201099;-0.199920654296875;-0.00123077392578125;9.95999997485342;997;100 mA
31.6527039200846;-0.199920654296875;-0.0012335205078125;9.96999997482817;998;100 mA
31.6627039200594;-0.199859619140625;-0.00123382568359375;9.97999997480292;999;100 mA
31.6727039200341;-0.199859619140625;-0.00123199462890625;9.98999997477767;1000;100 mA
