Time (s);WE(1).Potential (V);WE(1).Current (A);Corrected time (s);Index;Current range
11.106431971959;0.29986572265625;0.0024884033203125;0;1;100 mA
11.1164319719337;0.2998046875;0.00271484375;0.00999999997475243;2;100 mA
11.1264319719085;0.29986572265625;0.0028558349609375;0.0199999999495049;3;100 mA
11.1364319718832;0.29986572265625;0.00291351318359375;0.0299999999242573;4;100 mA
11.146431971858;0.299835205078125;0.0030218505859375;0.0399999998990097;5;100 mA
11.1564319718327;0.299835205078125;0.0030096435546875;0.0499999998737621;6;100 mA
11.1664319718075;0.299835205078125;0.00307159423828125;0.0599999998485146;7;100 mA
11.1764319717822;0.299896240234375;0.003033447265625;0.069999999823267;8;100 mA
11.186431971757;0.29986572265625;0.00306732177734375;0.0799999997980194;9;100 mA
11.1964319717317;0.299835205078125;0.00305206298828125;0.0899999997727718;10;100 mA
11.2064319717065;0.299896240234375;0.0030810546875;0.0999999997475243;11;100 mA
11.2164319716812;0.29986572265625;0.00311309814453125;0.109999999722277;12;100 mA
11.226431971656;0.299835205078125;0.0031390380859375;0.119999999697029;13;100 mA
11.2364319716307;0.29986572265625;0.003162841796875;0.129999999671782;14;100 mA
11.2464319716055;0.2998046875;0.0031378173828125;0.139999999646534;15;100 mA
11.2564319715802;0.299835205078125;0.00318634033203125;0.149999999621286;16;100 mA
11.266431971555;0.299896240234375;0.0031707763671875;0.159999999596039;17;100 mA
11.2764319715297;0.2999267578125;0.00321441650390625;0.169999999570791;18;100 mA
11.2864319715045;0.2998046875;0.0031658935546875;0.179999999545544;19;100 mA
11.2964319714793;0.299835205078125;0.00316802978515625;0.189999999520296;20;100 mA
11.306431971454;0.2998046875;0.00316802978515625;0.199999999495049;21;100 mA
11.3164319714288;0.299896240234375;0.00317718505859375;0.209999999469801;22;100 mA
11.3264319714035;0.29986572265625;0.0032037353515625;0.219999999444553;23;100 mA
11.3364319713783;0.299896240234375;0.0031890869140625;0.229999999419306;24;100 mA
11.346431971353;0.299896240234375;0.00322509765625;0.239999999394058;25;100 mA
11.3564319713278;0.2998046875;0.00319580078125;0.249999999368811;26;100 mA
11.3664319713025;0.299835205078125;0.0032061767578125;0.259999999343563;27;100 mA
11.3764319712773;0.299835205078125;0.00315521240234375;0.269999999318316;28;100 mA
11.386431971252;0.299896240234375;0.00316864013671875;0.279999999293068;29;100 mA
11.3964319712268;0.2998046875;0.00314361572265625;0.28999999926782;30;100 mA
11.4064319712015;0.299835205078125;0.0031298828125;0.299999999242573;31;100 mA
11.4164319711763;0.29986572265625;0.0031304931640625;0.309999999217325;32;100 mA
11.426431971151;0.299835205078125;0.0031298828125;0.319999999192078;33;100 mA
11.4364319711258;0.2998046875;0.00313629150390625;0.32999999916683;34;100 mA
11.4464319711005;0.29986572265625;0.00318023681640625;0.339999999141583;35;100 mA
11.4564319710753;0.299774169921875;0.00321807861328125;0.349999999116335;36;100 mA
11.46643197105;0.29986572265625;0.0031884765625;0.359999999091087;37;100 mA
11.4764319710248;0.2998046875;0.00319091796875;0.36999999906584;38;100 mA
11.4864319709995;0.299835205078125;0.0031756591796875;0.379999999040592;39;100 mA
11.4964319709743;0.2998046875;0.003209228515625;0.389999999015345;40;100 mA
11.5064319709491;0.299835205078125;0.003193359375;0.399999998990097;41;100 mA
11.5164319709238;0.29986572265625;0.0031866455078125;0.40999999896485;42;100 mA
11.5264319708986;0.2998046875;0.0031622314453125;0.419999998939602;43;100 mA
11.5364319708733;0.29986572265625;0.003148193359375;0.429999998914354;44;100 mA
11.5464319708481;0.299835205078125;0.00314208984375;0.439999998889107;45;100 mA
11.5564319708228;0.2999267578125;0.00316253662109375;0.449999998863859;46;100 mA
11.5664319707976;0.29986572265625;0.00314605712890625;0.459999998838612;47;100 mA
11.5764319707723;0.29986572265625;0.0031683349609375;0.469999998813364;48;100 mA
11.5864319707471;0.299896240234375;0.00316497802734375;0.479999998788116;49;100 mA
11.5964319707218;0.299774169921875;0.00315338134765625;0.489999998762869;50;100 mA
11.6064319706966;0.299835205078125;0.0031683349609375;0.499999998737621;51;100 mA
11.6164319706713;0.2999267578125;0.00314971923828125;0.509999998712374;52;100 mA
11.6264319706461;0.29986572265625;0.0031658935546875;0.519999998687126;53;100 mA
11.6364319706208;0.299835205078125;0.00310821533203125;0.529999998661879;54;100 mA
11.6464319705956;0.2998046875;0.00313751220703125;0.539999998636631;55;100 mA
11.6564319705703;0.29986572265625;0.00313140869140625;0.549999998611383;56;100 mA
11.6664319705451;0.299835205078125;0.003209228515625;0.559999998586136;57;100 mA
11.6764319705198;0.2998046875;0.00324432373046875;0.569999998560888;58;100 mA
11.6864319704946;0.299896240234375;0.00323089599609375;0.579999998535641;59;100 mA
11.6964319704693;0.29986572265625;0.00318634033203125;0.589999998510393;60;100 mA
11.7064319704441;0.29986572265625;0.0031597900390625;0.599999998485146;61;100 mA
11.7164319704189;0.299896240234375;0.003193359375;0.609999998459898;62;100 mA
11.7264319703936;0.2998046875;0.0032012939453125;0.61999999843465;63;100 mA
11.7364319703684;0.2999267578125;0.003194580078125;0.629999998409403;64;100 mA
11.7464319703431;0.29986572265625;0.00318206787109375;0.639999998384155;65;100 mA
11.7564319703179;0.299957275390625;0.00314971923828125;0.649999998358908;66;100 mA
11.7664319702926;0.299896240234375;0.00315521240234375;0.65999999833366;67;100 mA
11.7764319702674;0.299835205078125;0.00317626953125;0.669999998308413;68;100 mA
11.7864319702421;0.2999267578125;0.003165283203125;0.679999998283165;69;100 mA
11.7964319702169;0.29986572265625;0.0031768798828125;0.689999998257917;70;100 mA
11.8064319701916;0.299835205078125;0.003193359375;0.69999999823267;71;100 mA
11.8164319701664;0.29986572265625;0.003184814453125;0.709999998207422;72;100 mA
11.8264319701411;0.299835205078125;0.00314239501953125;0.719999998182175;73;100 mA
11.8364319701159;0.299835205078125;0.00314117431640625;0.729999998156927;74;100 mA
11.8464319700906;0.2998046875;0.00315277099609375;0.73999999813168;75;100 mA
11.8564319700654;0.29986572265625;0.00310791015625;0.749999998106432;76;100 mA
11.8664319700401;0.2998046875;0.0031622314453125;0.759999998081184;77;100 mA
11.8764319700149;0.29986572265625;0.00317626953125;0.769999998055937;78;100 mA
11.8864319699896;0.29986572265625;0.0032025146484375;0.779999998030689;79;100 mA
11.8964319699644;0.299896240234375;0.0032220458984375;0.789999998005442;80;100 mA
11.9064319699391;0.29986572265625;0.00322723388671875;0.799999997980194;81;100 mA
11.9164319699139;0.299835205078125;0.00321990966796875;0.809999997954947;82;100 mA
11.9264319698887;0.299835205078125;0.00326507568359375;0.819999997929699;83;100 mA
11.9364319698634;0.29986572265625;0.00325042724609375;0.829999997904451;84;100 mA
11.9464319698382;0.299896240234375;0.00322967529296875;0.839999997879204;85;100 mA
11.9564319698129;0.29986572265625;0.00323150634765625;0.849999997853956;86;100 mA
11.9664319697877;0.299774169921875;0.00319915771484375;0.859999997828709;87;100 mA
11.9764319697624;0.299896240234375;0.00319854736328125;0.869999997803461;88;100 mA
11.9864319697372;0.299896240234375;0.00319732666015625;0.879999997778214;89;100 mA
11.9964319697119;0.29986572265625;0.003258056640625;0.889999997752966;90;100 mA
12.0064319696867;0.299896240234375;0.00324951171875;0.899999997727718;91;100 mA
12.0164319696614;0.299835205078125;0.00323150634765625;0.909999997702471;92;100 mA
12.0264319696362;0.29986572265625;0.003211669921875;0.919999997677223;93;100 mA
12.0364319696109;0.299835205078125;0.0031982421875;0.929999997651976;94;100 mA
12.0464319695857;0.299835205078125;0.0032159423828125;0.939999997626728;95;100 mA
12.0564319695604;0.299835205078125;0.00321746826171875;0.949999997601481;96;100 mA
12.0664319695352;0.299835205078125;0.0032415771484375;0.959999997576233;97;100 mA
12.0764319695099;0.299835205078125;0.00322906494140625;0.969999997550985;98;100 mA
12.0864319694847;0.2998046875;0.00324432373046875;0.979999997525738;99;100 mA
12.0964319694594;0.29986572265625;0.0032037353515625;0.98999999750049;100;100 mA
12.1064319694342;0.2998046875;0.00318878173828125;0.999999997475243;101;100 mA
12.1164319694089;0.299835205078125;0.00319244384765625;1.00999999745;102;100 mA
12.1264319693837;0.299835205078125;0.0031939697265625;1.01999999742475;103;100 mA
12.1364319693585;0.2999267578125;0.0031109619140625;1.0299999973995;104;100 mA
12.1464319693332;0.29986572265625;0.00313446044921875;1.03999999737425;105;100 mA
12.156431969308;0.2998046875;0.003157958984375;1.049999997349;106;100 mA
12.1664319692827;0.299835205078125;0.0031610107421875;1.05999999732376;107;100 mA
12.1764319692575;0.299896240234375;0.00316558837890625;1.06999999729851;108;100 mA
12.1864319692322;0.299835205078125;0.00314300537109375;1.07999999727326;109;100 mA
12.196431969207;0.299835205078125;0.003145751953125;1.08999999724801;110;100 mA
12.2064319691817;0.299835205078125;0.0031060791015625;1.09999999722277;111;100 mA
12.2164319691565;0.299835205078125;0.00311981201171875;1.10999999719752;112;100 mA
12.2264319691312;0.29986572265625;0.00307373046875;1.11999999717227;113;100 mA
12.236431969106;0.2999267578125;0.00310638427734375;1.12999999714702;114;100 mA
12.2464319690807;0.2998046875;0.003118896484375;1.13999999712178;115;100 mA
12.2564319690555;0.299835205078125;0.00313385009765625;1.14999999709653;116;100 mA
12.2664319690302;0.299896240234375;0.00314849853515625;1.15999999707128;117;100 mA
12.276431969005;0.29986572265625;0.00316375732421875;1.16999999704603;118;100 mA
12.2864319689797;0.299896240234375;0.00312896728515625;1.17999999702079;119;100 mA
12.2964319689545;0.299835205078125;0.00313232421875;1.18999999699554;120;100 mA
12.3064319689292;0.29986572265625;0.00312530517578125;1.19999999697029;121;100 mA
12.316431968904;0.299774169921875;0.00310302734375;1.20999999694504;122;100 mA
12.3264319688788;0.29986572265625;0.00312530517578125;1.2199999969198;123;100 mA
12.3364319688535;0.2998046875;0.00310699462890625;1.22999999689455;124;100 mA
12.3464319688283;0.299835205078125;0.00311676025390625;1.2399999968693;125;100 mA
12.356431968803;0.299835205078125;0.003099365234375;1.24999999684405;126;100 mA
12.3664319687778;0.2998046875;0.003114013671875;1.25999999681881;127;100 mA
12.3764319687525;0.299774169921875;0.003121337890625;1.26999999679356;128;100 mA
12.3864319687273;0.299835205078125;0.003134765625;1.27999999676831;129;100 mA
12.396431968702;0.299774169921875;0.00311920166015625;1.28999999674306;130;100 mA
12.4064319686768;0.29986572265625;0.00313568115234375;1.29999999671782;131;100 mA
12.4164319686515;0.29986572265625;0.0031341552734375;1.30999999669257;132;100 mA
12.4264319686263;0.29986572265625;0.00311248779296875;1.31999999666732;133;100 mA
12.436431968601;0.29986572265625;0.00318878173828125;1.32999999664207;134;100 mA
12.4464319685758;0.299835205078125;0.0031878662109375;1.33999999661683;135;100 mA
12.4564319685505;0.299896240234375;0.00318206787109375;1.34999999659158;136;100 mA
12.4664319685253;0.29986572265625;0.00315460205078125;1.35999999656633;137;100 mA
12.4764319685;0.29986572265625;0.00318603515625;1.36999999654108;138;100 mA
12.4864319684748;0.29986572265625;0.00317047119140625;1.37999999651583;139;100 mA
12.4964319684495;0.29986572265625;0.00325531005859375;1.38999999649059;140;100 mA
12.5064319684243;0.29986572265625;0.00322479248046875;1.39999999646534;141;100 mA
12.516431968399;0.299835205078125;0.00320587158203125;1.40999999644009;142;100 mA
12.5264319683738;0.29986572265625;0.00314422607421875;1.41999999641484;143;100 mA
12.5364319683486;0.29986572265625;0.00314971923828125;1.4299999963896;144;100 mA
12.5464319683233;0.299896240234375;0.00317169189453125;1.43999999636435;145;100 mA
12.5564319682981;0.299835205078125;0.00315093994140625;1.4499999963391;146;100 mA
12.5664319682728;0.299835205078125;0.003153076171875;1.45999999631385;147;100 mA
12.5764319682476;0.299835205078125;0.003126220703125;1.46999999628861;148;100 mA
12.5864319682223;0.29986572265625;0.00314300537109375;1.47999999626336;149;100 mA
12.5964319681971;0.29986572265625;0.00308807373046875;1.48999999623811;150;100 mA
12.6064319681718;0.299896240234375;0.00313262939453125;1.49999999621286;151;100 mA
12.6164319681466;0.29986572265625;0.0031610107421875;1.50999999618762;152;100 mA
12.6264319681213;0.29986572265625;0.00321258544921875;1.51999999616237;153;100 mA
12.6364319680961;0.299835205078125;0.00318115234375;1.52999999613712;154;100 mA
12.6464319680708;0.299896240234375;0.00314453125;1.53999999611187;155;100 mA
12.6564319680456;0.299835205078125;0.00311920166015625;1.54999999608663;156;100 mA
12.6664319680203;0.299896240234375;0.0031243896484375;1.55999999606138;157;100 mA
12.6764319679951;0.2998046875;0.0031512451171875;1.56999999603613;158;100 mA
12.6864319679698;0.299835205078125;0.0031304931640625;1.57999999601088;159;100 mA
12.6964319679446;0.299896240234375;0.003123779296875;1.58999999598564;160;100 mA
12.7064319679193;0.299835205078125;0.0030853271484375;1.59999999596039;161;100 mA
12.7164319678941;0.299835205078125;0.0031317138671875;1.60999999593514;162;100 mA
12.7264319678688;0.2998046875;0.0031500244140625;1.61999999590989;163;100 mA
12.7364319678436;0.29986572265625;0.00313232421875;1.62999999588465;164;100 mA
12.7464319678184;0.299896240234375;0.00313201904296875;1.6399999958594;165;100 mA
12.7564319677931;0.29986572265625;0.0031304931640625;1.64999999583415;166;100 mA
12.7664319677679;0.299896240234375;0.00311981201171875;1.6599999958089;167;100 mA
12.7764319677426;0.29986572265625;0.003123779296875;1.66999999578366;168;100 mA
12.7864319677174;0.2998046875;0.00315521240234375;1.67999999575841;169;100 mA
12.7964319676921;0.299774169921875;0.00316558837890625;1.68999999573316;170;100 mA
12.8064319676669;0.299896240234375;0.00319976806640625;1.69999999570791;171;100 mA
12.8164319676416;0.299835205078125;0.0031561279296875;1.70999999568267;172;100 mA
12.8264319676164;0.299896240234375;0.00314453125;1.71999999565742;173;100 mA
12.8364319675911;0.299835205078125;0.0031304931640625;1.72999999563217;174;100 mA
12.8464319675659;0.29986572265625;0.0031622314453125;1.73999999560692;175;100 mA
12.8564319675406;0.299896240234375;0.00318756103515625;1.74999999558167;176;100 mA
12.8664319675154;0.299835205078125;0.00318756103515625;1.75999999555643;177;100 mA
12.8764319674901;0.29986572265625;0.00320404052734375;1.76999999553118;178;100 mA
12.8864319674649;0.299835205078125;0.00319671630859375;1.77999999550593;179;100 mA
12.8964319674396;0.299896240234375;0.00321685791015625;1.78999999548068;180;100 mA
12.9064319674144;0.299896240234375;0.0032049560546875;1.79999999545544;181;100 mA
12.9164319673891;0.29986572265625;0.00320068359375;1.80999999543019;182;100 mA
12.9264319673639;0.29986572265625;0.00316375732421875;1.81999999540494;183;100 mA
12.9364319673386;0.299835205078125;0.00320220947265625;1.82999999537969;184;100 mA
12.9464319673134;0.299835205078125;0.00317535400390625;1.83999999535445;185;100 mA
12.9564319672882;0.2999267578125;0.00321533203125;1.8499999953292;186;100 mA
12.9664319672629;0.29986572265625;0.00319244384765625;1.85999999530395;187;100 mA
12.9764319672377;0.299896240234375;0.00318572998046875;1.8699999952787;188;100 mA
12.9864319672124;0.2998046875;0.00314178466796875;1.87999999525346;189;100 mA
12.9964319671872;0.299835205078125;0.00315216064453125;1.88999999522821;190;100 mA
13.0064319671619;0.299835205078125;0.00318206787109375;1.89999999520296;191;100 mA
13.0164319671367;0.299896240234375;0.00319183349609375;1.90999999517771;192;100 mA
13.0264319671114;0.299896240234375;0.0031964111328125;1.91999999515247;193;100 mA
13.0364319670862;0.29986572265625;0.00318572998046875;1.92999999512722;194;100 mA
13.0464319670609;0.2998046875;0.003204345703125;1.93999999510197;195;100 mA
13.0564319670357;0.299835205078125;0.0031744384765625;1.94999999507672;196;100 mA
13.0664319670104;0.299896240234375;0.00315887451171875;1.95999999505148;197;100 mA
13.0764319669852;0.299835205078125;0.0031268310546875;1.96999999502623;198;100 mA
13.0864319669599;0.299835205078125;0.003173828125;1.97999999500098;199;100 mA
13.0964319669347;0.299896240234375;0.00317352294921875;1.98999999497573;200;100 mA
13.1064319669094;0.29986572265625;0.00322845458984375;1.99999999495049;201;100 mA
13.1164319668842;0.299835205078125;0.00319732666015625;2.00999999492524;202;100 mA
13.1264319668589;0.29986572265625;0.00317901611328125;2.01999999489999;203;100 mA
13.1364319668337;0.29986572265625;0.00321533203125;2.02999999487474;204;100 mA
13.1464319668084;0.29986572265625;0.0032049560546875;2.0399999948495;205;100 mA
13.1564319667832;0.299835205078125;0.00319549560546875;2.04999999482425;206;100 mA
13.166431966758;0.2999267578125;0.0031451416015625;2.059999994799;207;100 mA
13.1764319667327;0.29986572265625;0.00312957763671875;2.06999999477375;208;100 mA
13.1864319667075;0.299896240234375;0.00312835693359375;2.0799999947485;209;100 mA
13.1964319666822;0.299896240234375;0.00313262939453125;2.08999999472326;210;100 mA
13.206431966657;0.2999267578125;0.003126220703125;2.09999999469801;211;100 mA
13.2164319666317;0.2998046875;0.0031573486328125;2.10999999467276;212;100 mA
13.2264319666065;0.299896240234375;0.00315521240234375;2.11999999464751;213;100 mA
13.2364319665812;0.2999267578125;0.00313629150390625;2.12999999462227;214;100 mA
13.246431966556;0.29986572265625;0.00313629150390625;2.13999999459702;215;100 mA
13.2564319665307;0.299835205078125;0.0031549072265625;2.14999999457177;216;100 mA
13.2664319665055;0.299835205078125;0.00314483642578125;2.15999999454652;217;100 mA
13.2764319664802;0.2998046875;0.0031219482421875;2.16999999452128;218;100 mA
13.286431966455;0.299835205078125;0.00320465087890625;2.17999999449603;219;100 mA
13.2964319664297;0.299896240234375;0.00317108154296875;2.18999999447078;220;100 mA
13.3064319664045;0.29986572265625;0.00317352294921875;2.19999999444553;221;100 mA
13.3164319663792;0.299835205078125;0.0031591796875;2.20999999442029;222;100 mA
13.326431966354;0.29986572265625;0.00316619873046875;2.21999999439504;223;100 mA
13.3364319663287;0.29986572265625;0.003131103515625;2.22999999436979;224;100 mA
13.3464319663035;0.2998046875;0.00313720703125;2.23999999434454;225;100 mA
13.3564319662783;0.2998046875;0.00311370849609375;2.2499999943193;226;100 mA
13.366431966253;0.299835205078125;0.0031195068359375;2.25999999429405;227;100 mA
13.3764319662278;0.29986572265625;0.00310333251953125;2.2699999942688;228;100 mA
13.3864319662025;0.299835205078125;0.00310546875;2.27999999424355;229;100 mA
13.3964319661773;0.29986572265625;0.00313690185546875;2.28999999421831;230;100 mA
13.406431966152;0.2998046875;0.00313934326171875;2.29999999419306;231;100 mA
13.4164319661268;0.299835205078125;0.00315155029296875;2.30999999416781;232;100 mA
13.4264319661015;0.299896240234375;0.00313568115234375;2.31999999414256;233;100 mA
13.4364319660763;0.299835205078125;0.003111572265625;2.32999999411732;234;100 mA
13.446431966051;0.29986572265625;0.0030926513671875;2.33999999409207;235;100 mA
13.4564319660258;0.299835205078125;0.0031109619140625;2.34999999406682;236;100 mA
13.4664319660005;0.2999267578125;0.0031109619140625;2.35999999404157;237;100 mA
13.4764319659753;0.299896240234375;0.00314727783203125;2.36999999401633;238;100 mA
13.48643196595;0.2998046875;0.00316192626953125;2.37999999399108;239;100 mA
13.4964319659248;0.29986572265625;0.00317169189453125;2.38999999396583;240;100 mA
13.5064319658995;0.299835205078125;0.0032183837890625;2.39999999394058;241;100 mA
13.5164319658743;0.299835205078125;0.003192138671875;2.40999999391533;242;100 mA
13.526431965849;0.29986572265625;0.00323333740234375;2.41999999389009;243;100 mA
13.5364319658238;0.299896240234375;0.003240966796875;2.42999999386484;244;100 mA
13.5464319657985;0.29986572265625;0.00325531005859375;2.43999999383959;245;100 mA
13.5564319657733;0.29986572265625;0.0032342529296875;2.44999999381434;246;100 mA
13.5664319657481;0.29986572265625;0.00323211669921875;2.4599999937891;247;100 mA
13.5764319657228;0.299896240234375;0.0032562255859375;2.46999999376385;248;100 mA
13.5864319656976;0.29986572265625;0.00326873779296875;2.4799999937386;249;100 mA
13.5964319656723;0.29986572265625;0.00319061279296875;2.48999999371335;250;100 mA
13.6064319656471;0.299835205078125;0.00318023681640625;2.49999999368811;251;100 mA
13.6164319656218;0.29986572265625;0.00316925048828125;2.50999999366286;252;100 mA
13.6264319655966;0.299896240234375;0.00316619873046875;2.51999999363761;253;100 mA
13.6364319655713;0.2998046875;0.003153076171875;2.52999999361236;254;100 mA
13.6464319655461;0.299835205078125;0.00311370849609375;2.53999999358712;255;100 mA
13.6564319655208;0.29986572265625;0.0031170654296875;2.54999999356187;256;100 mA
13.6664319654956;0.299896240234375;0.0030657958984375;2.55999999353662;257;100 mA
13.6764319654703;0.29986572265625;0.0031103515625;2.56999999351137;258;100 mA
13.6864319654451;0.29986572265625;0.0030859375;2.57999999348613;259;100 mA
13.6964319654198;0.299835205078125;0.00310577392578125;2.58999999346088;260;100 mA
13.7064319653946;0.29986572265625;0.0030657958984375;2.59999999343563;261;100 mA
13.7164319653693;0.29986572265625;0.0030511474609375;2.60999999341038;262;100 mA
13.7264319653441;0.29986572265625;0.00304351806640625;2.61999999338514;263;100 mA
13.7364319653188;0.299835205078125;0.00305999755859375;2.62999999335989;264;100 mA
13.7464319652936;0.29986572265625;0.003111572265625;2.63999999333464;265;100 mA
13.7564319652683;0.299835205078125;0.00308258056640625;2.64999999330939;266;100 mA
13.7664319652431;0.29986572265625;0.0030926513671875;2.65999999328415;267;100 mA
13.7764319652179;0.299896240234375;0.0030413818359375;2.6699999932589;268;100 mA
13.7864319651926;0.299835205078125;0.00306488037109375;2.67999999323365;269;100 mA
13.7964319651674;0.2998046875;0.00304473876953125;2.6899999932084;270;100 mA
13.8064319651421;0.29986572265625;0.003079833984375;2.69999999318316;271;100 mA
13.8164319651169;0.29986572265625;0.00305328369140625;2.70999999315791;272;100 mA
13.8264319650916;0.299896240234375;0.00307342529296875;2.71999999313266;273;100 mA
13.8364319650664;0.29986572265625;0.00303466796875;2.72999999310741;274;100 mA
13.8464319650411;0.29986572265625;0.00306854248046875;2.73999999308217;275;100 mA
13.8564319650159;0.299835205078125;0.00311767578125;2.74999999305692;276;100 mA
13.8664319649906;0.2999267578125;0.0030950927734375;2.75999999303167;277;100 mA
13.8764319649654;0.29986572265625;0.003048095703125;2.76999999300642;278;100 mA
13.8864319649401;0.299835205078125;0.00303924560546875;2.77999999298117;279;100 mA
13.8964319649149;0.299835205078125;0.003123779296875;2.78999999295593;280;100 mA
13.9064319648896;0.299896240234375;0.0031158447265625;2.79999999293068;281;100 mA
13.9164319648644;0.29986572265625;0.0031396484375;2.80999999290543;282;100 mA
13.9264319648391;0.299835205078125;0.0031219482421875;2.81999999288018;283;100 mA
13.9364319648139;0.29986572265625;0.003138427734375;2.82999999285494;284;100 mA
13.9464319647886;0.299835205078125;0.0031402587890625;2.83999999282969;285;100 mA
13.9564319647634;0.29986572265625;0.00314544677734375;2.84999999280444;286;100 mA
13.9664319647381;0.299835205078125;0.00312591552734375;2.85999999277919;287;100 mA
13.9764319647129;0.29986572265625;0.00314422607421875;2.86999999275395;288;100 mA
13.9864319646877;0.2999267578125;0.00310882568359375;2.8799999927287;289;100 mA
13.9964319646624;0.299774169921875;0.00309600830078125;2.88999999270345;290;100 mA
14.0064319646372;0.29986572265625;0.003104248046875;2.8999999926782;291;100 mA
14.0164319646119;0.299835205078125;0.003099365234375;2.90999999265296;292;100 mA
14.0264319645867;0.299835205078125;0.00313018798828125;2.91999999262771;293;100 mA
14.0364319645614;0.299835205078125;0.00310821533203125;2.92999999260246;294;100 mA
14.0464319645362;0.29986572265625;0.00314666748046875;2.93999999257721;295;100 mA
14.0564319645109;0.299835205078125;0.00309906005859375;2.94999999255197;296;100 mA
14.0664319644857;0.29986572265625;0.003092041015625;2.95999999252672;297;100 mA
14.0764319644604;0.299835205078125;0.0030963134765625;2.96999999250147;298;100 mA
14.0864319644352;0.2998046875;0.0030657958984375;2.97999999247622;299;100 mA
14.0964319644099;0.299896240234375;0.00305511474609375;2.98999999245098;300;100 mA
14.1064319643847;0.299835205078125;0.003048095703125;2.99999999242573;301;100 mA
14.1164319643594;0.29986572265625;0.00307952880859375;3.00999999240048;302;100 mA
14.1264319643342;0.29986572265625;0.00308624267578125;3.01999999237523;303;100 mA
14.1364319643089;0.2998046875;0.00313262939453125;3.02999999234999;304;100 mA
14.1464319642837;0.299896240234375;0.0031512451171875;3.03999999232474;305;100 mA
14.1564319642584;0.299896240234375;0.003155517578125;3.04999999229949;306;100 mA
14.1664319642332;0.29986572265625;0.00310516357421875;3.05999999227424;307;100 mA
14.1764319642079;0.29986572265625;0.00311248779296875;3.069999992249;308;100 mA
14.1864319641827;0.299896240234375;0.00310699462890625;3.07999999222375;309;100 mA
14.1964319641575;0.299835205078125;0.00315032958984375;3.0899999921985;310;100 mA
14.2064319641322;0.299835205078125;0.00312042236328125;3.09999999217325;311;100 mA
14.216431964107;0.299896240234375;0.003123779296875;3.109999992148;312;100 mA
14.2264319640817;0.29986572265625;0.00309967041015625;3.11999999212276;313;100 mA
14.2364319640565;0.29986572265625;0.00310546875;3.12999999209751;314;100 mA
14.2464319640312;0.29986572265625;0.00311737060546875;3.13999999207226;315;100 mA
14.256431964006;0.299835205078125;0.0030841064453125;3.14999999204701;316;100 mA
14.2664319639807;0.299896240234375;0.00310211181640625;3.15999999202177;317;100 mA
14.2764319639555;0.29986572265625;0.00311553955078125;3.16999999199652;318;100 mA
14.2864319639302;0.29986572265625;0.00309906005859375;3.17999999197127;319;100 mA
14.296431963905;0.299835205078125;0.0030828857421875;3.18999999194602;320;100 mA
14.3064319638797;0.299896240234375;0.00307525634765625;3.19999999192078;321;100 mA
14.3164319638545;0.299774169921875;0.00304412841796875;3.20999999189553;322;100 mA
14.3264319638292;0.299774169921875;0.0030657958984375;3.21999999187028;323;100 mA
14.336431963804;0.29986572265625;0.00305633544921875;3.22999999184503;324;100 mA
14.3464319637787;0.29986572265625;0.00304473876953125;3.23999999181979;325;100 mA
14.3564319637535;0.299896240234375;0.00309051513671875;3.24999999179454;326;100 mA
14.3664319637282;0.299896240234375;0.00309661865234375;3.25999999176929;327;100 mA
14.376431963703;0.299835205078125;0.00314422607421875;3.26999999174404;328;100 mA
14.3864319636778;0.299896240234375;0.003133544921875;3.2799999917188;329;100 mA
14.3964319636525;0.2998046875;0.00313201904296875;3.28999999169355;330;100 mA
14.4064319636273;0.299896240234375;0.00314849853515625;3.2999999916683;331;100 mA
14.416431963602;0.299835205078125;0.00314544677734375;3.30999999164305;332;100 mA
14.4264319635768;0.29986572265625;0.003134765625;3.31999999161781;333;100 mA
14.4364319635515;0.2999267578125;0.00309661865234375;3.32999999159256;334;100 mA
14.4464319635263;0.299774169921875;0.00312103271484375;3.33999999156731;335;100 mA
14.456431963501;0.299896240234375;0.003114013671875;3.34999999154206;336;100 mA
14.4664319634758;0.299835205078125;0.00314544677734375;3.35999999151682;337;100 mA
14.4764319634505;0.299835205078125;0.0031292724609375;3.36999999149157;338;100 mA
14.4864319634253;0.29986572265625;0.0031402587890625;3.37999999146632;339;100 mA
14.4964319634;0.29986572265625;0.00313812255859375;3.38999999144107;340;100 mA
14.5064319633748;0.29986572265625;0.00313140869140625;3.39999999141583;341;100 mA
14.5164319633495;0.29986572265625;0.00312347412109375;3.40999999139058;342;100 mA
14.5264319633243;0.29986572265625;0.00313720703125;3.41999999136533;343;100 mA
14.536431963299;0.29986572265625;0.0031365966796875;3.42999999134008;344;100 mA
14.5464319632738;0.299835205078125;0.00315673828125;3.43999999131483;345;100 mA
14.5564319632485;0.2998046875;0.00315277099609375;3.44999999128959;346;100 mA
14.5664319632233;0.29986572265625;0.0031591796875;3.45999999126434;347;100 mA
14.576431963198;0.299835205078125;0.00319793701171875;3.46999999123909;348;100 mA
14.5864319631728;0.29986572265625;0.0031854248046875;3.47999999121384;349;100 mA
14.5964319631476;0.29986572265625;0.00317169189453125;3.4899999911886;350;100 mA
14.6064319631223;0.299896240234375;0.0031585693359375;3.49999999116335;351;100 mA
14.6164319630971;0.299835205078125;0.0031341552734375;3.5099999911381;352;100 mA
14.6264319630718;0.29986572265625;0.00311279296875;3.51999999111285;353;100 mA
14.6364319630466;0.299835205078125;0.00311370849609375;3.52999999108761;354;100 mA
14.6464319630213;0.2998046875;0.00309326171875;3.53999999106236;355;100 mA
14.6564319629961;0.29986572265625;0.003079833984375;3.54999999103711;356;100 mA
14.6664319629708;0.299896240234375;0.0030999755859375;3.55999999101186;357;100 mA
14.6764319629456;0.299835205078125;0.00313934326171875;3.56999999098662;358;100 mA
14.6864319629203;0.299774169921875;0.00315399169921875;3.57999999096137;359;100 mA
14.6964319628951;0.2999267578125;0.0031658935546875;3.58999999093612;360;100 mA
14.7064319628698;0.29986572265625;0.00318695068359375;3.59999999091087;361;100 mA
14.7164319628446;0.299896240234375;0.003189697265625;3.60999999088563;362;100 mA
14.7264319628193;0.2998046875;0.00316070556640625;3.61999999086038;363;100 mA
14.7364319627941;0.2999267578125;0.0031231689453125;3.62999999083513;364;100 mA
14.7464319627688;0.299835205078125;0.003096923828125;3.63999999080988;365;100 mA
14.7564319627436;0.299896240234375;0.00307586669921875;3.64999999078464;366;100 mA
14.7664319627183;0.299835205078125;0.0030584716796875;3.65999999075939;367;100 mA
14.7764319626931;0.299835205078125;0.0030450439453125;3.66999999073414;368;100 mA
14.7864319626678;0.299896240234375;0.003072509765625;3.67999999070889;369;100 mA
14.7964319626426;0.299774169921875;0.00306976318359375;3.68999999068365;370;100 mA
14.8064319626174;0.29986572265625;0.00311431884765625;3.6999999906584;371;100 mA
14.8164319625921;0.29986572265625;0.0030926513671875;3.70999999063315;372;100 mA
14.8264319625669;0.29986572265625;0.00309814453125;3.7199999906079;373;100 mA
14.8364319625416;0.299835205078125;0.0030828857421875;3.72999999058266;374;100 mA
14.8464319625164;0.29974365234375;0.003082275390625;3.73999999055741;375;100 mA
14.8564319624911;0.29986572265625;0.0031036376953125;3.74999999053216;376;100 mA
14.8664319624659;0.299835205078125;0.00307403564453125;3.75999999050691;377;100 mA
14.8764319624406;0.29986572265625;0.00314239501953125;3.76999999048167;378;100 mA
14.8864319624154;0.29986572265625;0.0031134033203125;3.77999999045642;379;100 mA
14.8964319623901;0.29986572265625;0.00312347412109375;3.78999999043117;380;100 mA
14.9064319623649;0.29986572265625;0.00308746337890625;3.79999999040592;381;100 mA
14.9164319623396;0.29986572265625;0.003095703125;3.80999999038067;382;100 mA
14.9264319623144;0.299896240234375;0.00311065673828125;3.81999999035543;383;100 mA
14.9364319622891;0.299774169921875;0.00311370849609375;3.82999999033018;384;100 mA
14.9464319622639;0.29986572265625;0.00312957763671875;3.83999999030493;385;100 mA
14.9564319622386;0.299896240234375;0.00307220458984375;3.84999999027968;386;100 mA
14.9664319622134;0.2998046875;0.00310150146484375;3.85999999025444;387;100 mA
14.9764319621881;0.29986572265625;0.0030975341796875;3.86999999022919;388;100 mA
14.9864319621629;0.299774169921875;0.0031072998046875;3.87999999020394;389;100 mA
14.9964319621376;0.299896240234375;0.0030413818359375;3.88999999017869;390;100 mA
15.0064319621124;0.29986572265625;0.00309051513671875;3.89999999015345;391;100 mA
15.0164319620872;0.29986572265625;0.0030511474609375;3.9099999901282;392;100 mA
15.0264319620619;0.299835205078125;0.00304962158203125;3.91999999010295;393;100 mA
15.0364319620367;0.299835205078125;0.00305877685546875;3.9299999900777;394;100 mA
15.0464319620114;0.2998046875;0.00309234619140625;3.93999999005246;395;100 mA
15.0564319619862;0.299835205078125;0.00309967041015625;3.94999999002721;396;100 mA
15.0664319619609;0.29986572265625;0.00308746337890625;3.95999999000196;397;100 mA
15.0764319619357;0.29986572265625;0.0030841064453125;3.96999998997671;398;100 mA
15.0864319619104;0.29986572265625;0.0030426025390625;3.97999998995147;399;100 mA
15.0964319618852;0.2998046875;0.00306182861328125;3.98999998992622;400;100 mA
15.1064319618599;0.299835205078125;0.003060302734375;3.99999998990097;401;100 mA
15.1164319618347;0.299835205078125;0.00307525634765625;4.00999998987572;402;100 mA
15.1264319618094;0.29986572265625;0.00305419921875;4.01999998985048;403;100 mA
15.1364319617842;0.299835205078125;0.003111572265625;4.02999998982523;404;100 mA
15.1464319617589;0.299896240234375;0.00310394287109375;4.03999998979998;405;100 mA
15.1564319617337;0.299896240234375;0.00307281494140625;4.04999998977473;406;100 mA
15.1664319617084;0.299774169921875;0.00307220458984375;4.05999998974949;407;100 mA
15.1764319616832;0.299835205078125;0.00309417724609375;4.06999998972424;408;100 mA
15.1864319616579;0.29986572265625;0.00307281494140625;4.07999998969899;409;100 mA
15.1964319616327;0.2998046875;0.00305419921875;4.08999998967374;410;100 mA
15.2064319616074;0.29986572265625;0.00311248779296875;4.0999999896485;411;100 mA
15.2164319615822;0.29986572265625;0.0031427001953125;4.10999998962325;412;100 mA
15.226431961557;0.299896240234375;0.0031640625;4.119999989598;413;100 mA
15.2364319615317;0.299896240234375;0.00316741943359375;4.12999998957275;414;100 mA
15.2464319615065;0.29986572265625;0.00314483642578125;4.1399999895475;415;100 mA
15.2564319614812;0.29986572265625;0.003114013671875;4.14999998952226;416;100 mA
15.266431961456;0.29986572265625;0.00312835693359375;4.15999998949701;417;100 mA
15.2764319614307;0.299896240234375;0.003131103515625;4.16999998947176;418;100 mA
15.2864319614055;0.299835205078125;0.0031097412109375;4.17999998944651;419;100 mA
15.2964319613802;0.29986572265625;0.0031390380859375;4.18999998942127;420;100 mA
15.306431961355;0.299957275390625;0.00310272216796875;4.19999998939602;421;100 mA
15.3164319613297;0.299896240234375;0.00311309814453125;4.20999998937077;422;100 mA
15.3264319613045;0.29986572265625;0.00313018798828125;4.21999998934552;423;100 mA
15.3364319612792;0.299835205078125;0.00311859130859375;4.22999998932028;424;100 mA
15.346431961254;0.299896240234375;0.00306610107421875;4.23999998929503;425;100 mA
15.3564319612287;0.299835205078125;0.0030987548828125;4.24999998926978;426;100 mA
15.3664319612035;0.29986572265625;0.0031109619140625;4.25999998924453;427;100 mA
15.3764319611782;0.29986572265625;0.00313262939453125;4.26999998921929;428;100 mA
15.386431961153;0.299896240234375;0.00310546875;4.27999998919404;429;100 mA
15.3964319611277;0.299835205078125;0.0031268310546875;4.28999998916879;430;100 mA
15.4064319611025;0.29986572265625;0.00310638427734375;4.29999998914354;431;100 mA
15.4164319610773;0.299896240234375;0.00308990478515625;4.3099999891183;432;100 mA
15.426431961052;0.299835205078125;0.00310394287109375;4.31999998909305;433;100 mA
15.4364319610268;0.29986572265625;0.0030963134765625;4.3299999890678;434;100 mA
15.4464319610015;0.2999267578125;0.00307098388671875;4.33999998904255;435;100 mA
15.4564319609763;0.2998046875;0.00303680419921875;4.34999998901731;436;100 mA
15.466431960951;0.2998046875;0.00304229736328125;4.35999998899206;437;100 mA
15.4764319609258;0.299896240234375;0.00301971435546875;4.36999998896681;438;100 mA
15.4864319609005;0.299896240234375;0.0030560302734375;4.37999998894156;439;100 mA
15.4964319608753;0.2998046875;0.0030328369140625;4.38999998891632;440;100 mA
15.50643196085;0.299835205078125;0.003065185546875;4.39999998889107;441;100 mA
15.5164319608248;0.29986572265625;0.00306365966796875;4.40999998886582;442;100 mA
15.5264319607995;0.299835205078125;0.0030548095703125;4.41999998884057;443;100 mA
15.5364319607743;0.2998046875;0.0030712890625;4.42999998881533;444;100 mA
15.546431960749;0.299896240234375;0.0030548095703125;4.43999998879008;445;100 mA
15.5564319607238;0.2999267578125;0.0030810546875;4.44999998876483;446;100 mA
15.5664319606985;0.299896240234375;0.003037109375;4.45999998873958;447;100 mA
15.5764319606733;0.299896240234375;0.0030657958984375;4.46999998871433;448;100 mA
15.586431960648;0.299835205078125;0.0030706787109375;4.47999998868909;449;100 mA
15.5964319606228;0.2998046875;0.0030950927734375;4.48999998866384;450;100 mA
15.6064319605975;0.299896240234375;0.0031170654296875;4.49999998863859;451;100 mA
15.6164319605723;0.299835205078125;0.00313690185546875;4.50999998861334;452;100 mA
15.6264319605471;0.29986572265625;0.00315643310546875;4.5199999885881;453;100 mA
15.6364319605218;0.299835205078125;0.0031304931640625;4.52999998856285;454;100 mA
15.6464319604966;0.299835205078125;0.00308929443359375;4.5399999885376;455;100 mA
15.6564319604713;0.299835205078125;0.00309478759765625;4.54999998851235;456;100 mA
15.6664319604461;0.29986572265625;0.0031170654296875;4.55999998848711;457;100 mA
15.6764319604208;0.299896240234375;0.003131103515625;4.56999998846186;458;100 mA
15.6864319603956;0.29986572265625;0.0031396484375;4.57999998843661;459;100 mA
15.6964319603703;0.29986572265625;0.003133544921875;4.58999998841136;460;100 mA
15.7064319603451;0.299896240234375;0.0031439208984375;4.59999998838612;461;100 mA
15.7164319603198;0.299896240234375;0.0031829833984375;4.60999998836087;462;100 mA
15.7264319602946;0.299835205078125;0.00320281982421875;4.61999998833562;463;100 mA
15.7364319602693;0.299835205078125;0.00313323974609375;4.62999998831037;464;100 mA
15.7464319602441;0.29986572265625;0.00310150146484375;4.63999998828513;465;100 mA
15.7564319602188;0.29986572265625;0.00310028076171875;4.64999998825988;466;100 mA
15.7664319601936;0.29986572265625;0.00313079833984375;4.65999998823463;467;100 mA
15.7764319601683;0.299896240234375;0.0031634521484375;4.66999998820938;468;100 mA
15.7864319601431;0.29986572265625;0.0031268310546875;4.67999998818414;469;100 mA
15.7964319601178;0.29986572265625;0.00312408447265625;4.68999998815889;470;100 mA
15.8064319600926;0.29986572265625;0.00309906005859375;4.69999998813364;471;100 mA
15.8164319600673;0.29986572265625;0.0031195068359375;4.70999998810839;472;100 mA
15.8264319600421;0.299835205078125;0.00314971923828125;4.71999998808315;473;100 mA
15.8364319600169;0.299896240234375;0.003170166015625;4.7299999880579;474;100 mA
15.8464319599916;0.299835205078125;0.003138427734375;4.73999998803265;475;100 mA
15.8564319599664;0.29986572265625;0.00309539794921875;4.7499999880074;476;100 mA
15.8664319599411;0.299896240234375;0.00304840087890625;4.75999998798216;477;100 mA
15.8764319599159;0.299835205078125;0.00306671142578125;4.76999998795691;478;100 mA
15.8864319598906;0.299835205078125;0.0030694580078125;4.77999998793166;479;100 mA
15.8964319598654;0.29986572265625;0.003033447265625;4.78999998790641;480;100 mA
15.9064319598401;0.29986572265625;0.0030450439453125;4.79999998788116;481;100 mA
15.9164319598149;0.29986572265625;0.0030322265625;4.80999998785592;482;100 mA
15.9264319597896;0.29986572265625;0.00303955078125;4.81999998783067;483;100 mA
15.9364319597644;0.2998046875;0.0030047607421875;4.82999998780542;484;100 mA
15.9464319597391;0.299835205078125;0.00300262451171875;4.83999998778017;485;100 mA
15.9564319597139;0.299957275390625;0.00302032470703125;4.84999998775493;486;100 mA
15.9664319596886;0.29986572265625;0.0030450439453125;4.85999998772968;487;100 mA
15.9764319596634;0.299835205078125;0.003060302734375;4.86999998770443;488;100 mA
15.9864319596381;0.299835205078125;0.00302734375;4.87999998767918;489;100 mA
15.9964319596129;0.29986572265625;0.00302001953125;4.88999998765394;490;100 mA
16.0064319595876;0.299835205078125;0.0030181884765625;4.89999998762869;491;100 mA
16.0164319595624;0.29986572265625;0.00301910400390625;4.90999998760344;492;100 mA
16.0264319595371;0.299896240234375;0.0030035400390625;4.91999998757819;493;100 mA
16.0364319595119;0.29986572265625;0.003017578125;4.92999998755295;494;100 mA
16.0464319594867;0.299835205078125;0.0030047607421875;4.9399999875277;495;100 mA
16.0564319594614;0.29986572265625;0.00304962158203125;4.94999998750245;496;100 mA
16.0664319594362;0.29986572265625;0.0030487060546875;4.9599999874772;497;100 mA
16.0764319594109;0.299835205078125;0.00310821533203125;4.96999998745196;498;100 mA
16.0864319593857;0.29986572265625;0.00307098388671875;4.97999998742671;499;100 mA
16.0964319593604;0.299835205078125;0.00307281494140625;4.98999998740146;500;100 mA
16.1064319593352;0.29986572265625;0.0030682373046875;4.99999998737621;501;100 mA
16.1164319593099;0.29986572265625;0.00306884765625;5.00999998735097;502;100 mA
16.1264319592847;0.299896240234375;0.00308197021484375;5.01999998732572;503;100 mA
16.1364319592594;0.2998046875;0.0030816650390625;5.02999998730047;504;100 mA
16.1464319592342;0.29986572265625;0.00308197021484375;5.03999998727522;505;100 mA
16.1564319592089;0.299896240234375;0.003089599609375;5.04999998724998;506;100 mA
16.1664319591837;0.299835205078125;0.003089599609375;5.05999998722473;507;100 mA
16.1764319591584;0.299835205078125;0.00306365966796875;5.06999998719948;508;100 mA
16.1864319591332;0.299835205078125;0.00311614990234375;5.07999998717423;509;100 mA
16.1964319591079;0.2999267578125;0.00309967041015625;5.08999998714899;510;100 mA
16.2064319590827;0.29986572265625;0.003153076171875;5.09999998712374;511;100 mA
16.2164319590574;0.2998046875;0.0031231689453125;5.10999998709849;512;100 mA
16.2264319590322;0.29986572265625;0.003121337890625;5.11999998707324;513;100 mA
16.2364319590069;0.29986572265625;0.00310638427734375;5.129999987048;514;100 mA
16.2464319589817;0.299896240234375;0.0031414794921875;5.13999998702275;515;100 mA
16.2564319589565;0.299835205078125;0.003133544921875;5.1499999869975;516;100 mA
16.2664319589312;0.299896240234375;0.00312713623046875;5.15999998697225;517;100 mA
16.276431958906;0.299835205078125;0.00312652587890625;5.169999986947;518;100 mA
16.2864319588807;0.2999267578125;0.00310211181640625;5.17999998692176;519;100 mA
16.2964319588555;0.29986572265625;0.00308807373046875;5.18999998689651;520;100 mA
16.3064319588302;0.299835205078125;0.00307098388671875;5.19999998687126;521;100 mA
16.316431958805;0.29986572265625;0.00309234619140625;5.20999998684601;522;100 mA
16.3264319587797;0.29986572265625;0.0030670166015625;5.21999998682077;523;100 mA
16.3364319587545;0.299896240234375;0.00308441162109375;5.22999998679552;524;100 mA
16.3464319587292;0.299896240234375;0.00306671142578125;5.23999998677027;525;100 mA
16.356431958704;0.2998046875;0.003070068359375;5.24999998674502;526;100 mA
16.3664319586787;0.299835205078125;0.0030078125;5.25999998671978;527;100 mA
16.3764319586535;0.299896240234375;0.00298065185546875;5.26999998669453;528;100 mA
16.3864319586282;0.299835205078125;0.00304412841796875;5.27999998666928;529;100 mA
16.396431958603;0.29986572265625;0.0030291748046875;5.28999998664403;530;100 mA
16.4064319585777;0.299896240234375;0.00302581787109375;5.29999998661879;531;100 mA
16.4164319585525;0.299835205078125;0.00302947998046875;5.30999998659354;532;100 mA
16.4264319585272;0.29986572265625;0.003046875;5.31999998656829;533;100 mA
16.436431958502;0.2999267578125;0.00302154541015625;5.32999998654304;534;100 mA
16.4464319584768;0.299896240234375;0.00304901123046875;5.3399999865178;535;100 mA
16.4564319584515;0.29986572265625;0.0030389404296875;5.34999998649255;536;100 mA
16.4664319584263;0.29986572265625;0.00307373046875;5.3599999864673;537;100 mA
16.476431958401;0.299835205078125;0.003065185546875;5.36999998644205;538;100 mA
16.4864319583758;0.299896240234375;0.0030706787109375;5.37999998641681;539;100 mA
16.4964319583505;0.29986572265625;0.0030645751953125;5.38999998639156;540;100 mA
16.5064319583253;0.2998046875;0.00301422119140625;5.39999998636631;541;100 mA
16.5164319583;0.29986572265625;0.0030615234375;5.40999998634106;542;100 mA
16.5264319582748;0.29986572265625;0.0030584716796875;5.41999998631582;543;100 mA
16.5364319582495;0.2998046875;0.00304473876953125;5.42999998629057;544;100 mA
16.5464319582243;0.299835205078125;0.00303497314453125;5.43999998626532;545;100 mA
16.556431958199;0.299774169921875;0.00306060791015625;5.44999998624007;546;100 mA
16.5664319581738;0.29986572265625;0.0030657958984375;5.45999998621483;547;100 mA
16.5764319581485;0.299896240234375;0.00307098388671875;5.46999998618958;548;100 mA
16.5864319581233;0.299835205078125;0.00307647705078125;5.47999998616433;549;100 mA
16.596431958098;0.29986572265625;0.00307281494140625;5.48999998613908;550;100 mA
16.6064319580728;0.29986572265625;0.00306732177734375;5.49999998611383;551;100 mA
16.6164319580475;0.299835205078125;0.00303466796875;5.50999998608859;552;100 mA
16.6264319580223;0.2998046875;0.0030682373046875;5.51999998606334;553;100 mA
16.636431957997;0.29986572265625;0.00308563232421875;5.52999998603809;554;100 mA
16.6464319579718;0.29986572265625;0.00307373046875;5.53999998601284;555;100 mA
16.6564319579466;0.299835205078125;0.00302886962890625;5.5499999859876;556;100 mA
16.6664319579213;0.2998046875;0.0030389404296875;5.55999998596235;557;100 mA
16.6764319578961;0.299896240234375;0.00304046630859375;5.5699999859371;558;100 mA
16.6864319578708;0.29986572265625;0.0030523681640625;5.57999998591185;559;100 mA
16.6964319578456;0.299835205078125;0.00304595947265625;5.58999998588661;560;100 mA
16.7064319578203;0.2998046875;0.00304779052734375;5.59999998586136;561;100 mA
16.7164319577951;0.2998046875;0.0030126953125;5.60999998583611;562;100 mA
16.7264319577698;0.299896240234375;0.0030291748046875;5.61999998581086;563;100 mA
16.7364319577446;0.299835205078125;0.0030474853515625;5.62999998578562;564;100 mA
16.7464319577193;0.29986572265625;0.0030438232421875;5.63999998576037;565;100 mA
16.7564319576941;0.29986572265625;0.00305877685546875;5.64999998573512;566;100 mA
16.7664319576688;0.299835205078125;0.00301849365234375;5.65999998570987;567;100 mA
16.7764319576436;0.2999267578125;0.003038330078125;5.66999998568463;568;100 mA
16.7864319576183;0.299835205078125;0.0030047607421875;5.67999998565938;569;100 mA
16.7964319575931;0.2998046875;0.00301605224609375;5.68999998563413;570;100 mA
16.8064319575678;0.299835205078125;0.0030035400390625;5.69999998560888;571;100 mA
16.8164319575426;0.29986572265625;0.0030096435546875;5.70999998558364;572;100 mA
16.8264319575173;0.299835205078125;0.0030078125;5.71999998555839;573;100 mA
16.8364319574921;0.2998046875;0.0029998779296875;5.72999998553314;574;100 mA
16.8464319574668;0.299835205078125;0.0030242919921875;5.73999998550789;575;100 mA
16.8564319574416;0.299896240234375;0.0030487060546875;5.74999998548265;576;100 mA
16.8664319574164;0.29986572265625;0.003046875;5.7599999854574;577;100 mA
16.8764319573911;0.299896240234375;0.00303192138671875;5.76999998543215;578;100 mA
16.8864319573659;0.29986572265625;0.003084716796875;5.7799999854069;579;100 mA
16.8964319573406;0.299835205078125;0.00306060791015625;5.78999998538166;580;100 mA
16.9064319573154;0.299835205078125;0.0030743408203125;5.79999998535641;581;100 mA
16.9164319572901;0.2999267578125;0.003021240234375;5.80999998533116;582;100 mA
16.9264319572649;0.2998046875;0.00302886962890625;5.81999998530591;583;100 mA
16.9364319572396;0.299835205078125;0.00298736572265625;5.82999998528066;584;100 mA
16.9464319572144;0.29986572265625;0.0030267333984375;5.83999998525542;585;100 mA
16.9564319571891;0.29986572265625;0.003017578125;5.84999998523017;586;100 mA
16.9664319571639;0.299835205078125;0.00304779052734375;5.85999998520492;587;100 mA
16.9764319571386;0.299896240234375;0.0030291748046875;5.86999998517967;588;100 mA
16.9864319571134;0.299835205078125;0.00298370361328125;5.87999998515443;589;100 mA
16.9964319570881;0.299835205078125;0.00300811767578125;5.88999998512918;590;100 mA
17.0064319570629;0.2999267578125;0.003018798828125;5.89999998510393;591;100 mA
17.0164319570376;0.299896240234375;0.003094482421875;5.90999998507868;592;100 mA
17.0264319570124;0.299835205078125;0.00305816650390625;5.91999998505344;593;100 mA
17.0364319569871;0.299774169921875;0.003052978515625;5.92999998502819;594;100 mA
17.0464319569619;0.299896240234375;0.00305755615234375;5.93999998500294;595;100 mA
17.0564319569366;0.29986572265625;0.00307342529296875;5.94999998497769;596;100 mA
17.0664319569114;0.299835205078125;0.0030487060546875;5.95999998495245;597;100 mA
17.0764319568862;0.29986572265625;0.00304779052734375;5.9699999849272;598;100 mA
17.0864319568609;0.2999267578125;0.0030230712890625;5.97999998490195;599;100 mA
17.0964319568357;0.299896240234375;0.00306060791015625;5.9899999848767;600;100 mA
17.1064319568104;0.299835205078125;0.00303680419921875;5.99999998485146;601;100 mA
17.1164319567852;0.299957275390625;0.00298553466796875;6.00999998482621;602;100 mA
17.1264319567599;0.299896240234375;0.00301788330078125;6.01999998480096;603;100 mA
17.1364319567347;0.299835205078125;0.00302093505859375;6.02999998477571;604;100 mA
17.1464319567094;0.29986572265625;0.00302215576171875;6.03999998475047;605;100 mA
17.1564319566842;0.29986572265625;0.00297821044921875;6.04999998472522;606;100 mA
17.1664319566589;0.29986572265625;0.0030145263671875;6.05999998469997;607;100 mA
17.1764319566337;0.299896240234375;0.003060302734375;6.06999998467472;608;100 mA
17.1864319566084;0.29986572265625;0.00305511474609375;6.07999998464948;609;100 mA
17.1964319565832;0.2998046875;0.003045654296875;6.08999998462423;610;100 mA
17.2064319565579;0.299835205078125;0.00304351806640625;6.09999998459898;611;100 mA
17.2164319565327;0.299835205078125;0.00300018310546875;6.10999998457373;612;100 mA
17.2264319565074;0.29986572265625;0.0030364990234375;6.11999998454849;613;100 mA
17.2364319564822;0.2998046875;0.00303558349609375;6.12999998452324;614;100 mA
17.2464319564569;0.29986572265625;0.003062744140625;6.13999998449799;615;100 mA
17.2564319564317;0.299896240234375;0.00309326171875;6.14999998447274;616;100 mA
17.2664319564064;0.29986572265625;0.00309539794921875;6.1599999844475;617;100 mA
17.2764319563812;0.299774169921875;0.003118896484375;6.16999998442225;618;100 mA
17.286431956356;0.29986572265625;0.00306396484375;6.179999984397;619;100 mA
17.2964319563307;0.2999267578125;0.003095703125;6.18999998437175;620;100 mA
17.3064319563055;0.299835205078125;0.00307830810546875;6.1999999843465;621;100 mA
17.3164319562802;0.29986572265625;0.00308349609375;6.20999998432126;622;100 mA
17.326431956255;0.299835205078125;0.0030914306640625;6.21999998429601;623;100 mA
17.3364319562297;0.29986572265625;0.00306884765625;6.22999998427076;624;100 mA
17.3464319562045;0.299835205078125;0.0030828857421875;6.23999998424551;625;100 mA
17.3564319561792;0.299896240234375;0.00304779052734375;6.24999998422027;626;100 mA
17.366431956154;0.29986572265625;0.00303314208984375;6.25999998419502;627;100 mA
17.3764319561287;0.299835205078125;0.00298492431640625;6.26999998416977;628;100 mA
17.3864319561035;0.299835205078125;0.00302642822265625;6.27999998414452;629;100 mA
17.3964319560782;0.29986572265625;0.003017578125;6.28999998411928;630;100 mA
17.406431956053;0.299835205078125;0.00306671142578125;6.29999998409403;631;100 mA
17.4164319560277;0.299896240234375;0.00305206298828125;6.30999998406878;632;100 mA
17.4264319560025;0.29986572265625;0.003125;6.31999998404353;633;100 mA
17.4364319559772;0.299896240234375;0.00307708740234375;6.32999998401829;634;100 mA
17.446431955952;0.299835205078125;0.003089599609375;6.33999998399304;635;100 mA
17.4564319559267;0.299896240234375;0.0030816650390625;6.34999998396779;636;100 mA
17.4664319559015;0.2999267578125;0.00307708740234375;6.35999998394254;637;100 mA
17.4764319558763;0.299835205078125;0.0031158447265625;6.3699999839173;638;100 mA
17.486431955851;0.299835205078125;0.0031036376953125;6.37999998389205;639;100 mA
17.4964319558258;0.299896240234375;0.00310455322265625;6.3899999838668;640;100 mA
17.5064319558005;0.299896240234375;0.00307403564453125;6.39999998384155;641;100 mA
17.5164319557753;0.299713134765625;0.00308135986328125;6.40999998381631;642;100 mA
17.52643195575;0.299835205078125;0.00307525634765625;6.41999998379106;643;100 mA
17.5364319557248;0.29986572265625;0.0031121826171875;6.42999998376581;644;100 mA
17.5464319556995;0.29986572265625;0.00310150146484375;6.43999998374056;645;100 mA
17.5564319556743;0.299835205078125;0.0031097412109375;6.44999998371532;646;100 mA
17.566431955649;0.29986572265625;0.0031158447265625;6.45999998369007;647;100 mA
17.5764319556238;0.29986572265625;0.00309600830078125;6.46999998366482;648;100 mA
17.5864319555985;0.299835205078125;0.003145751953125;6.47999998363957;649;100 mA
17.5964319555733;0.299835205078125;0.0031158447265625;6.48999998361433;650;100 mA
17.606431955548;0.2998046875;0.0031292724609375;6.49999998358908;651;100 mA
17.6164319555228;0.29986572265625;0.00309783935546875;6.50999998356383;652;100 mA
17.6264319554975;0.29986572265625;0.00312103271484375;6.51999998353858;653;100 mA
17.6364319554723;0.29986572265625;0.0030914306640625;6.52999998351333;654;100 mA
17.646431955447;0.299835205078125;0.00310028076171875;6.53999998348809;655;100 mA
17.6564319554218;0.2999267578125;0.00305816650390625;6.54999998346284;656;100 mA
17.6664319553965;0.29986572265625;0.0030517578125;6.55999998343759;657;100 mA
17.6764319553713;0.29986572265625;0.003035888671875;6.56999998341234;658;100 mA
17.6864319553461;0.299835205078125;0.0030255126953125;6.5799999833871;659;100 mA
17.6964319553208;0.29986572265625;0.0030072021484375;6.58999998336185;660;100 mA
17.7064319552956;0.2998046875;0.00301116943359375;6.5999999833366;661;100 mA
17.7164319552703;0.299835205078125;0.00303955078125;6.60999998331135;662;100 mA
17.7264319552451;0.299835205078125;0.00301361083984375;6.61999998328611;663;100 mA
17.7364319552198;0.299835205078125;0.0030279541015625;6.62999998326086;664;100 mA
17.7464319551946;0.299835205078125;0.00300140380859375;6.63999998323561;665;100 mA
17.7564319551693;0.299835205078125;0.00303436279296875;6.64999998321036;666;100 mA
17.7664319551441;0.29986572265625;0.0030010986328125;6.65999998318512;667;100 mA
17.7764319551188;0.299835205078125;0.00300262451171875;6.66999998315987;668;100 mA
17.7864319550936;0.299835205078125;0.00300079345703125;6.67999998313462;669;100 mA
17.7964319550683;0.2998046875;0.0030035400390625;6.68999998310937;670;100 mA
17.8064319550431;0.299835205078125;0.00306671142578125;6.69999998308413;671;100 mA
17.8164319550178;0.299835205078125;0.00305419921875;6.70999998305888;672;100 mA
17.8264319549926;0.29986572265625;0.00303314208984375;6.71999998303363;673;100 mA
17.8364319549673;0.299896240234375;0.0030462646484375;6.72999998300838;674;100 mA
17.8464319549421;0.299835205078125;0.00308807373046875;6.73999998298314;675;100 mA
17.8564319549168;0.299835205078125;0.00307403564453125;6.74999998295789;676;100 mA
17.8664319548916;0.299835205078125;0.0031182861328125;6.75999998293264;677;100 mA
17.8764319548663;0.299896240234375;0.0030511474609375;6.76999998290739;678;100 mA
17.8864319548411;0.299774169921875;0.00310394287109375;6.77999998288215;679;100 mA
17.8964319548159;0.299835205078125;0.00305267333984375;6.7899999828569;680;100 mA
17.9064319547906;0.299896240234375;0.0030206298828125;6.79999998283165;681;100 mA
17.9164319547654;0.299896240234375;0.00299468994140625;6.8099999828064;682;100 mA
17.9264319547401;0.2998046875;0.00301055908203125;6.81999998278116;683;100 mA
17.9364319547149;0.299896240234375;0.003016357421875;6.82999998275591;684;100 mA
17.9464319546896;0.29986572265625;0.002998046875;6.83999998273066;685;100 mA
17.9564319546644;0.299896240234375;0.00304595947265625;6.84999998270541;686;100 mA
17.9664319546391;0.299835205078125;0.003031005859375;6.85999998268016;687;100 mA
17.9764319546139;0.2998046875;0.00309661865234375;6.86999998265492;688;100 mA
17.9864319545886;0.29986572265625;0.00308135986328125;6.87999998262967;689;100 mA
17.9964319545634;0.2998046875;0.0030914306640625;6.88999998260442;690;100 mA
18.0064319545381;0.299896240234375;0.00309051513671875;6.89999998257917;691;100 mA
18.0164319545129;0.29986572265625;0.003138427734375;6.90999998255393;692;100 mA
18.0264319544876;0.299835205078125;0.00310211181640625;6.91999998252868;693;100 mA
18.0364319544624;0.299835205078125;0.00306549072265625;6.92999998250343;694;100 mA
18.0464319544371;0.299896240234375;0.0030548095703125;6.93999998247818;695;100 mA
18.0564319544119;0.299835205078125;0.0030438232421875;6.94999998245294;696;100 mA
18.0664319543866;0.299835205078125;0.00303955078125;6.95999998242769;697;100 mA
18.0764319543614;0.2998046875;0.00302337646484375;6.96999998240244;698;100 mA
18.0864319543361;0.2998046875;0.00305023193359375;6.97999998237719;699;100 mA
18.0964319543109;0.299835205078125;0.00304534912109375;6.98999998235195;700;100 mA
