Time (s);WE(1).Potential (V);WE(1).Current (A);Corrected time (s);Index;Current range
18.6016569530353;0.20001220703125;0.00190032958984375;0;1;100 mA
18.6116569530101;0.199951171875;0.0021771240234375;0.00999999997475243;2;100 mA
18.6216569529848;0.199951171875;0.00226837158203125;0.0199999999495049;3;100 mA
18.6316569529596;0.199981689453125;0.0023297119140625;0.0299999999242573;4;100 mA
18.6416569529343;0.20001220703125;0.0023779296875;0.0399999998990097;5;100 mA
18.6516569529091;0.20001220703125;0.00237335205078125;0.0499999998737621;6;100 mA
18.6616569528838;0.200042724609375;0.0024444580078125;0.0599999998485146;7;100 mA
18.6716569528586;0.200042724609375;0.00244537353515625;0.069999999823267;8;100 mA
18.6816569528334;0.199951171875;0.00249542236328125;0.0799999997980194;9;100 mA
18.6916569528081;0.199951171875;0.0025030517578125;0.0899999997727718;10;100 mA
18.7016569527829;0.199981689453125;0.00257720947265625;0.0999999997475243;11;100 mA
18.7116569527576;0.199981689453125;0.0025506591796875;0.109999999722277;12;100 mA
18.7216569527324;0.199981689453125;0.0025677490234375;0.119999999697029;13;100 mA
18.7316569527071;0.199981689453125;0.0025836181640625;0.129999999671782;14;100 mA
18.7416569526819;0.199951171875;0.00257537841796875;0.139999999646534;15;100 mA
18.7516569526566;0.199951171875;0.00261474609375;0.149999999621286;16;100 mA
18.7616569526314;0.200103759765625;0.0026446533203125;0.159999999596039;17;100 mA
18.7716569526061;0.199951171875;0.0026812744140625;0.169999999570791;18;100 mA
18.7816569525809;0.19989013671875;0.00267364501953125;0.179999999545544;19;100 mA
18.7916569525556;0.199981689453125;0.0026812744140625;0.189999999520296;20;100 mA
18.8016569525304;0.199951171875;0.00268798828125;0.199999999495049;21;100 mA
18.8116569525051;0.199981689453125;0.0026953125;0.209999999469801;22;100 mA
18.8216569524799;0.199951171875;0.0026849365234375;0.219999999444553;23;100 mA
18.8316569524546;0.199981689453125;0.00266754150390625;0.229999999419306;24;100 mA
18.8416569524294;0.20001220703125;0.00263092041015625;0.239999999394058;25;100 mA
18.8516569524041;0.20001220703125;0.0026251220703125;0.249999999368811;26;100 mA
18.8616569523789;0.199951171875;0.0026568603515625;0.259999999343563;27;100 mA
18.8716569523536;0.199981689453125;0.00265228271484375;0.269999999318316;28;100 mA
18.8816569523284;0.199920654296875;0.00269775390625;0.279999999293068;29;100 mA
18.8916569523032;0.20001220703125;0.00265655517578125;0.28999999926782;30;100 mA
18.9016569522779;0.199981689453125;0.00267669677734375;0.299999999242573;31;100 mA
18.9116569522527;0.20001220703125;0.002666015625;0.309999999217325;32;100 mA
18.9216569522274;0.199920654296875;0.00268157958984375;0.319999999192078;33;100 mA
18.9316569522022;0.20001220703125;0.0026763916015625;0.32999999916683;34;100 mA
18.9416569521769;0.199981689453125;0.0027001953125;0.339999999141583;35;100 mA
18.9516569521517;0.199951171875;0.00272064208984375;0.349999999116335;36;100 mA
18.9616569521264;0.200042724609375;0.0026849365234375;0.359999999091087;37;100 mA
18.9716569521012;0.20001220703125;0.00270111083984375;0.36999999906584;38;100 mA
18.9816569520759;0.199951171875;0.0026556396484375;0.379999999040592;39;100 mA
18.9916569520507;0.19989013671875;0.0026666259765625;0.389999999015345;40;100 mA
19.0016569520254;0.2000732421875;0.00264495849609375;0.399999998990097;41;100 mA
19.0116569520002;0.199981689453125;0.0026629638671875;0.40999999896485;42;100 mA
19.0216569519749;0.19989013671875;0.00264129638671875;0.419999998939602;43;100 mA
19.0316569519497;0.199951171875;0.00264251708984375;0.429999998914354;44;100 mA
19.0416569519244;0.199981689453125;0.0026519775390625;0.439999998889107;45;100 mA
19.0516569518992;0.199981689453125;0.00266387939453125;0.449999998863859;46;100 mA
19.0616569518739;0.199951171875;0.00264251708984375;0.459999998838612;47;100 mA
19.0716569518487;0.199981689453125;0.00264923095703125;0.469999998813364;48;100 mA
19.0816569518234;0.20001220703125;0.00269500732421875;0.479999998788116;49;100 mA
19.0916569517982;0.200042724609375;0.00271026611328125;0.489999998762869;50;100 mA
19.101656951773;0.200042724609375;0.0026904296875;0.499999998737621;51;100 mA
19.1116569517477;0.199951171875;0.00266021728515625;0.509999998712374;52;100 mA
19.1216569517225;0.199951171875;0.0026605224609375;0.519999998687126;53;100 mA
19.1316569516972;0.199951171875;0.002637939453125;0.529999998661879;54;100 mA
19.141656951672;0.199981689453125;0.0026702880859375;0.539999998636631;55;100 mA
19.1516569516467;0.199981689453125;0.00266387939453125;0.549999998611383;56;100 mA
19.1616569516215;0.199981689453125;0.00266937255859375;0.559999998586136;57;100 mA
19.1716569515962;0.20001220703125;0.00264251708984375;0.569999998560888;58;100 mA
19.181656951571;0.20001220703125;0.00265106201171875;0.579999998535641;59;100 mA
19.1916569515457;0.199981689453125;0.0026788330078125;0.589999998510393;60;100 mA
19.2016569515205;0.199981689453125;0.0026605224609375;0.599999998485146;61;100 mA
19.2116569514952;0.199981689453125;0.00266998291015625;0.609999998459898;62;100 mA
19.22165695147;0.199981689453125;0.0026605224609375;0.61999999843465;63;100 mA
19.2316569514447;0.199920654296875;0.002696533203125;0.629999998409403;64;100 mA
19.2416569514195;0.20013427734375;0.00265655517578125;0.639999998384155;65;100 mA
19.2516569513942;0.199981689453125;0.0026593017578125;0.649999998358908;66;100 mA
19.261656951369;0.199951171875;0.00264495849609375;0.65999999833366;67;100 mA
19.2716569513437;0.20001220703125;0.00269775390625;0.669999998308413;68;100 mA
19.2816569513185;0.199951171875;0.00267608642578125;0.679999998283165;69;100 mA
19.2916569512932;0.199981689453125;0.00268035888671875;0.689999998257917;70;100 mA
19.301656951268;0.20001220703125;0.00266143798828125;0.69999999823267;71;100 mA
19.3116569512428;0.199951171875;0.00264556884765625;0.709999998207422;72;100 mA
19.3216569512175;0.20001220703125;0.0026312255859375;0.719999998182175;73;100 mA
19.3316569511923;0.2000732421875;0.00262451171875;0.729999998156927;74;100 mA
19.341656951167;0.200042724609375;0.00263458251953125;0.73999999813168;75;100 mA
19.3516569511418;0.199920654296875;0.002626953125;0.749999998106432;76;100 mA
19.3616569511165;0.199920654296875;0.00261810302734375;0.759999998081184;77;100 mA
19.3716569510913;0.199981689453125;0.00264007568359375;0.769999998055937;78;100 mA
19.381656951066;0.20001220703125;0.00269927978515625;0.779999998030689;79;100 mA
19.3916569510408;0.20001220703125;0.00269622802734375;0.789999998005442;80;100 mA
19.4016569510155;0.199951171875;0.002669677734375;0.799999997980194;81;100 mA
19.4116569509903;0.20001220703125;0.00266998291015625;0.809999997954947;82;100 mA
19.421656950965;0.20001220703125;0.00269012451171875;0.819999997929699;83;100 mA
19.4316569509398;0.19989013671875;0.0026934814453125;0.829999997904451;84;100 mA
19.4416569509145;0.20001220703125;0.0026751708984375;0.839999997879204;85;100 mA
19.4516569508893;0.20001220703125;0.0026678466796875;0.849999997853956;86;100 mA
19.461656950864;0.199951171875;0.00265472412109375;0.859999997828709;87;100 mA
19.4716569508388;0.199981689453125;0.00268585205078125;0.869999997803461;88;100 mA
19.4816569508135;0.199951171875;0.0026568603515625;0.879999997778214;89;100 mA
19.4916569507883;0.199981689453125;0.00266265869140625;0.889999997752966;90;100 mA
19.501656950763;0.199981689453125;0.0026239013671875;0.899999997727718;91;100 mA
19.5116569507378;0.199981689453125;0.00264312744140625;0.909999997702471;92;100 mA
19.5216569507126;0.199951171875;0.0026324462890625;0.919999997677223;93;100 mA
19.5316569506873;0.20001220703125;0.00263641357421875;0.929999997651976;94;100 mA
19.5416569506621;0.2000732421875;0.002625732421875;0.939999997626728;95;100 mA
19.5516569506368;0.20001220703125;0.00265777587890625;0.949999997601481;96;100 mA
19.5616569506116;0.199981689453125;0.0026434326171875;0.959999997576233;97;100 mA
19.5716569505863;0.199981689453125;0.00262664794921875;0.969999997550985;98;100 mA
19.5816569505611;0.20001220703125;0.00263885498046875;0.979999997525738;99;100 mA
19.5916569505358;0.20001220703125;0.0026177978515625;0.98999999750049;100;100 mA
19.6016569505106;0.199920654296875;0.00264068603515625;0.999999997475243;101;100 mA
19.6116569504853;0.199981689453125;0.0026251220703125;1.00999999745;102;100 mA
19.6216569504601;0.199981689453125;0.0026373291015625;1.01999999742475;103;100 mA
19.6316569504348;0.199951171875;0.00263763427734375;1.0299999973995;104;100 mA
19.6416569504096;0.199920654296875;0.00265594482421875;1.03999999737425;105;100 mA
19.6516569503843;0.20001220703125;0.002662353515625;1.049999997349;106;100 mA
19.6616569503591;0.20001220703125;0.00266754150390625;1.05999999732376;107;100 mA
19.6716569503338;0.199981689453125;0.002666015625;1.06999999729851;108;100 mA
19.6816569503086;0.199981689453125;0.0026611328125;1.07999999727326;109;100 mA
19.6916569502833;0.199981689453125;0.0026922607421875;1.08999999724801;110;100 mA
19.7016569502581;0.199981689453125;0.00270294189453125;1.09999999722277;111;100 mA
19.7116569502329;0.199920654296875;0.00270050048828125;1.10999999719752;112;100 mA
19.7216569502076;0.200042724609375;0.002666015625;1.11999999717227;113;100 mA
19.7316569501824;0.199981689453125;0.0026763916015625;1.12999999714702;114;100 mA
19.7416569501571;0.20001220703125;0.002620849609375;1.13999999712178;115;100 mA
19.7516569501319;0.199951171875;0.0026654052734375;1.14999999709653;116;100 mA
19.7616569501066;0.199951171875;0.002659912109375;1.15999999707128;117;100 mA
19.7716569500814;0.199981689453125;0.00267791748046875;1.16999999704603;118;100 mA
19.7816569500561;0.20001220703125;0.0026739501953125;1.17999999702079;119;100 mA
19.7916569500309;0.200042724609375;0.002681884765625;1.18999999699554;120;100 mA
19.8016569500056;0.199920654296875;0.002679443359375;1.19999999697029;121;100 mA
19.8116569499804;0.199951171875;0.00268096923828125;1.20999999694504;122;100 mA
19.8216569499551;0.2000732421875;0.00269500732421875;1.2199999969198;123;100 mA
19.8316569499299;0.199951171875;0.0026922607421875;1.22999999689455;124;100 mA
19.8416569499046;0.19989013671875;0.0027099609375;1.2399999968693;125;100 mA
19.8516569498794;0.200042724609375;0.0026763916015625;1.24999999684405;126;100 mA
19.8616569498541;0.199981689453125;0.00266357421875;1.25999999681881;127;100 mA
19.8716569498289;0.199981689453125;0.00264373779296875;1.26999999679356;128;100 mA
19.8816569498036;0.199920654296875;0.0026251220703125;1.27999999676831;129;100 mA
19.8916569497784;0.199981689453125;0.00263214111328125;1.28999999674306;130;100 mA
19.9016569497531;0.20001220703125;0.00261932373046875;1.29999999671782;131;100 mA
19.9116569497279;0.199981689453125;0.0026251220703125;1.30999999669257;132;100 mA
19.9216569497027;0.199981689453125;0.00259307861328125;1.31999999666732;133;100 mA
19.9316569496774;0.199920654296875;0.00259552001953125;1.32999999664207;134;100 mA
19.9416569496522;0.199981689453125;0.0026031494140625;1.33999999661683;135;100 mA
19.9516569496269;0.200042724609375;0.00266265869140625;1.34999999659158;136;100 mA
19.9616569496017;0.199951171875;0.00261444091796875;1.35999999656633;137;100 mA
19.9716569495764;0.20001220703125;0.002623291015625;1.36999999654108;138;100 mA
19.9816569495512;0.199951171875;0.00264007568359375;1.37999999651583;139;100 mA
19.9916569495259;0.200042724609375;0.002713623046875;1.38999999649059;140;100 mA
20.0016569495007;0.199981689453125;0.00271270751953125;1.39999999646534;141;100 mA
20.0116569494754;0.199920654296875;0.0027081298828125;1.40999999644009;142;100 mA
20.0216569494502;0.200042724609375;0.002686767578125;1.41999999641484;143;100 mA
20.0316569494249;0.199951171875;0.0026806640625;1.4299999963896;144;100 mA
20.0416569493997;0.199981689453125;0.0026849365234375;1.43999999636435;145;100 mA
20.0516569493744;0.199951171875;0.0027099609375;1.4499999963391;146;100 mA
20.0616569493492;0.199981689453125;0.002703857421875;1.45999999631385;147;100 mA
20.0716569493239;0.20001220703125;0.0026556396484375;1.46999999628861;148;100 mA
20.0816569492987;0.19989013671875;0.00265655517578125;1.47999999626336;149;100 mA
20.0916569492734;0.199981689453125;0.00264190673828125;1.48999999623811;150;100 mA
20.1016569492482;0.199981689453125;0.00266265869140625;1.49999999621286;151;100 mA
20.1116569492229;0.200042724609375;0.00267852783203125;1.50999999618762;152;100 mA
20.1216569491977;0.199951171875;0.0026824951171875;1.51999999616237;153;100 mA
20.1316569491725;0.199951171875;0.002655029296875;1.52999999613712;154;100 mA
20.1416569491472;0.199981689453125;0.0026837158203125;1.53999999611187;155;100 mA
20.151656949122;0.199981689453125;0.00269439697265625;1.54999999608663;156;100 mA
20.1616569490967;0.199951171875;0.0027117919921875;1.55999999606138;157;100 mA
20.1716569490715;0.199920654296875;0.00271392822265625;1.56999999603613;158;100 mA
20.1816569490462;0.199981689453125;0.0027203369140625;1.57999999601088;159;100 mA
20.191656949021;0.20001220703125;0.00272705078125;1.58999999598564;160;100 mA
20.2016569489957;0.20001220703125;0.0026947021484375;1.59999999596039;161;100 mA
20.2116569489705;0.199981689453125;0.0027294921875;1.60999999593514;162;100 mA
20.2216569489452;0.20001220703125;0.00274810791015625;1.61999999590989;163;100 mA
20.23165694892;0.20001220703125;0.00273895263671875;1.62999999588465;164;100 mA
20.2416569488947;0.199951171875;0.00272369384765625;1.6399999958594;165;100 mA
20.2516569488695;0.199981689453125;0.00273345947265625;1.64999999583415;166;100 mA
20.2616569488442;0.199981689453125;0.00274200439453125;1.6599999958089;167;100 mA
20.271656948819;0.2000732421875;0.0027349853515625;1.66999999578366;168;100 mA
20.2816569487937;0.199951171875;0.0027362060546875;1.67999999575841;169;100 mA
20.2916569487685;0.20001220703125;0.00270263671875;1.68999999573316;170;100 mA
20.3016569487432;0.199951171875;0.00272125244140625;1.69999999570791;171;100 mA
20.311656948718;0.199981689453125;0.00268798828125;1.70999999568267;172;100 mA
20.3216569486927;0.199951171875;0.00268951416015625;1.71999999565742;173;100 mA
20.3316569486675;0.199951171875;0.0026776123046875;1.72999999563217;174;100 mA
20.3416569486423;0.200042724609375;0.0026885986328125;1.73999999560692;175;100 mA
20.351656948617;0.200042724609375;0.002691650390625;1.74999999558167;176;100 mA
20.3616569485918;0.199859619140625;0.002705078125;1.75999999555643;177;100 mA
20.3716569485665;0.199951171875;0.00270111083984375;1.76999999553118;178;100 mA
20.3816569485413;0.20001220703125;0.0027166748046875;1.77999999550593;179;100 mA
20.391656948516;0.199981689453125;0.00270660400390625;1.78999999548068;180;100 mA
20.4016569484908;0.20001220703125;0.0026971435546875;1.79999999545544;181;100 mA
20.4116569484655;0.199981689453125;0.0027044677734375;1.80999999543019;182;100 mA
20.4216569484403;0.20001220703125;0.00268157958984375;1.81999999540494;183;100 mA
20.431656948415;0.199981689453125;0.00269195556640625;1.82999999537969;184;100 mA
20.4416569483898;0.199981689453125;0.0026641845703125;1.83999999535445;185;100 mA
20.4516569483645;0.199981689453125;0.00268218994140625;1.8499999953292;186;100 mA
20.4616569483393;0.199951171875;0.002645263671875;1.85999999530395;187;100 mA
20.471656948314;0.199920654296875;0.002674560546875;1.8699999952787;188;100 mA
20.4816569482888;0.20001220703125;0.0026861572265625;1.87999999525346;189;100 mA
20.4916569482635;0.199981689453125;0.00266204833984375;1.88999999522821;190;100 mA
20.5016569482383;0.199951171875;0.00262115478515625;1.89999999520296;191;100 mA
20.511656948213;0.20001220703125;0.0026318359375;1.90999999517771;192;100 mA
20.5216569481878;0.200042724609375;0.00266143798828125;1.91999999515247;193;100 mA
20.5316569481625;0.20001220703125;0.0026568603515625;1.92999999512722;194;100 mA
20.5416569481373;0.199981689453125;0.00268096923828125;1.93999999510197;195;100 mA
20.5516569481121;0.199981689453125;0.0026739501953125;1.94999999507672;196;100 mA
20.5616569480868;0.199920654296875;0.002666015625;1.95999999505148;197;100 mA
20.5716569480616;0.199920654296875;0.0026275634765625;1.96999999502623;198;100 mA
20.5816569480363;0.199951171875;0.0026446533203125;1.97999999500098;199;100 mA
20.5916569480111;0.200042724609375;0.00261077880859375;1.98999999497573;200;100 mA
20.6016569479858;0.199951171875;0.00263092041015625;1.99999999495049;201;100 mA
20.6116569479606;0.199951171875;0.00263946533203125;2.00999999492524;202;100 mA
20.6216569479353;0.199951171875;0.0026641845703125;2.01999999489999;203;100 mA
20.6316569479101;0.199981689453125;0.00267822265625;2.02999999487474;204;100 mA
20.6416569478848;0.2000732421875;0.00263641357421875;2.0399999948495;205;100 mA
20.6516569478596;0.199981689453125;0.0026507568359375;2.04999999482425;206;100 mA
20.6616569478343;0.199981689453125;0.00264495849609375;2.059999994799;207;100 mA
20.6716569478091;0.20001220703125;0.00266876220703125;2.06999999477375;208;100 mA
20.6816569477838;0.20001220703125;0.00266357421875;2.0799999947485;209;100 mA
20.6916569477586;0.20001220703125;0.0026702880859375;2.08999999472326;210;100 mA
20.7016569477333;0.199981689453125;0.00264190673828125;2.09999999469801;211;100 mA
20.7116569477081;0.199951171875;0.00262542724609375;2.10999999467276;212;100 mA
20.7216569476828;0.20001220703125;0.00263092041015625;2.11999999464751;213;100 mA
20.7316569476576;0.199981689453125;0.00265289306640625;2.12999999462227;214;100 mA
20.7416569476324;0.199981689453125;0.002645263671875;2.13999999459702;215;100 mA
20.7516569476071;0.200042724609375;0.00262237548828125;2.14999999457177;216;100 mA
20.7616569475819;0.200042724609375;0.0026263427734375;2.15999999454652;217;100 mA
20.7716569475566;0.20001220703125;0.00264495849609375;2.16999999452128;218;100 mA
20.7816569475314;0.19989013671875;0.0026617431640625;2.17999999449603;219;100 mA
20.7916569475061;0.199981689453125;0.0026470947265625;2.18999999447078;220;100 mA
20.8016569474809;0.19989013671875;0.00266082763671875;2.19999999444553;221;100 mA
20.8116569474556;0.199981689453125;0.00261810302734375;2.20999999442029;222;100 mA
20.8216569474304;0.20001220703125;0.00262664794921875;2.21999999439504;223;100 mA
20.8316569474051;0.199981689453125;0.002645263671875;2.22999999436979;224;100 mA
20.8416569473799;0.19989013671875;0.002667236328125;2.23999999434454;225;100 mA
20.8516569473546;0.20001220703125;0.00263214111328125;2.2499999943193;226;100 mA
20.8616569473294;0.199981689453125;0.00258880615234375;2.25999999429405;227;100 mA
20.8716569473041;0.199920654296875;0.00256622314453125;2.2699999942688;228;100 mA
20.8816569472789;0.20001220703125;0.002586669921875;2.27999999424355;229;100 mA
20.8916569472536;0.2000732421875;0.0026129150390625;2.28999999421831;230;100 mA
20.9016569472284;0.20001220703125;0.00259368896484375;2.29999999419306;231;100 mA
20.9116569472031;0.199920654296875;0.00260009765625;2.30999999416781;232;100 mA
20.9216569471779;0.199920654296875;0.00259185791015625;2.31999999414256;233;100 mA
20.9316569471526;0.199981689453125;0.0026153564453125;2.32999999411732;234;100 mA
20.9416569471274;0.199981689453125;0.00259796142578125;2.33999999409207;235;100 mA
20.9516569471022;0.200042724609375;0.00262176513671875;2.34999999406682;236;100 mA
20.9616569470769;0.20001220703125;0.0026336669921875;2.35999999404157;237;100 mA
20.9716569470517;0.200042724609375;0.0026568603515625;2.36999999401633;238;100 mA
20.9816569470264;0.199951171875;0.002669677734375;2.37999999399108;239;100 mA
20.9916569470012;0.199920654296875;0.00263824462890625;2.38999999396583;240;100 mA
21.0016569469759;0.199920654296875;0.0026373291015625;2.39999999394058;241;100 mA
21.0116569469507;0.20001220703125;0.0026495361328125;2.40999999391533;242;100 mA
21.0216569469254;0.199981689453125;0.00264617919921875;2.41999999389009;243;100 mA
21.0316569469002;0.199920654296875;0.00260406494140625;2.42999999386484;244;100 mA
21.0416569468749;0.1998291015625;0.00262847900390625;2.43999999383959;245;100 mA
21.0516569468497;0.199981689453125;0.00264129638671875;2.44999999381434;246;100 mA
21.0616569468244;0.20001220703125;0.00270599365234375;2.4599999937891;247;100 mA
21.0716569467992;0.199981689453125;0.00264862060546875;2.46999999376385;248;100 mA
21.0816569467739;0.1998291015625;0.00263275146484375;2.4799999937386;249;100 mA
21.0916569467487;0.199920654296875;0.00261962890625;2.48999999371335;250;100 mA
21.1016569467234;0.200042724609375;0.00264251708984375;2.49999999368811;251;100 mA
21.1116569466982;0.199920654296875;0.00271453857421875;2.50999999366286;252;100 mA
21.1216569466729;0.199981689453125;0.002696533203125;2.51999999363761;253;100 mA
21.1316569466477;0.200042724609375;0.00268310546875;2.52999999361236;254;100 mA
21.1416569466224;0.20001220703125;0.00264068603515625;2.53999999358712;255;100 mA
21.1516569465972;0.199951171875;0.0026934814453125;2.54999999356187;256;100 mA
21.161656946572;0.199981689453125;0.00269927978515625;2.55999999353662;257;100 mA
21.1716569465467;0.199981689453125;0.00270538330078125;2.56999999351137;258;100 mA
21.1816569465215;0.199981689453125;0.002691650390625;2.57999999348613;259;100 mA
21.1916569464962;0.200042724609375;0.00268585205078125;2.58999999346088;260;100 mA
21.201656946471;0.2000732421875;0.00265472412109375;2.59999999343563;261;100 mA
21.2116569464457;0.200042724609375;0.00267547607421875;2.60999999341038;262;100 mA
21.2216569464205;0.20001220703125;0.002701416015625;2.61999999338514;263;100 mA
21.2316569463952;0.20001220703125;0.00269134521484375;2.62999999335989;264;100 mA
21.24165694637;0.199920654296875;0.00268402099609375;2.63999999333464;265;100 mA
21.2516569463447;0.199981689453125;0.00267974853515625;2.64999999330939;266;100 mA
21.2616569463195;0.199981689453125;0.002703857421875;2.65999999328415;267;100 mA
21.2716569462942;0.199981689453125;0.00268402099609375;2.6699999932589;268;100 mA
21.281656946269;0.1998291015625;0.00269744873046875;2.67999999323365;269;100 mA
21.2916569462437;0.20001220703125;0.00263946533203125;2.6899999932084;270;100 mA
21.3016569462185;0.199951171875;0.002650146484375;2.69999999318316;271;100 mA
21.3116569461932;0.199951171875;0.00260772705078125;2.70999999315791;272;100 mA
21.321656946168;0.199798583984375;0.002633056640625;2.71999999313266;273;100 mA
21.3316569461427;0.200042724609375;0.00262725830078125;2.72999999310741;274;100 mA
21.3416569461175;0.20001220703125;0.00264434814453125;2.73999999308217;275;100 mA
21.3516569460922;0.199951171875;0.0026275634765625;2.74999999305692;276;100 mA
21.361656946067;0.20001220703125;0.002618408203125;2.75999999303167;277;100 mA
21.3716569460418;0.199951171875;0.00263580322265625;2.76999999300642;278;100 mA
21.3816569460165;0.20001220703125;0.0026007080078125;2.77999999298117;279;100 mA
21.3916569459913;0.20001220703125;0.0025958251953125;2.78999999295593;280;100 mA
21.401656945966;0.20001220703125;0.00259429931640625;2.79999999293068;281;100 mA
21.4116569459408;0.199981689453125;0.00262664794921875;2.80999999290543;282;100 mA
21.4216569459155;0.20001220703125;0.002613525390625;2.81999999288018;283;100 mA
21.4316569458903;0.199981689453125;0.00267486572265625;2.82999999285494;284;100 mA
21.441656945865;0.20001220703125;0.00263824462890625;2.83999999282969;285;100 mA
21.4516569458398;0.199981689453125;0.00264190673828125;2.84999999280444;286;100 mA
21.4616569458145;0.200042724609375;0.00265625;2.85999999277919;287;100 mA
21.4716569457893;0.199920654296875;0.00268951416015625;2.86999999275395;288;100 mA
21.481656945764;0.199981689453125;0.00272064208984375;2.8799999927287;289;100 mA
21.4916569457388;0.199981689453125;0.0026898193359375;2.88999999270345;290;100 mA
21.5016569457135;0.199981689453125;0.0027130126953125;2.8999999926782;291;100 mA
21.5116569456883;0.20001220703125;0.00269683837890625;2.90999999265296;292;100 mA
21.521656945663;0.19989013671875;0.00271209716796875;2.91999999262771;293;100 mA
21.5316569456378;0.199920654296875;0.0027276611328125;2.92999999260246;294;100 mA
21.5416569456125;0.20001220703125;0.002730712890625;2.93999999257721;295;100 mA
21.5516569455873;0.20001220703125;0.0026751708984375;2.94999999255197;296;100 mA
21.561656945562;0.199951171875;0.0027008056640625;2.95999999252672;297;100 mA
21.5716569455368;0.199981689453125;0.0027215576171875;2.96999999250147;298;100 mA
21.5816569455116;0.199981689453125;0.00271697998046875;2.97999999247622;299;100 mA
21.5916569454863;0.199951171875;0.002723388671875;2.98999999245098;300;100 mA
21.6016569454611;0.199951171875;0.00273895263671875;2.99999999242573;301;100 mA
21.6116569454358;0.199951171875;0.0027325439453125;3.00999999240048;302;100 mA
21.6216569454106;0.20001220703125;0.0027337646484375;3.01999999237523;303;100 mA
21.6316569453853;0.20001220703125;0.002744140625;3.02999999234999;304;100 mA
21.6416569453601;0.20001220703125;0.0027008056640625;3.03999999232474;305;100 mA
21.6516569453348;0.199981689453125;0.00273773193359375;3.04999999229949;306;100 mA
21.6616569453096;0.200042724609375;0.00271240234375;3.05999999227424;307;100 mA
21.6716569452843;0.20001220703125;0.0027191162109375;3.069999992249;308;100 mA
21.6816569452591;0.200103759765625;0.002720947265625;3.07999999222375;309;100 mA
21.6916569452338;0.20001220703125;0.00272186279296875;3.0899999921985;310;100 mA
21.7016569452086;0.200042724609375;0.00270965576171875;3.09999999217325;311;100 mA
21.7116569451833;0.200042724609375;0.0026824951171875;3.109999992148;312;100 mA
21.7216569451581;0.199920654296875;0.00267333984375;3.11999999212276;313;100 mA
21.7316569451328;0.20001220703125;0.002666015625;3.12999999209751;314;100 mA
21.7416569451076;0.20001220703125;0.00268829345703125;3.13999999207226;315;100 mA
21.7516569450823;0.19989013671875;0.00267791748046875;3.14999999204701;316;100 mA
21.7616569450571;0.1998291015625;0.00269500732421875;3.15999999202177;317;100 mA
21.7716569450319;0.199981689453125;0.002672119140625;3.16999999199652;318;100 mA
21.7816569450066;0.20001220703125;0.00271026611328125;3.17999999197127;319;100 mA
21.7916569449814;0.200042724609375;0.0026934814453125;3.18999999194602;320;100 mA
21.8016569449561;0.199951171875;0.00271148681640625;3.19999999192078;321;100 mA
21.8116569449309;0.199981689453125;0.00270294189453125;3.20999999189553;322;100 mA
21.8216569449056;0.199981689453125;0.00269683837890625;3.21999999187028;323;100 mA
21.8316569448804;0.20001220703125;0.0026953125;3.22999999184503;324;100 mA
21.8416569448551;0.20001220703125;0.00267852783203125;3.23999999181979;325;100 mA
21.8516569448299;0.199920654296875;0.002716064453125;3.24999999179454;326;100 mA
21.8616569448046;0.200042724609375;0.00274078369140625;3.25999999176929;327;100 mA
21.8716569447794;0.199981689453125;0.00272674560546875;3.26999999174404;328;100 mA
21.8816569447541;0.199951171875;0.00269989013671875;3.2799999917188;329;100 mA
21.8916569447289;0.199981689453125;0.00272674560546875;3.28999999169355;330;100 mA
21.9016569447036;0.20001220703125;0.00269134521484375;3.2999999916683;331;100 mA
21.9116569446784;0.20001220703125;0.00267486572265625;3.30999999164305;332;100 mA
21.9216569446531;0.200103759765625;0.0026800537109375;3.31999999161781;333;100 mA
21.9316569446279;0.199920654296875;0.00268798828125;3.32999999159256;334;100 mA
21.9416569446026;0.20001220703125;0.0026715087890625;3.33999999156731;335;100 mA
21.9516569445774;0.200042724609375;0.00266082763671875;3.34999999154206;336;100 mA
21.9616569445521;0.199981689453125;0.00268768310546875;3.35999999151682;337;100 mA
21.9716569445269;0.20001220703125;0.0026806640625;3.36999999149157;338;100 mA
21.9816569445017;0.199951171875;0.00265899658203125;3.37999999146632;339;100 mA
21.9916569444764;0.20001220703125;0.00261871337890625;3.38999999144107;340;100 mA
22.0016569444512;0.199981689453125;0.00264495849609375;3.39999999141583;341;100 mA
22.0116569444259;0.20001220703125;0.00264923095703125;3.40999999139058;342;100 mA
22.0216569444007;0.20001220703125;0.0026470947265625;3.41999999136533;343;100 mA
22.0316569443754;0.20001220703125;0.00262542724609375;3.42999999134008;344;100 mA
22.0416569443502;0.199981689453125;0.00263458251953125;3.43999999131483;345;100 mA
22.0516569443249;0.199981689453125;0.00263214111328125;3.44999999128959;346;100 mA
22.0616569442997;0.20001220703125;0.00266693115234375;3.45999999126434;347;100 mA
22.0716569442744;0.200042724609375;0.00267578125;3.46999999123909;348;100 mA
22.0816569442492;0.2000732421875;0.00265594482421875;3.47999999121384;349;100 mA
22.0916569442239;0.199951171875;0.002679443359375;3.4899999911886;350;100 mA
22.1016569441987;0.200042724609375;0.0026654052734375;3.49999999116335;351;100 mA
22.1116569441734;0.20001220703125;0.002689208984375;3.5099999911381;352;100 mA
22.1216569441482;0.199981689453125;0.00268524169921875;3.51999999111285;353;100 mA
22.1316569441229;0.20001220703125;0.0026959228515625;3.52999999108761;354;100 mA
22.1416569440977;0.199981689453125;0.00269805908203125;3.53999999106236;355;100 mA
22.1516569440724;0.20001220703125;0.0026947021484375;3.54999999103711;356;100 mA
22.1616569440472;0.2000732421875;0.00268402099609375;3.55999999101186;357;100 mA
22.1716569440219;0.199981689453125;0.00269287109375;3.56999999098662;358;100 mA
22.1816569439967;0.199951171875;0.0026806640625;3.57999999096137;359;100 mA
22.1916569439715;0.20001220703125;0.002677001953125;3.58999999093612;360;100 mA
22.2016569439462;0.199951171875;0.002681884765625;3.59999999091087;361;100 mA
22.211656943921;0.199920654296875;0.00268096923828125;3.60999999088563;362;100 mA
22.2216569438957;0.199951171875;0.002684326171875;3.61999999086038;363;100 mA
22.2316569438705;0.20001220703125;0.0026904296875;3.62999999083513;364;100 mA
22.2416569438452;0.200042724609375;0.00271026611328125;3.63999999080988;365;100 mA
22.25165694382;0.199981689453125;0.0027032470703125;3.64999999078464;366;100 mA
22.2616569437947;0.199981689453125;0.00271240234375;3.65999999075939;367;100 mA
22.2716569437695;0.199981689453125;0.0026934814453125;3.66999999073414;368;100 mA
22.2816569437442;0.199951171875;0.0027001953125;3.67999999070889;369;100 mA
22.291656943719;0.199951171875;0.0026849365234375;3.68999999068365;370;100 mA
22.3016569436937;0.199920654296875;0.00268646240234375;3.6999999906584;371;100 mA
22.3116569436685;0.199920654296875;0.002705078125;3.70999999063315;372;100 mA
22.3216569436432;0.20001220703125;0.0026727294921875;3.7199999906079;373;100 mA
22.331656943618;0.20001220703125;0.002679443359375;3.72999999058266;374;100 mA
22.3416569435927;0.199920654296875;0.00265655517578125;3.73999999055741;375;100 mA
22.3516569435675;0.199981689453125;0.00265655517578125;3.74999999053216;376;100 mA
22.3616569435422;0.199981689453125;0.0026715087890625;3.75999999050691;377;100 mA
22.371656943517;0.199920654296875;0.00270721435546875;3.76999999048167;378;100 mA
22.3816569434917;0.199951171875;0.00268798828125;3.77999999045642;379;100 mA
22.3916569434665;0.199951171875;0.00267730712890625;3.78999999043117;380;100 mA
22.4016569434413;0.200042724609375;0.00263702392578125;3.79999999040592;381;100 mA
22.411656943416;0.199920654296875;0.0026385498046875;3.80999999038067;382;100 mA
22.4216569433908;0.199981689453125;0.002640380859375;3.81999999035543;383;100 mA
22.4316569433655;0.200042724609375;0.00264495849609375;3.82999999033018;384;100 mA
22.4416569433403;0.199951171875;0.00265594482421875;3.83999999030493;385;100 mA
22.451656943315;0.199951171875;0.00266357421875;3.84999999027968;386;100 mA
22.4616569432898;0.199951171875;0.00267181396484375;3.85999999025444;387;100 mA
22.4716569432645;0.199920654296875;0.00267669677734375;3.86999999022919;388;100 mA
22.4816569432393;0.199981689453125;0.00267547607421875;3.87999999020394;389;100 mA
22.491656943214;0.199981689453125;0.002630615234375;3.88999999017869;390;100 mA
22.5016569431888;0.199920654296875;0.00261383056640625;3.89999999015345;391;100 mA
22.5116569431635;0.20001220703125;0.00259429931640625;3.9099999901282;392;100 mA
22.5216569431383;0.199981689453125;0.00261505126953125;3.91999999010295;393;100 mA
22.531656943113;0.199981689453125;0.00262542724609375;3.9299999900777;394;100 mA
22.5416569430878;0.20001220703125;0.00263671875;3.93999999005246;395;100 mA
22.5516569430625;0.200042724609375;0.0026519775390625;3.94999999002721;396;100 mA
22.5616569430373;0.20001220703125;0.0026153564453125;3.95999999000196;397;100 mA
22.571656943012;0.199981689453125;0.0026116943359375;3.96999998997671;398;100 mA
22.5816569429868;0.199981689453125;0.00258758544921875;3.97999998995147;399;100 mA
22.5916569429615;0.199981689453125;0.00259765625;3.98999998992622;400;100 mA
22.6016569429363;0.200042724609375;0.00259124755859375;3.99999998990097;401;100 mA
22.6116569429111;0.199981689453125;0.002625732421875;4.00999998987572;402;100 mA
22.6216569428858;0.199981689453125;0.00260406494140625;4.01999998985048;403;100 mA
22.6316569428606;0.20001220703125;0.00260772705078125;4.02999998982523;404;100 mA
22.6416569428353;0.2000732421875;0.002608642578125;4.03999998979998;405;100 mA
22.6516569428101;0.199981689453125;0.00264068603515625;4.04999998977473;406;100 mA
22.6616569427848;0.199951171875;0.002633056640625;4.05999998974949;407;100 mA
22.6716569427596;0.199981689453125;0.002623291015625;4.06999998972424;408;100 mA
22.6816569427343;0.19989013671875;0.00261383056640625;4.07999998969899;409;100 mA
22.6916569427091;0.199981689453125;0.0025885009765625;4.08999998967374;410;100 mA
22.7016569426838;0.20001220703125;0.00260528564453125;4.0999999896485;411;100 mA
22.7116569426586;0.199951171875;0.00259002685546875;4.10999998962325;412;100 mA
22.7216569426333;0.20001220703125;0.0025872802734375;4.119999989598;413;100 mA
22.7316569426081;0.199951171875;0.0025677490234375;4.12999998957275;414;100 mA
22.7416569425828;0.20001220703125;0.00258331298828125;4.1399999895475;415;100 mA
22.7516569425576;0.200042724609375;0.00261688232421875;4.14999998952226;416;100 mA
22.7616569425323;0.200042724609375;0.0026507568359375;4.15999998949701;417;100 mA
22.7716569425071;0.20001220703125;0.0026324462890625;4.16999998947176;418;100 mA
22.7816569424818;0.20001220703125;0.0026239013671875;4.17999998944651;419;100 mA
22.7916569424566;0.20001220703125;0.00260345458984375;4.18999998942127;420;100 mA
22.8016569424314;0.20001220703125;0.002606201171875;4.19999998939602;421;100 mA
22.8116569424061;0.200042724609375;0.0026177978515625;4.20999998937077;422;100 mA
22.8216569423809;0.199981689453125;0.00262542724609375;4.21999998934552;423;100 mA
22.8316569423556;0.20001220703125;0.00263671875;4.22999998932028;424;100 mA
22.8416569423304;0.199951171875;0.00260955810546875;4.23999998929503;425;100 mA
22.8516569423051;0.199951171875;0.00262420654296875;4.24999998926978;426;100 mA
22.8616569422799;0.199981689453125;0.00259613037109375;4.25999998924453;427;100 mA
22.8716569422546;0.199951171875;0.00260986328125;4.26999998921929;428;100 mA
22.8816569422294;0.199951171875;0.00258392333984375;4.27999998919404;429;100 mA
22.8916569422041;0.20001220703125;0.00259857177734375;4.28999998916879;430;100 mA
22.9016569421789;0.199981689453125;0.0026165771484375;4.29999998914354;431;100 mA
22.9116569421536;0.199951171875;0.002606201171875;4.3099999891183;432;100 mA
22.9216569421284;0.199920654296875;0.00263092041015625;4.31999998909305;433;100 mA
22.9316569421031;0.200042724609375;0.0026531982421875;4.3299999890678;434;100 mA
22.9416569420779;0.20001220703125;0.00267242431640625;4.33999998904255;435;100 mA
22.9516569420526;0.199920654296875;0.0026373291015625;4.34999998901731;436;100 mA
22.9616569420274;0.200042724609375;0.0026629638671875;4.35999998899206;437;100 mA
22.9716569420021;0.20001220703125;0.00264068603515625;4.36999998896681;438;100 mA
22.9816569419769;0.20001220703125;0.00266571044921875;4.37999998894156;439;100 mA
22.9916569419516;0.20001220703125;0.00266876220703125;4.38999998891632;440;100 mA
23.0016569419264;0.2000732421875;0.00267669677734375;4.39999998889107;441;100 mA
23.0116569419012;0.199981689453125;0.00266815185546875;4.40999998886582;442;100 mA
23.0216569418759;0.20001220703125;0.00265777587890625;4.41999998884057;443;100 mA
23.0316569418507;0.199951171875;0.002691650390625;4.42999998881533;444;100 mA
23.0416569418254;0.20001220703125;0.0026641845703125;4.43999998879008;445;100 mA
23.0516569418002;0.199981689453125;0.00266021728515625;4.44999998876483;446;100 mA
23.0616569417749;0.20001220703125;0.00263214111328125;4.45999998873958;447;100 mA
23.0716569417497;0.199981689453125;0.0026702880859375;4.46999998871433;448;100 mA
23.0816569417244;0.20001220703125;0.002657470703125;4.47999998868909;449;100 mA
23.0916569416992;0.199981689453125;0.00268096923828125;4.48999998866384;450;100 mA
23.1016569416739;0.20001220703125;0.002659912109375;4.49999998863859;451;100 mA
23.1116569416487;0.199981689453125;0.0026837158203125;4.50999998861334;452;100 mA
23.1216569416234;0.199951171875;0.00264892578125;4.5199999885881;453;100 mA
23.1316569415982;0.200042724609375;0.00265899658203125;4.52999998856285;454;100 mA
23.1416569415729;0.20001220703125;0.0026837158203125;4.5399999885376;455;100 mA
23.1516569415477;0.199951171875;0.002689208984375;4.54999998851235;456;100 mA
23.1616569415224;0.199920654296875;0.002698974609375;4.55999998848711;457;100 mA
23.1716569414972;0.199981689453125;0.002679443359375;4.56999998846186;458;100 mA
23.1816569414719;0.199981689453125;0.00269927978515625;4.57999998843661;459;100 mA
23.1916569414467;0.199981689453125;0.0026593017578125;4.58999998841136;460;100 mA
23.2016569414214;0.20001220703125;0.0026763916015625;4.59999998838612;461;100 mA
23.2116569413962;0.199951171875;0.00267852783203125;4.60999998836087;462;100 mA
23.221656941371;0.199981689453125;0.0026995849609375;4.61999998833562;463;100 mA
23.2316569413457;0.199951171875;0.00264007568359375;4.62999998831037;464;100 mA
23.2416569413205;0.199981689453125;0.0026318359375;4.63999998828513;465;100 mA
23.2516569412952;0.20001220703125;0.0026470947265625;4.64999998825988;466;100 mA
23.26165694127;0.199951171875;0.00265869140625;4.65999998823463;467;100 mA
23.2716569412447;0.200042724609375;0.00266510009765625;4.66999998820938;468;100 mA
23.2816569412195;0.19989013671875;0.002640380859375;4.67999998818414;469;100 mA
23.2916569411942;0.199920654296875;0.00263946533203125;4.68999998815889;470;100 mA
23.301656941169;0.199981689453125;0.00261566162109375;4.69999998813364;471;100 mA
23.3116569411437;0.20001220703125;0.00262847900390625;4.70999998810839;472;100 mA
23.3216569411185;0.199981689453125;0.00263702392578125;4.71999998808315;473;100 mA
23.3316569410932;0.20001220703125;0.0026470947265625;4.7299999880579;474;100 mA
23.341656941068;0.199981689453125;0.00263092041015625;4.73999998803265;475;100 mA
23.3516569410427;0.20001220703125;0.00263824462890625;4.7499999880074;476;100 mA
23.3616569410175;0.199981689453125;0.00263427734375;4.75999998798216;477;100 mA
23.3716569409922;0.199920654296875;0.00262969970703125;4.76999998795691;478;100 mA
23.381656940967;0.2000732421875;0.002657470703125;4.77999998793166;479;100 mA
23.3916569409417;0.199951171875;0.00264434814453125;4.78999998790641;480;100 mA
23.4016569409165;0.199951171875;0.00263824462890625;4.79999998788116;481;100 mA
23.4116569408912;0.20001220703125;0.0025982666015625;4.80999998785592;482;100 mA
23.421656940866;0.199981689453125;0.00262481689453125;4.81999998783067;483;100 mA
23.4316569408408;0.199920654296875;0.00262237548828125;4.82999998780542;484;100 mA
23.4416569408155;0.199981689453125;0.00262664794921875;4.83999998778017;485;100 mA
23.4516569407903;0.200042724609375;0.00259429931640625;4.84999998775493;486;100 mA
23.461656940765;0.199981689453125;0.00260650634765625;4.85999998772968;487;100 mA
23.4716569407398;0.199951171875;0.00262664794921875;4.86999998770443;488;100 mA
23.4816569407145;0.199981689453125;0.00262664794921875;4.87999998767918;489;100 mA
23.4916569406893;0.199951171875;0.00262115478515625;4.88999998765394;490;100 mA
23.501656940664;0.199981689453125;0.002623291015625;4.89999998762869;491;100 mA
23.5116569406388;0.20001220703125;0.0026605224609375;4.90999998760344;492;100 mA
23.5216569406135;0.20001220703125;0.00263763427734375;4.91999998757819;493;100 mA
23.5316569405883;0.20001220703125;0.00263427734375;4.92999998755295;494;100 mA
23.541656940563;0.199951171875;0.0026080322265625;4.9399999875277;495;100 mA
23.5516569405378;0.20001220703125;0.0026220703125;4.94999998750245;496;100 mA
23.5616569405125;0.200042724609375;0.0026129150390625;4.9599999874772;497;100 mA
23.5716569404873;0.20001220703125;0.0026177978515625;4.96999998745196;498;100 mA
23.581656940462;0.199951171875;0.0025787353515625;4.97999998742671;499;100 mA
23.5916569404368;0.20001220703125;0.00259674072265625;4.98999998740146;500;100 mA
23.6016569404115;0.199951171875;0.00262969970703125;4.99999998737621;501;100 mA
23.6116569403863;0.19989013671875;0.00263214111328125;5.00999998735097;502;100 mA
23.621656940361;0.199981689453125;0.00259735107421875;5.01999998732572;503;100 mA
23.6316569403358;0.20001220703125;0.00260345458984375;5.02999998730047;504;100 mA
23.6416569403106;0.199981689453125;0.0025799560546875;5.03999998727522;505;100 mA
23.6516569402853;0.200042724609375;0.00258056640625;5.04999998724998;506;100 mA
23.6616569402601;0.199920654296875;0.00261566162109375;5.05999998722473;507;100 mA
23.6716569402348;0.199951171875;0.00262725830078125;5.06999998719948;508;100 mA
23.6816569402096;0.20001220703125;0.00263824462890625;5.07999998717423;509;100 mA
23.6916569401843;0.19989013671875;0.00261688232421875;5.08999998714899;510;100 mA
23.7016569401591;0.199951171875;0.00263153076171875;5.09999998712374;511;100 mA
23.7116569401338;0.200042724609375;0.00262359619140625;5.10999998709849;512;100 mA
23.7216569401086;0.20001220703125;0.002623291015625;5.11999998707324;513;100 mA
23.7316569400833;0.199920654296875;0.0026397705078125;5.129999987048;514;100 mA
23.7416569400581;0.20001220703125;0.0026141357421875;5.13999998702275;515;100 mA
23.7516569400328;0.199981689453125;0.002608642578125;5.1499999869975;516;100 mA
23.7616569400076;0.20001220703125;0.0026226806640625;5.15999998697225;517;100 mA
23.7716569399823;0.20001220703125;0.0026214599609375;5.169999986947;518;100 mA
23.7816569399571;0.199981689453125;0.0025994873046875;5.17999998692176;519;100 mA
23.7916569399318;0.199951171875;0.00261199951171875;5.18999998689651;520;100 mA
23.8016569399066;0.20001220703125;0.0026031494140625;5.19999998687126;521;100 mA
23.8116569398813;0.199981689453125;0.0026165771484375;5.20999998684601;522;100 mA
23.8216569398561;0.199981689453125;0.00259185791015625;5.21999998682077;523;100 mA
23.8316569398309;0.20001220703125;0.00262420654296875;5.22999998679552;524;100 mA
23.8416569398056;0.20001220703125;0.00259857177734375;5.23999998677027;525;100 mA
23.8516569397804;0.20001220703125;0.00256927490234375;5.24999998674502;526;100 mA
23.8616569397551;0.199920654296875;0.00257232666015625;5.25999998671978;527;100 mA
23.8716569397299;0.20001220703125;0.0025872802734375;5.26999998669453;528;100 mA
23.8816569397046;0.199981689453125;0.002598876953125;5.27999998666928;529;100 mA
23.8916569396794;0.199981689453125;0.0026116943359375;5.28999998664403;530;100 mA
23.9016569396541;0.199920654296875;0.00265777587890625;5.29999998661879;531;100 mA
23.9116569396289;0.199951171875;0.0026483154296875;5.30999998659354;532;100 mA
23.9216569396036;0.2000732421875;0.00267333984375;5.31999998656829;533;100 mA
23.9316569395784;0.199981689453125;0.00266357421875;5.32999998654304;534;100 mA
23.9416569395531;0.2000732421875;0.00267974853515625;5.3399999865178;535;100 mA
23.9516569395279;0.199981689453125;0.00268585205078125;5.34999998649255;536;100 mA
23.9616569395026;0.200042724609375;0.00272186279296875;5.3599999864673;537;100 mA
23.9716569394774;0.199981689453125;0.00271392822265625;5.36999998644205;538;100 mA
23.9816569394521;0.199981689453125;0.00269622802734375;5.37999998641681;539;100 mA
23.9916569394269;0.199951171875;0.0027044677734375;5.38999998639156;540;100 mA
24.0016569394016;0.199981689453125;0.00268310546875;5.39999998636631;541;100 mA
24.0116569393764;0.20001220703125;0.00269500732421875;5.40999998634106;542;100 mA
24.0216569393511;0.199951171875;0.0026849365234375;5.41999998631582;543;100 mA
24.0316569393259;0.199981689453125;0.00269866943359375;5.42999998629057;544;100 mA
24.0416569393007;0.199981689453125;0.0026824951171875;5.43999998626532;545;100 mA
24.0516569392754;0.199981689453125;0.002701416015625;5.44999998624007;546;100 mA
24.0616569392502;0.199951171875;0.00269500732421875;5.45999998621483;547;100 mA
24.0716569392249;0.20001220703125;0.0027093505859375;5.46999998618958;548;100 mA
24.0816569391997;0.20001220703125;0.00267791748046875;5.47999998616433;549;100 mA
24.0916569391744;0.200042724609375;0.0026513671875;5.48999998613908;550;100 mA
24.1016569391492;0.199920654296875;0.00266998291015625;5.49999998611383;551;100 mA
24.1116569391239;0.199920654296875;0.00268707275390625;5.50999998608859;552;100 mA
24.1216569390987;0.199981689453125;0.0027044677734375;5.51999998606334;553;100 mA
24.1316569390734;0.199981689453125;0.00267974853515625;5.52999998603809;554;100 mA
24.1416569390482;0.199951171875;0.00267333984375;5.53999998601284;555;100 mA
24.1516569390229;0.199920654296875;0.00266326904296875;5.5499999859876;556;100 mA
24.1616569389977;0.19989013671875;0.0026605224609375;5.55999998596235;557;100 mA
24.1716569389724;0.20001220703125;0.00265594482421875;5.5699999859371;558;100 mA
24.1816569389472;0.20001220703125;0.00265472412109375;5.57999998591185;559;100 mA
24.1916569389219;0.199981689453125;0.00262603759765625;5.58999998588661;560;100 mA
24.2016569388967;0.200042724609375;0.00262359619140625;5.59999998586136;561;100 mA
24.2116569388714;0.20001220703125;0.0026275634765625;5.60999998583611;562;100 mA
24.2216569388462;0.199981689453125;0.00265869140625;5.61999998581086;563;100 mA
24.2316569388209;0.199951171875;0.00265045166015625;5.62999998578562;564;100 mA
24.2416569387957;0.199920654296875;0.002647705078125;5.63999998576037;565;100 mA
24.2516569387705;0.200042724609375;0.00263153076171875;5.64999998573512;566;100 mA
24.2616569387452;0.2000732421875;0.00259368896484375;5.65999998570987;567;100 mA
24.27165693872;0.199981689453125;0.002620849609375;5.66999998568463;568;100 mA
24.2816569386947;0.20001220703125;0.00264129638671875;5.67999998565938;569;100 mA
24.2916569386695;0.199951171875;0.002645263671875;5.68999998563413;570;100 mA
24.3016569386442;0.20001220703125;0.00262237548828125;5.69999998560888;571;100 mA
24.311656938619;0.199981689453125;0.00262725830078125;5.70999998558364;572;100 mA
24.3216569385937;0.20001220703125;0.0026226806640625;5.71999998555839;573;100 mA
24.3316569385685;0.199981689453125;0.002672119140625;5.72999998553314;574;100 mA
24.3416569385432;0.20001220703125;0.00269744873046875;5.73999998550789;575;100 mA
24.351656938518;0.199981689453125;0.00265289306640625;5.74999998548265;576;100 mA
24.3616569384927;0.19989013671875;0.00266021728515625;5.7599999854574;577;100 mA
24.3716569384675;0.20001220703125;0.00263763427734375;5.76999998543215;578;100 mA
24.3816569384422;0.20001220703125;0.002628173828125;5.7799999854069;579;100 mA
24.391656938417;0.199951171875;0.00260894775390625;5.78999998538166;580;100 mA
24.4016569383917;0.199981689453125;0.00265472412109375;5.79999998535641;581;100 mA
24.4116569383665;0.199981689453125;0.0026123046875;5.80999998533116;582;100 mA
24.4216569383412;0.199981689453125;0.00260223388671875;5.81999998530591;583;100 mA
24.431656938316;0.199981689453125;0.0025958251953125;5.82999998528066;584;100 mA
24.4416569382907;0.199981689453125;0.00259246826171875;5.83999998525542;585;100 mA
24.4516569382655;0.2000732421875;0.00260284423828125;5.84999998523017;586;100 mA
24.4616569382403;0.200042724609375;0.00263885498046875;5.85999998520492;587;100 mA
24.471656938215;0.199981689453125;0.00265899658203125;5.86999998517967;588;100 mA
24.4816569381898;0.199920654296875;0.0026507568359375;5.87999998515443;589;100 mA
24.4916569381645;0.199951171875;0.0026715087890625;5.88999998512918;590;100 mA
24.5016569381393;0.20001220703125;0.002637939453125;5.89999998510393;591;100 mA
24.511656938114;0.20001220703125;0.0026470947265625;5.90999998507868;592;100 mA
24.5216569380888;0.20001220703125;0.00261627197265625;5.91999998505344;593;100 mA
24.5316569380635;0.20001220703125;0.00264434814453125;5.92999998502819;594;100 mA
24.5416569380383;0.199920654296875;0.00264434814453125;5.93999998500294;595;100 mA
24.551656938013;0.20001220703125;0.0026513671875;5.94999998497769;596;100 mA
24.5616569379878;0.199981689453125;0.00266204833984375;5.95999998495245;597;100 mA
24.5716569379625;0.20001220703125;0.0026715087890625;5.9699999849272;598;100 mA
24.5816569379373;0.200042724609375;0.0026568603515625;5.97999998490195;599;100 mA
24.591656937912;0.20001220703125;0.002630615234375;5.9899999848767;600;100 mA
24.6016569378868;0.20001220703125;0.00261993408203125;5.99999998485146;601;100 mA
24.6116569378615;0.199981689453125;0.0025946044921875;6.00999998482621;602;100 mA
24.6216569378363;0.199981689453125;0.00264068603515625;6.01999998480096;603;100 mA
24.631656937811;0.199920654296875;0.0026226806640625;6.02999998477571;604;100 mA
24.6416569377858;0.199981689453125;0.00264373779296875;6.03999998475047;605;100 mA
24.6516569377605;0.200042724609375;0.0026287841796875;6.04999998472522;606;100 mA
24.6616569377353;0.199981689453125;0.00262664794921875;6.05999998469997;607;100 mA
24.6716569377101;0.199951171875;0.0026129150390625;6.06999998467472;608;100 mA
24.6816569376848;0.199951171875;0.002646484375;6.07999998464948;609;100 mA
24.6916569376596;0.199951171875;0.00262847900390625;6.08999998462423;610;100 mA
24.7016569376343;0.20001220703125;0.0026324462890625;6.09999998459898;611;100 mA
24.7116569376091;0.199981689453125;0.00264862060546875;6.10999998457373;612;100 mA
24.7216569375838;0.199920654296875;0.00260589599609375;6.11999998454849;613;100 mA
24.7316569375586;0.199951171875;0.00263824462890625;6.12999998452324;614;100 mA
24.7416569375333;0.199951171875;0.00260711669921875;6.13999998449799;615;100 mA
24.7516569375081;0.2000732421875;0.00261749267578125;6.14999998447274;616;100 mA
24.7616569374828;0.199981689453125;0.0026031494140625;6.1599999844475;617;100 mA
24.7716569374576;0.199981689453125;0.0025848388671875;6.16999998442225;618;100 mA
24.7816569374323;0.20001220703125;0.00259185791015625;6.179999984397;619;100 mA
24.7916569374071;0.200042724609375;0.0025982666015625;6.18999998437175;620;100 mA
24.8016569373818;0.199981689453125;0.00258087158203125;6.1999999843465;621;100 mA
24.8116569373566;0.199981689453125;0.0025738525390625;6.20999998432126;622;100 mA
24.8216569373313;0.20001220703125;0.00257781982421875;6.21999998429601;623;100 mA
24.8316569373061;0.199981689453125;0.00257171630859375;6.22999998427076;624;100 mA
24.8416569372808;0.20001220703125;0.00258697509765625;6.23999998424551;625;100 mA
24.8516569372556;0.199920654296875;0.00259735107421875;6.24999998422027;626;100 mA
24.8616569372304;0.19989013671875;0.00261077880859375;6.25999998419502;627;100 mA
24.8716569372051;0.199951171875;0.00256378173828125;6.26999998416977;628;100 mA
24.8816569371799;0.199981689453125;0.0025927734375;6.27999998414452;629;100 mA
24.8916569371546;0.199981689453125;0.00260284423828125;6.28999998411928;630;100 mA
24.9016569371294;0.199981689453125;0.00262969970703125;6.29999998409403;631;100 mA
24.9116569371041;0.199981689453125;0.00262451171875;6.30999998406878;632;100 mA
24.9216569370789;0.199981689453125;0.00261688232421875;6.31999998404353;633;100 mA
24.9316569370536;0.199981689453125;0.00257843017578125;6.32999998401829;634;100 mA
24.9416569370284;0.200042724609375;0.00257232666015625;6.33999998399304;635;100 mA
24.9516569370031;0.2000732421875;0.00256988525390625;6.34999998396779;636;100 mA
24.9616569369779;0.199981689453125;0.00258453369140625;6.35999998394254;637;100 mA
24.9716569369526;0.199951171875;0.0026007080078125;6.3699999839173;638;100 mA
24.9816569369274;0.199981689453125;0.0025885009765625;6.37999998389205;639;100 mA
24.9916569369021;0.20001220703125;0.0026043701171875;6.3899999838668;640;100 mA
25.0016569368769;0.199951171875;0.0026019287109375;6.39999998384155;641;100 mA
25.0116569368516;0.200042724609375;0.002587890625;6.40999998381631;642;100 mA
25.0216569368264;0.199981689453125;0.002576904296875;6.41999998379106;643;100 mA
25.0316569368011;0.199981689453125;0.00259857177734375;6.42999998376581;644;100 mA
25.0416569367759;0.200042724609375;0.0025982666015625;6.43999998374056;645;100 mA
25.0516569367506;0.199951171875;0.00262481689453125;6.44999998371532;646;100 mA
25.0616569367254;0.199951171875;0.00263671875;6.45999998369007;647;100 mA
25.0716569367002;0.20001220703125;0.0026593017578125;6.46999998366482;648;100 mA
25.0816569366749;0.2000732421875;0.00268768310546875;6.47999998363957;649;100 mA
25.0916569366497;0.199981689453125;0.00266448974609375;6.48999998361433;650;100 mA
25.1016569366244;0.199920654296875;0.00265289306640625;6.49999998358908;651;100 mA
25.1116569365992;0.199951171875;0.00265869140625;6.50999998356383;652;100 mA
25.1216569365739;0.20001220703125;0.00268951416015625;6.51999998353858;653;100 mA
25.1316569365487;0.20001220703125;0.0026654052734375;6.52999998351333;654;100 mA
25.1416569365234;0.199951171875;0.0026776123046875;6.53999998348809;655;100 mA
25.1516569364982;0.20001220703125;0.00267913818359375;6.54999998346284;656;100 mA
25.1616569364729;0.20001220703125;0.00269622802734375;6.55999998343759;657;100 mA
25.1716569364477;0.199981689453125;0.0027117919921875;6.56999998341234;658;100 mA
25.1816569364224;0.199951171875;0.00269012451171875;6.5799999833871;659;100 mA
25.1916569363972;0.20001220703125;0.0026806640625;6.58999998336185;660;100 mA
25.2016569363719;0.199981689453125;0.00266387939453125;6.5999999833366;661;100 mA
25.2116569363467;0.199951171875;0.00267303466796875;6.60999998331135;662;100 mA
25.2216569363214;0.20001220703125;0.0026544189453125;6.61999998328611;663;100 mA
25.2316569362962;0.199951171875;0.00266448974609375;6.62999998326086;664;100 mA
25.2416569362709;0.20001220703125;0.00264984130859375;6.63999998323561;665;100 mA
25.2516569362457;0.199981689453125;0.00264312744140625;6.64999998321036;666;100 mA
25.2616569362204;0.20001220703125;0.0026043701171875;6.65999998318512;667;100 mA
25.2716569361952;0.20001220703125;0.002623291015625;6.66999998315987;668;100 mA
25.28165693617;0.20001220703125;0.00260284423828125;6.67999998313462;669;100 mA
25.2916569361447;0.199981689453125;0.0026263427734375;6.68999998310937;670;100 mA
25.3016569361195;0.199920654296875;0.00263916015625;6.69999998308413;671;100 mA
25.3116569360942;0.19989013671875;0.002650146484375;6.70999998305888;672;100 mA
25.321656936069;0.20001220703125;0.002628173828125;6.71999998303363;673;100 mA
25.3316569360437;0.20001220703125;0.002628173828125;6.72999998300838;674;100 mA
25.3416569360185;0.199951171875;0.00266510009765625;6.73999998298314;675;100 mA
25.3516569359932;0.199951171875;0.00264984130859375;6.74999998295789;676;100 mA
25.361656935968;0.200042724609375;0.002664794921875;6.75999998293264;677;100 mA
25.3716569359427;0.19989013671875;0.0026556396484375;6.76999998290739;678;100 mA
25.3816569359175;0.199951171875;0.00263275146484375;6.77999998288215;679;100 mA
25.3916569358922;0.199951171875;0.0026336669921875;6.7899999828569;680;100 mA
25.401656935867;0.199981689453125;0.0026434326171875;6.79999998283165;681;100 mA
25.4116569358417;0.199981689453125;0.00262451171875;6.8099999828064;682;100 mA
25.4216569358165;0.199920654296875;0.00262054443359375;6.81999998278116;683;100 mA
25.4316569357912;0.199951171875;0.00264373779296875;6.82999998275591;684;100 mA
25.441656935766;0.20001220703125;0.00265289306640625;6.83999998273066;685;100 mA
25.4516569357407;0.20001220703125;0.0026361083984375;6.84999998270541;686;100 mA
25.4616569357155;0.20001220703125;0.00264129638671875;6.85999998268016;687;100 mA
25.4716569356902;0.199951171875;0.00263671875;6.86999998265492;688;100 mA
25.481656935665;0.20001220703125;0.00259613037109375;6.87999998262967;689;100 mA
25.4916569356398;0.199951171875;0.0026116943359375;6.88999998260442;690;100 mA
25.5016569356145;0.199951171875;0.00261322021484375;6.89999998257917;691;100 mA
25.5116569355893;0.20001220703125;0.0026312255859375;6.90999998255393;692;100 mA
25.521656935564;0.199951171875;0.00261016845703125;6.91999998252868;693;100 mA
25.5316569355388;0.199981689453125;0.002628173828125;6.92999998250343;694;100 mA
25.5416569355135;0.20001220703125;0.0025958251953125;6.93999998247818;695;100 mA
25.5516569354883;0.199920654296875;0.00258819580078125;6.94999998245294;696;100 mA
25.561656935463;0.199951171875;0.0025872802734375;6.95999998242769;697;100 mA
25.5716569354378;0.20001220703125;0.00258331298828125;6.96999998240244;698;100 mA
25.5816569354125;0.20001220703125;0.00261810302734375;6.97999998237719;699;100 mA
25.5916569353873;0.199951171875;0.00262847900390625;6.98999998235195;700;100 mA
