Time (s);WE(1).Potential (V);WE(1).Current (A);Corrected time (s);Index;Current range
26.0528919342228;-0.699920654296875;-0.340606689453125;0;1;100 mA
26.0628919341975;-0.69952392578125;-0.259033203125;0.00999999997475243;2;100 mA
26.0728919341723;-0.699493408203125;-0.227447509765625;0.0199999999495049;3;100 mA
26.082891934147;-0.69952392578125;-0.20819091796875;0.0299999999242573;4;100 mA
26.0928919341218;-0.69940185546875;-0.200958251953125;0.0399999998990097;5;100 mA
26.1028919340965;-0.699554443359375;-0.19464111328125;0.0499999998737621;6;100 mA
26.1128919340713;-0.699432373046875;-0.19146728515625;0.0599999998485146;7;100 mA
26.122891934046;-0.699432373046875;-0.1912841796875;0.069999999823267;8;100 mA
26.1328919340208;-0.69952392578125;-0.18731689453125;0.0799999997980194;9;100 mA
26.1428919339955;-0.699493408203125;-0.189544677734375;0.0899999997727718;10;100 mA
26.1528919339703;-0.699554443359375;-0.1859130859375;0.0999999997475243;11;100 mA
26.162891933945;-0.699432373046875;-0.188262939453125;0.109999999722277;12;100 mA
26.1728919339198;-0.699493408203125;-0.184112548828125;0.119999999697029;13;100 mA
26.1828919338946;-0.699432373046875;-0.1884765625;0.129999999671782;14;100 mA
26.1928919338693;-0.69940185546875;-0.18646240234375;0.139999999646534;15;100 mA
26.2028919338441;-0.6995849609375;-0.185150146484375;0.149999999621286;16;100 mA
26.2128919338188;-0.699554443359375;-0.180694580078125;0.159999999596039;17;100 mA
26.2228919337936;-0.69952392578125;-0.180084228515625;0.169999999570791;18;100 mA
26.2328919337683;-0.699493408203125;-0.1815185546875;0.179999999545544;19;100 mA
26.2428919337431;-0.699554443359375;-0.18157958984375;0.189999999520296;20;100 mA
26.2528919337178;-0.699493408203125;-0.18267822265625;0.199999999495049;21;100 mA
26.2628919336926;-0.699432373046875;-0.179443359375;0.209999999469801;22;100 mA
26.2728919336673;-0.699462890625;-0.182769775390625;0.219999999444553;23;100 mA
26.2828919336421;-0.699554443359375;-0.180450439453125;0.229999999419306;24;100 mA
26.2928919336168;-0.699493408203125;-0.18304443359375;0.239999999394058;25;100 mA
26.3028919335916;-0.699462890625;-0.18072509765625;0.249999999368811;26;100 mA
26.3128919335663;-0.699615478515625;-0.18328857421875;0.259999999343563;27;100 mA
26.3228919335411;-0.699554443359375;-0.18304443359375;0.269999999318316;28;100 mA
26.3328919335158;-0.69952392578125;-0.183990478515625;0.279999999293068;29;100 mA
26.3428919334906;-0.69952392578125;-0.18634033203125;0.28999999926782;30;100 mA
26.3528919334653;-0.69952392578125;-0.184417724609375;0.299999999242573;31;100 mA
26.3628919334401;-0.699493408203125;-0.184417724609375;0.309999999217325;32;100 mA
26.3728919334148;-0.69952392578125;-0.18243408203125;0.319999999192078;33;100 mA
26.3828919333896;-0.69952392578125;-0.18426513671875;0.32999999916683;34;100 mA
26.3928919333644;-0.69952392578125;-0.180908203125;0.339999999141583;35;100 mA
26.4028919333391;-0.699493408203125;-0.18292236328125;0.349999999116335;36;100 mA
26.4128919333139;-0.699493408203125;-0.178497314453125;0.359999999091087;37;100 mA
26.4228919332886;-0.69952392578125;-0.181640625;0.36999999906584;38;100 mA
26.4328919332634;-0.699432373046875;-0.18109130859375;0.379999999040592;39;100 mA
26.4428919332381;-0.699493408203125;-0.18267822265625;0.389999999015345;40;100 mA
26.4528919332129;-0.699493408203125;-0.18218994140625;0.399999998990097;41;100 mA
26.4628919331876;-0.69952392578125;-0.180816650390625;0.40999999896485;42;100 mA
26.4728919331624;-0.69952392578125;-0.18243408203125;0.419999998939602;43;100 mA
26.4828919331371;-0.69952392578125;-0.180755615234375;0.429999998914354;44;100 mA
26.4928919331119;-0.6995849609375;-0.182159423828125;0.439999998889107;45;100 mA
26.5028919330866;-0.699493408203125;-0.17901611328125;0.449999998863859;46;100 mA
26.5128919330614;-0.699493408203125;-0.180084228515625;0.459999998838612;47;100 mA
26.5228919330361;-0.69952392578125;-0.1781005859375;0.469999998813364;48;100 mA
26.5328919330109;-0.69952392578125;-0.180511474609375;0.479999998788116;49;100 mA
26.5428919329856;-0.699493408203125;-0.179351806640625;0.489999998762869;50;100 mA
26.5528919329604;-0.6995849609375;-0.180999755859375;0.499999998737621;51;100 mA
26.5628919329351;-0.6995849609375;-0.17919921875;0.509999998712374;52;100 mA
26.5728919329099;-0.699554443359375;-0.178985595703125;0.519999998687126;53;100 mA
26.5828919328846;-0.69952392578125;-0.179443359375;0.529999998661879;54;100 mA
26.5928919328594;-0.699493408203125;-0.1790771484375;0.539999998636631;55;100 mA
26.6028919328342;-0.699493408203125;-0.1785888671875;0.549999998611383;56;100 mA
26.6128919328089;-0.699554443359375;-0.178558349609375;0.559999998586136;57;100 mA
26.6228919327837;-0.699462890625;-0.1827392578125;0.569999998560888;58;100 mA
26.6328919327584;-0.699493408203125;-0.179962158203125;0.579999998535641;59;100 mA
26.6428919327332;-0.699493408203125;-0.1815185546875;0.589999998510393;60;100 mA
26.6528919327079;-0.699554443359375;-0.181243896484375;0.599999998485146;61;100 mA
26.6628919326827;-0.6995849609375;-0.183441162109375;0.609999998459898;62;100 mA
26.6728919326574;-0.699462890625;-0.18017578125;0.61999999843465;63;100 mA
26.6828919326322;-0.69952392578125;-0.18035888671875;0.629999998409403;64;100 mA
26.6928919326069;-0.699554443359375;-0.180755615234375;0.639999998384155;65;100 mA
26.7028919325817;-0.699462890625;-0.18206787109375;0.649999998358908;66;100 mA
26.7128919325564;-0.69952392578125;-0.182342529296875;0.65999999833366;67;100 mA
26.7228919325312;-0.699554443359375;-0.179443359375;0.669999998308413;68;100 mA
26.7328919325059;-0.699462890625;-0.182342529296875;0.679999998283165;69;100 mA
26.7428919324807;-0.69952392578125;-0.182281494140625;0.689999998257917;70;100 mA
26.7528919324554;-0.699462890625;-0.183502197265625;0.69999999823267;71;100 mA
26.7628919324302;-0.699493408203125;-0.18017578125;0.709999998207422;72;100 mA
26.7728919324049;-0.69940185546875;-0.181671142578125;0.719999998182175;73;100 mA
26.7828919323797;-0.69952392578125;-0.177734375;0.729999998156927;74;100 mA
26.7928919323545;-0.699554443359375;-0.17926025390625;0.73999999813168;75;100 mA
26.8028919323292;-0.6995849609375;-0.181549072265625;0.749999998106432;76;100 mA
26.812891932304;-0.699554443359375;-0.1810302734375;0.759999998081184;77;100 mA
26.8228919322787;-0.699493408203125;-0.18084716796875;0.769999998055937;78;100 mA
26.8328919322535;-0.6995849609375;-0.180938720703125;0.779999998030689;79;100 mA
26.8428919322282;-0.699432373046875;-0.182769775390625;0.789999998005442;80;100 mA
26.852891932203;-0.699432373046875;-0.181793212890625;0.799999997980194;81;100 mA
26.8628919321777;-0.699554443359375;-0.1824951171875;0.809999997954947;82;100 mA
26.8728919321525;-0.6995849609375;-0.17974853515625;0.819999997929699;83;100 mA
26.8828919321272;-0.699462890625;-0.1837158203125;0.829999997904451;84;100 mA
26.892891932102;-0.6995849609375;-0.180511474609375;0.839999997879204;85;100 mA
26.9028919320767;-0.699554443359375;-0.182464599609375;0.849999997853956;86;100 mA
26.9128919320515;-0.69952392578125;-0.18133544921875;0.859999997828709;87;100 mA
26.9228919320262;-0.699554443359375;-0.18096923828125;0.869999997803461;88;100 mA
26.932891932001;-0.69952392578125;-0.182464599609375;0.879999997778214;89;100 mA
26.9428919319757;-0.699493408203125;-0.18304443359375;0.889999997752966;90;100 mA
26.9528919319505;-0.69952392578125;-0.18524169921875;0.899999997727718;91;100 mA
26.9628919319252;-0.699493408203125;-0.183685302734375;0.909999997702471;92;100 mA
26.9728919319;-0.699493408203125;-0.184417724609375;0.919999997677223;93;100 mA
26.9828919318747;-0.699554443359375;-0.1827392578125;0.929999997651976;94;100 mA
26.9928919318495;-0.699493408203125;-0.1851806640625;0.939999997626728;95;100 mA
27.0028919318243;-0.69952392578125;-0.180419921875;0.949999997601481;96;100 mA
27.012891931799;-0.699493408203125;-0.1810302734375;0.959999997576233;97;100 mA
27.0228919317738;-0.699462890625;-0.178192138671875;0.969999997550985;98;100 mA
27.0328919317485;-0.699615478515625;-0.178436279296875;0.979999997525738;99;100 mA
27.0428919317233;-0.699493408203125;-0.176239013671875;0.98999999750049;100;100 mA
27.052891931698;-0.699493408203125;-0.178680419921875;0.999999997475243;101;100 mA
27.0628919316728;-0.699493408203125;-0.178375244140625;1.00999999745;102;100 mA
27.0728919316475;-0.69952392578125;-0.176971435546875;1.01999999742475;103;100 mA
27.0828919316223;-0.69952392578125;-0.17919921875;1.0299999973995;104;100 mA
27.092891931597;-0.69952392578125;-0.176971435546875;1.03999999737425;105;100 mA
27.1028919315718;-0.699493408203125;-0.17803955078125;1.049999997349;106;100 mA
27.1128919315465;-0.699554443359375;-0.17657470703125;1.05999999732376;107;100 mA
27.1228919315213;-0.699493408203125;-0.1781005859375;1.06999999729851;108;100 mA
27.132891931496;-0.69952392578125;-0.176666259765625;1.07999999727326;109;100 mA
27.1428919314708;-0.699554443359375;-0.178802490234375;1.08999999724801;110;100 mA
27.1528919314455;-0.699432373046875;-0.1778564453125;1.09999999722277;111;100 mA
27.1628919314203;-0.699493408203125;-0.17828369140625;1.10999999719752;112;100 mA
27.172891931395;-0.699493408203125;-0.17755126953125;1.11999999717227;113;100 mA
27.1828919313698;-0.69952392578125;-0.174652099609375;1.12999999714702;114;100 mA
27.1928919313445;-0.69952392578125;-0.176055908203125;1.13999999712178;115;100 mA
27.2028919313193;-0.699554443359375;-0.17578125;1.14999999709653;116;100 mA
27.2128919312941;-0.699432373046875;-0.17718505859375;1.15999999707128;117;100 mA
27.2228919312688;-0.699493408203125;-0.175689697265625;1.16999999704603;118;100 mA
27.2328919312436;-0.69952392578125;-0.176727294921875;1.17999999702079;119;100 mA
27.2428919312183;-0.6995849609375;-0.1744384765625;1.18999999699554;120;100 mA
27.2528919311931;-0.699493408203125;-0.176422119140625;1.19999999697029;121;100 mA
27.2628919311678;-0.699432373046875;-0.17498779296875;1.20999999694504;122;100 mA
27.2728919311426;-0.6995849609375;-0.17645263671875;1.2199999969198;123;100 mA
27.2828919311173;-0.699432373046875;-0.175018310546875;1.22999999689455;124;100 mA
27.2928919310921;-0.69952392578125;-0.174468994140625;1.2399999968693;125;100 mA
27.3028919310668;-0.69952392578125;-0.1744384765625;1.24999999684405;126;100 mA
27.3128919310416;-0.699554443359375;-0.17364501953125;1.25999999681881;127;100 mA
27.3228919310163;-0.69952392578125;-0.176513671875;1.26999999679356;128;100 mA
27.3328919309911;-0.699554443359375;-0.174163818359375;1.27999999676831;129;100 mA
27.3428919309658;-0.699432373046875;-0.17633056640625;1.28999999674306;130;100 mA
27.3528919309406;-0.699493408203125;-0.1739501953125;1.29999999671782;131;100 mA
27.3628919309153;-0.699554443359375;-0.175323486328125;1.30999999669257;132;100 mA
27.3728919308901;-0.69952392578125;-0.17242431640625;1.31999999666732;133;100 mA
27.3828919308648;-0.69952392578125;-0.17352294921875;1.32999999664207;134;100 mA
27.3928919308396;-0.699432373046875;-0.17193603515625;1.33999999661683;135;100 mA
27.4028919308143;-0.69952392578125;-0.171142578125;1.34999999659158;136;100 mA
27.4128919307891;-0.699554443359375;-0.17047119140625;1.35999999656633;137;100 mA
27.4228919307639;-0.699493408203125;-0.170257568359375;1.36999999654108;138;100 mA
27.4328919307386;-0.699462890625;-0.171478271484375;1.37999999651583;139;100 mA
27.4428919307134;-0.699615478515625;-0.1690673828125;1.38999999649059;140;100 mA
27.4528919306881;-0.699554443359375;-0.170684814453125;1.39999999646534;141;100 mA
27.4628919306629;-0.699554443359375;-0.168670654296875;1.40999999644009;142;100 mA
27.4728919306376;-0.699554443359375;-0.171905517578125;1.41999999641484;143;100 mA
27.4828919306124;-0.699493408203125;-0.171356201171875;1.4299999963896;144;100 mA
27.4928919305871;-0.699493408203125;-0.173614501953125;1.43999999636435;145;100 mA
27.5028919305619;-0.699462890625;-0.17047119140625;1.4499999963391;146;100 mA
27.5128919305366;-0.699554443359375;-0.172576904296875;1.45999999631385;147;100 mA
27.5228919305114;-0.699493408203125;-0.173095703125;1.46999999628861;148;100 mA
27.5328919304861;-0.69952392578125;-0.17437744140625;1.47999999626336;149;100 mA
27.5428919304609;-0.699462890625;-0.177581787109375;1.48999999623811;150;100 mA
27.5528919304356;-0.6995849609375;-0.175537109375;1.49999999621286;151;100 mA
27.5628919304104;-0.69952392578125;-0.17681884765625;1.50999999618762;152;100 mA
27.5728919303851;-0.699493408203125;-0.173797607421875;1.51999999616237;153;100 mA
27.5828919303599;-0.699462890625;-0.174896240234375;1.52999999613712;154;100 mA
27.5928919303346;-0.699554443359375;-0.17242431640625;1.53999999611187;155;100 mA
27.6028919303094;-0.69952392578125;-0.175384521484375;1.54999999608663;156;100 mA
27.6128919302841;-0.6995849609375;-0.172607421875;1.55999999606138;157;100 mA
27.6228919302589;-0.699615478515625;-0.173248291015625;1.56999999603613;158;100 mA
27.6328919302337;-0.699554443359375;-0.170257568359375;1.57999999601088;159;100 mA
27.6428919302084;-0.69952392578125;-0.172332763671875;1.58999999598564;160;100 mA
27.6528919301832;-0.699554443359375;-0.17401123046875;1.59999999596039;161;100 mA
27.6628919301579;-0.69952392578125;-0.173583984375;1.60999999593514;162;100 mA
27.6728919301327;-0.699493408203125;-0.175140380859375;1.61999999590989;163;100 mA
27.6828919301074;-0.699554443359375;-0.172332763671875;1.62999999588465;164;100 mA
27.6928919300822;-0.69952392578125;-0.17474365234375;1.6399999958594;165;100 mA
27.7028919300569;-0.699554443359375;-0.171966552734375;1.64999999583415;166;100 mA
27.7128919300317;-0.699493408203125;-0.174407958984375;1.6599999958089;167;100 mA
27.7228919300064;-0.69952392578125;-0.171051025390625;1.66999999578366;168;100 mA
27.7328919299812;-0.69952392578125;-0.172271728515625;1.67999999575841;169;100 mA
27.7428919299559;-0.699554443359375;-0.17010498046875;1.68999999573316;170;100 mA
27.7528919299307;-0.699554443359375;-0.170806884765625;1.69999999570791;171;100 mA
27.7628919299054;-0.699493408203125;-0.1708984375;1.70999999568267;172;100 mA
27.7728919298802;-0.69952392578125;-0.17315673828125;1.71999999565742;173;100 mA
27.7828919298549;-0.69952392578125;-0.1732177734375;1.72999999563217;174;100 mA
27.7928919298297;-0.699615478515625;-0.171417236328125;1.73999999560692;175;100 mA
27.8028919298044;-0.699554443359375;-0.171966552734375;1.74999999558167;176;100 mA
27.8128919297792;-0.69952392578125;-0.16900634765625;1.75999999555643;177;100 mA
27.822891929754;-0.69952392578125;-0.170257568359375;1.76999999553118;178;100 mA
27.8328919297287;-0.6995849609375;-0.1680908203125;1.77999999550593;179;100 mA
27.8428919297035;-0.69952392578125;-0.170440673828125;1.78999999548068;180;100 mA
27.8528919296782;-0.699615478515625;-0.16864013671875;1.79999999545544;181;100 mA
27.862891929653;-0.6995849609375;-0.17071533203125;1.80999999543019;182;100 mA
27.8728919296277;-0.699462890625;-0.171112060546875;1.81999999540494;183;100 mA
27.8828919296025;-0.699493408203125;-0.171905517578125;1.82999999537969;184;100 mA
27.8928919295772;-0.699554443359375;-0.1715087890625;1.83999999535445;185;100 mA
27.902891929552;-0.69952392578125;-0.17083740234375;1.8499999953292;186;100 mA
27.9128919295267;-0.699462890625;-0.171722412109375;1.85999999530395;187;100 mA
27.9228919295015;-0.6995849609375;-0.169921875;1.8699999952787;188;100 mA
27.9328919294762;-0.699554443359375;-0.1695556640625;1.87999999525346;189;100 mA
27.942891929451;-0.69952392578125;-0.1658935546875;1.88999999522821;190;100 mA
27.9528919294257;-0.699493408203125;-0.16729736328125;1.89999999520296;191;100 mA
27.9628919294005;-0.69952392578125;-0.16546630859375;1.90999999517771;192;100 mA
27.9728919293752;-0.699554443359375;-0.1680908203125;1.91999999515247;193;100 mA
27.98289192935;-0.69952392578125;-0.1695556640625;1.92999999512722;194;100 mA
27.9928919293247;-0.6995849609375;-0.170654296875;1.93999999510197;195;100 mA
28.0028919292995;-0.6995849609375;-0.16949462890625;1.94999999507672;196;100 mA
28.0128919292742;-0.699554443359375;-0.169281005859375;1.95999999505148;197;100 mA
28.022891929249;-0.699462890625;-0.169586181640625;1.96999999502623;198;100 mA
28.0328919292238;-0.699615478515625;-0.1688232421875;1.97999999500098;199;100 mA
28.0428919291985;-0.69952392578125;-0.171661376953125;1.98999999497573;200;100 mA
28.0528919291733;-0.699554443359375;-0.170684814453125;1.99999999495049;201;100 mA
28.062891929148;-0.69952392578125;-0.172149658203125;2.00999999492524;202;100 mA
28.0728919291228;-0.699462890625;-0.168914794921875;2.01999999489999;203;100 mA
28.0828919290975;-0.6995849609375;-0.171417236328125;2.02999999487474;204;100 mA
28.0928919290723;-0.6995849609375;-0.1693115234375;2.0399999948495;205;100 mA
28.102891929047;-0.6995849609375;-0.170806884765625;2.04999999482425;206;100 mA
28.1128919290218;-0.6995849609375;-0.170989990234375;2.059999994799;207;100 mA
28.1228919289965;-0.699493408203125;-0.170501708984375;2.06999999477375;208;100 mA
28.1328919289713;-0.69952392578125;-0.16998291015625;2.0799999947485;209;100 mA
28.142891928946;-0.699554443359375;-0.169525146484375;2.08999999472326;210;100 mA
28.1528919289208;-0.699462890625;-0.17181396484375;2.09999999469801;211;100 mA
28.1628919288955;-0.699554443359375;-0.170562744140625;2.10999999467276;212;100 mA
28.1728919288703;-0.69952392578125;-0.17059326171875;2.11999999464751;213;100 mA
28.182891928845;-0.699554443359375;-0.168212890625;2.12999999462227;214;100 mA
28.1928919288198;-0.69952392578125;-0.169677734375;2.13999999459702;215;100 mA
28.2028919287945;-0.69952392578125;-0.166351318359375;2.14999999457177;216;100 mA
28.2128919287693;-0.699554443359375;-0.168365478515625;2.15999999454652;217;100 mA
28.222891928744;-0.69952392578125;-0.168304443359375;2.16999999452128;218;100 mA
28.2328919287188;-0.6995849609375;-0.17132568359375;2.17999999449603;219;100 mA
28.2428919286936;-0.699493408203125;-0.170623779296875;2.18999999447078;220;100 mA
28.2528919286683;-0.699493408203125;-0.1693115234375;2.19999999444553;221;100 mA
28.2628919286431;-0.699493408203125;-0.171051025390625;2.20999999442029;222;100 mA
28.2728919286178;-0.6995849609375;-0.16888427734375;2.21999999439504;223;100 mA
28.2828919285926;-0.699554443359375;-0.169708251953125;2.22999999436979;224;100 mA
28.2928919285673;-0.699554443359375;-0.16644287109375;2.23999999434454;225;100 mA
28.3028919285421;-0.699462890625;-0.168731689453125;2.2499999943193;226;100 mA
28.3128919285168;-0.699493408203125;-0.167205810546875;2.25999999429405;227;100 mA
28.3228919284916;-0.69952392578125;-0.168304443359375;2.2699999942688;228;100 mA
28.3328919284663;-0.6995849609375;-0.1654052734375;2.27999999424355;229;100 mA
28.3428919284411;-0.699554443359375;-0.165496826171875;2.28999999421831;230;100 mA
28.3528919284158;-0.699493408203125;-0.16400146484375;2.29999999419306;231;100 mA
28.3628919283906;-0.699554443359375;-0.16455078125;2.30999999416781;232;100 mA
28.3728919283653;-0.6995849609375;-0.16357421875;2.31999999414256;233;100 mA
28.3828919283401;-0.6995849609375;-0.162841796875;2.32999999411732;234;100 mA
28.3928919283148;-0.699493408203125;-0.1640625;2.33999999409207;235;100 mA
28.4028919282896;-0.699554443359375;-0.163177490234375;2.34999999406682;236;100 mA
28.4128919282643;-0.699493408203125;-0.165863037109375;2.35999999404157;237;100 mA
28.4228919282391;-0.69952392578125;-0.163421630859375;2.36999999401633;238;100 mA
28.4328919282138;-0.699554443359375;-0.1641845703125;2.37999999399108;239;100 mA
28.4428919281886;-0.699554443359375;-0.162139892578125;2.38999999396583;240;100 mA
28.4528919281634;-0.699554443359375;-0.1634521484375;2.39999999394058;241;100 mA
28.4628919281381;-0.699554443359375;-0.162200927734375;2.40999999391533;242;100 mA
28.4728919281129;-0.699676513671875;-0.163238525390625;2.41999999389009;243;100 mA
28.4828919280876;-0.69952392578125;-0.16265869140625;2.42999999386484;244;100 mA
28.4928919280624;-0.6995849609375;-0.1629638671875;2.43999999383959;245;100 mA
28.5028919280371;-0.699554443359375;-0.163360595703125;2.44999999381434;246;100 mA
28.5128919280119;-0.699676513671875;-0.16302490234375;2.4599999937891;247;100 mA
28.5228919279866;-0.69952392578125;-0.165252685546875;2.46999999376385;248;100 mA
28.5328919279614;-0.69952392578125;-0.164703369140625;2.4799999937386;249;100 mA
28.5428919279361;-0.69952392578125;-0.166839599609375;2.48999999371335;250;100 mA
28.5528919279109;-0.69952392578125;-0.164886474609375;2.49999999368811;251;100 mA
28.5628919278856;-0.6995849609375;-0.167388916015625;2.50999999366286;252;100 mA
28.5728919278604;-0.699554443359375;-0.16497802734375;2.51999999363761;253;100 mA
28.5828919278351;-0.699554443359375;-0.16705322265625;2.52999999361236;254;100 mA
28.5928919278099;-0.6995849609375;-0.16656494140625;2.53999999358712;255;100 mA
28.6028919277846;-0.6995849609375;-0.166473388671875;2.54999999356187;256;100 mA
28.6128919277594;-0.69964599609375;-0.167694091796875;2.55999999353662;257;100 mA
28.6228919277341;-0.6995849609375;-0.166534423828125;2.56999999351137;258;100 mA
28.6328919277089;-0.69952392578125;-0.168792724609375;2.57999999348613;259;100 mA
28.6428919276836;-0.6995849609375;-0.167022705078125;2.58999999346088;260;100 mA
28.6528919276584;-0.699493408203125;-0.17022705078125;2.59999999343563;261;100 mA
28.6628919276332;-0.6995849609375;-0.16729736328125;2.60999999341038;262;100 mA
28.6728919276079;-0.6995849609375;-0.169219970703125;2.61999999338514;263;100 mA
28.6828919275827;-0.69952392578125;-0.166168212890625;2.62999999335989;264;100 mA
28.6928919275574;-0.699554443359375;-0.167449951171875;2.63999999333464;265;100 mA
28.7028919275322;-0.69952392578125;-0.167236328125;2.64999999330939;266;100 mA
28.7128919275069;-0.69964599609375;-0.1666259765625;2.65999999328415;267;100 mA
28.7228919274817;-0.69952392578125;-0.1663818359375;2.6699999932589;268;100 mA
28.7328919274564;-0.69952392578125;-0.165740966796875;2.67999999323365;269;100 mA
28.7428919274312;-0.69952392578125;-0.166351318359375;2.6899999932084;270;100 mA
28.7528919274059;-0.6995849609375;-0.165191650390625;2.69999999318316;271;100 mA
28.7628919273807;-0.699493408203125;-0.167449951171875;2.70999999315791;272;100 mA
28.7728919273554;-0.699554443359375;-0.165924072265625;2.71999999313266;273;100 mA
28.7828919273302;-0.699554443359375;-0.16790771484375;2.72999999310741;274;100 mA
28.7928919273049;-0.699554443359375;-0.166473388671875;2.73999999308217;275;100 mA
28.8028919272797;-0.69952392578125;-0.169464111328125;2.74999999305692;276;100 mA
28.8128919272544;-0.6995849609375;-0.166412353515625;2.75999999303167;277;100 mA
28.8228919272292;-0.69952392578125;-0.166900634765625;2.76999999300642;278;100 mA
28.8328919272039;-0.699493408203125;-0.166351318359375;2.77999999298117;279;100 mA
28.8428919271787;-0.69952392578125;-0.1658935546875;2.78999999295593;280;100 mA
28.8528919271535;-0.699554443359375;-0.16448974609375;2.79999999293068;281;100 mA
28.8628919271282;-0.699554443359375;-0.16357421875;2.80999999290543;282;100 mA
28.872891927103;-0.69940185546875;-0.1650390625;2.81999999288018;283;100 mA
28.8828919270777;-0.699493408203125;-0.1644287109375;2.82999999285494;284;100 mA
28.8928919270525;-0.699554443359375;-0.1658935546875;2.83999999282969;285;100 mA
28.9028919270272;-0.6995849609375;-0.1640625;2.84999999280444;286;100 mA
28.912891927002;-0.6995849609375;-0.16534423828125;2.85999999277919;287;100 mA
28.9228919269767;-0.69952392578125;-0.16375732421875;2.86999999275395;288;100 mA
28.9328919269515;-0.699493408203125;-0.1641845703125;2.8799999927287;289;100 mA
28.9428919269262;-0.699554443359375;-0.164581298828125;2.88999999270345;290;100 mA
28.952891926901;-0.6995849609375;-0.16552734375;2.8999999926782;291;100 mA
28.9628919268757;-0.69952392578125;-0.16387939453125;2.90999999265296;292;100 mA
28.9728919268505;-0.69952392578125;-0.16265869140625;2.91999999262771;293;100 mA
28.9828919268252;-0.699554443359375;-0.16412353515625;2.92999999260246;294;100 mA
28.9928919268;-0.6995849609375;-0.163848876953125;2.93999999257721;295;100 mA
29.0028919267747;-0.699462890625;-0.164520263671875;2.94999999255197;296;100 mA
29.0128919267495;-0.69952392578125;-0.16351318359375;2.95999999252672;297;100 mA
29.0228919267242;-0.6995849609375;-0.165863037109375;2.96999999250147;298;100 mA
29.032891926699;-0.69952392578125;-0.163421630859375;2.97999999247622;299;100 mA
29.0428919266737;-0.699493408203125;-0.164581298828125;2.98999999245098;300;100 mA
29.0528919266485;-0.699554443359375;-0.163818359375;2.99999999242573;301;100 mA
29.0628919266233;-0.699554443359375;-0.16400146484375;3.00999999240048;302;100 mA
29.072891926598;-0.6995849609375;-0.163665771484375;3.01999999237523;303;100 mA
29.0828919265728;-0.6995849609375;-0.163970947265625;3.02999999234999;304;100 mA
29.0928919265475;-0.6995849609375;-0.164093017578125;3.03999999232474;305;100 mA
29.1028919265223;-0.699493408203125;-0.163116455078125;3.04999999229949;306;100 mA
29.112891926497;-0.699432373046875;-0.1650390625;3.05999999227424;307;100 mA
29.1228919264718;-0.69952392578125;-0.16473388671875;3.069999992249;308;100 mA
29.1328919264465;-0.699554443359375;-0.166290283203125;3.07999999222375;309;100 mA
29.1428919264213;-0.6995849609375;-0.162872314453125;3.0899999921985;310;100 mA
29.152891926396;-0.6995849609375;-0.163543701171875;3.09999999217325;311;100 mA
29.1628919263708;-0.6995849609375;-0.1619873046875;3.109999992148;312;100 mA
29.1728919263455;-0.69952392578125;-0.163604736328125;3.11999999212276;313;100 mA
29.1828919263203;-0.6995849609375;-0.16253662109375;3.12999999209751;314;100 mA
29.192891926295;-0.699493408203125;-0.162109375;3.13999999207226;315;100 mA
29.2028919262698;-0.699493408203125;-0.16107177734375;3.14999999204701;316;100 mA
29.2128919262445;-0.6995849609375;-0.161041259765625;3.15999999202177;317;100 mA
29.2228919262193;-0.6995849609375;-0.16033935546875;3.16999999199652;318;100 mA
29.232891926194;-0.699493408203125;-0.15972900390625;3.17999999197127;319;100 mA
29.2428919261688;-0.6995849609375;-0.16046142578125;3.18999999194602;320;100 mA
29.2528919261435;-0.699554443359375;-0.15863037109375;3.19999999192078;321;100 mA
29.2628919261183;-0.6995849609375;-0.16064453125;3.20999999189553;322;100 mA
29.2728919260931;-0.699554443359375;-0.160003662109375;3.21999999187028;323;100 mA
29.2828919260678;-0.69952392578125;-0.162200927734375;3.22999999184503;324;100 mA
29.2928919260426;-0.6995849609375;-0.1614990234375;3.23999999181979;325;100 mA
29.3028919260173;-0.699554443359375;-0.16229248046875;3.24999999179454;326;100 mA
29.3128919259921;-0.69952392578125;-0.161163330078125;3.25999999176929;327;100 mA
29.3228919259668;-0.699554443359375;-0.1610107421875;3.26999999174404;328;100 mA
29.3328919259416;-0.699554443359375;-0.160797119140625;3.2799999917188;329;100 mA
29.3428919259163;-0.699554443359375;-0.16107177734375;3.28999999169355;330;100 mA
29.3528919258911;-0.699432373046875;-0.162017822265625;3.2999999916683;331;100 mA
29.3628919258658;-0.699615478515625;-0.159912109375;3.30999999164305;332;100 mA
29.3728919258406;-0.699554443359375;-0.160491943359375;3.31999999161781;333;100 mA
29.3828919258153;-0.6995849609375;-0.15869140625;3.32999999159256;334;100 mA
29.3928919257901;-0.6995849609375;-0.160247802734375;3.33999999156731;335;100 mA
29.4028919257648;-0.6995849609375;-0.158966064453125;3.34999999154206;336;100 mA
29.4128919257396;-0.699493408203125;-0.160430908203125;3.35999999151682;337;100 mA
29.4228919257143;-0.699554443359375;-0.158599853515625;3.36999999149157;338;100 mA
29.4328919256891;-0.699615478515625;-0.159515380859375;3.37999999146632;339;100 mA
29.4428919256638;-0.69952392578125;-0.159576416015625;3.38999999144107;340;100 mA
29.4528919256386;-0.699554443359375;-0.1597900390625;3.39999999141583;341;100 mA
29.4628919256133;-0.69952392578125;-0.16168212890625;3.40999999139058;342;100 mA
29.4728919255881;-0.699554443359375;-0.161407470703125;3.41999999136533;343;100 mA
29.4828919255629;-0.699493408203125;-0.162872314453125;3.42999999134008;344;100 mA
29.4928919255376;-0.699554443359375;-0.160980224609375;3.43999999131483;345;100 mA
29.5028919255124;-0.699493408203125;-0.1627197265625;3.44999999128959;346;100 mA
29.5128919254871;-0.69952392578125;-0.161407470703125;3.45999999126434;347;100 mA
29.5228919254619;-0.699554443359375;-0.162994384765625;3.46999999123909;348;100 mA
29.5328919254366;-0.6995849609375;-0.160919189453125;3.47999999121384;349;100 mA
29.5428919254114;-0.6995849609375;-0.161895751953125;3.4899999911886;350;100 mA
29.5528919253861;-0.699493408203125;-0.16143798828125;3.49999999116335;351;100 mA
29.5628919253609;-0.6995849609375;-0.16058349609375;3.5099999911381;352;100 mA
29.5728919253356;-0.69952392578125;-0.16119384765625;3.51999999111285;353;100 mA
29.5828919253104;-0.699554443359375;-0.16094970703125;3.52999999108761;354;100 mA
29.5928919252851;-0.699554443359375;-0.162689208984375;3.53999999106236;355;100 mA
29.6028919252599;-0.6995849609375;-0.16082763671875;3.54999999103711;356;100 mA
29.6128919252346;-0.699493408203125;-0.162506103515625;3.55999999101186;357;100 mA
29.6228919252094;-0.699554443359375;-0.160491943359375;3.56999999098662;358;100 mA
29.6328919251841;-0.699493408203125;-0.162628173828125;3.57999999096137;359;100 mA
29.6428919251589;-0.699554443359375;-0.16070556640625;3.58999999093612;360;100 mA
29.6528919251336;-0.699554443359375;-0.16094970703125;3.59999999091087;361;100 mA
29.6628919251084;-0.6995849609375;-0.159454345703125;3.60999999088563;362;100 mA
29.6728919250831;-0.6995849609375;-0.159942626953125;3.61999999086038;363;100 mA
29.6828919250579;-0.6995849609375;-0.158660888671875;3.62999999083513;364;100 mA
29.6928919250327;-0.69952392578125;-0.159698486328125;3.63999999080988;365;100 mA
29.7028919250074;-0.699462890625;-0.161590576171875;3.64999999078464;366;100 mA
29.7128919249822;-0.699554443359375;-0.160003662109375;3.65999999075939;367;100 mA
29.7228919249569;-0.699554443359375;-0.161163330078125;3.66999999073414;368;100 mA
29.7328919249317;-0.6995849609375;-0.15997314453125;3.67999999070889;369;100 mA
29.7428919249064;-0.6995849609375;-0.161346435546875;3.68999999068365;370;100 mA
29.7528919248812;-0.699493408203125;-0.158935546875;3.6999999906584;371;100 mA
29.7628919248559;-0.699615478515625;-0.16021728515625;3.70999999063315;372;100 mA
29.7728919248307;-0.699615478515625;-0.15863037109375;3.7199999906079;373;100 mA
29.7828919248054;-0.6995849609375;-0.1585693359375;3.72999999058266;374;100 mA
29.7928919247802;-0.699554443359375;-0.15814208984375;3.73999999055741;375;100 mA
29.8028919247549;-0.699554443359375;-0.159027099609375;3.74999999053216;376;100 mA
29.8128919247297;-0.69952392578125;-0.15948486328125;3.75999999050691;377;100 mA
29.8228919247044;-0.69952392578125;-0.15924072265625;3.76999999048167;378;100 mA
29.8328919246792;-0.6995849609375;-0.160980224609375;3.77999999045642;379;100 mA
29.8428919246539;-0.699554443359375;-0.159210205078125;3.78999999043117;380;100 mA
29.8528919246287;-0.69952392578125;-0.16058349609375;3.79999999040592;381;100 mA
29.8628919246034;-0.699554443359375;-0.158721923828125;3.80999999038067;382;100 mA
29.8728919245782;-0.699462890625;-0.16192626953125;3.81999999035543;383;100 mA
29.882891924553;-0.699554443359375;-0.158905029296875;3.82999999033018;384;100 mA
29.8928919245277;-0.699554443359375;-0.1593017578125;3.83999999030493;385;100 mA
29.9028919245025;-0.699615478515625;-0.159454345703125;3.84999999027968;386;100 mA
29.9128919244772;-0.69952392578125;-0.160858154296875;3.85999999025444;387;100 mA
29.922891924452;-0.69952392578125;-0.160888671875;3.86999999022919;388;100 mA
29.9328919244267;-0.699554443359375;-0.160125732421875;3.87999999020394;389;100 mA
29.9428919244015;-0.699554443359375;-0.160003662109375;3.88999999017869;390;100 mA
29.9528919243762;-0.699554443359375;-0.1591796875;3.89999999015345;391;100 mA
29.962891924351;-0.699554443359375;-0.16168212890625;3.9099999901282;392;100 mA
29.9728919243257;-0.69952392578125;-0.16094970703125;3.91999999010295;393;100 mA
29.9828919243005;-0.699554443359375;-0.1632080078125;3.9299999900777;394;100 mA
29.9928919242752;-0.699554443359375;-0.162628173828125;3.93999999005246;395;100 mA
30.00289192425;-0.699615478515625;-0.163299560546875;3.94999999002721;396;100 mA
30.0128919242247;-0.69952392578125;-0.16162109375;3.95999999000196;397;100 mA
30.0228919241995;-0.69952392578125;-0.162445068359375;3.96999998997671;398;100 mA
30.0328919241742;-0.699554443359375;-0.161651611328125;3.97999998995147;399;100 mA
30.042891924149;-0.69952392578125;-0.1614990234375;3.98999998992622;400;100 mA
30.0528919241237;-0.6995849609375;-0.1612548828125;3.99999998990097;401;100 mA
30.0628919240985;-0.699554443359375;-0.160552978515625;4.00999998987572;402;100 mA
30.0728919240732;-0.6995849609375;-0.162506103515625;4.01999998985048;403;100 mA
30.082891924048;-0.699554443359375;-0.160430908203125;4.02999998982523;404;100 mA
30.0928919240228;-0.699554443359375;-0.160858154296875;4.03999998979998;405;100 mA
30.1028919239975;-0.699554443359375;-0.15826416015625;4.04999998977473;406;100 mA
30.1128919239723;-0.69952392578125;-0.158721923828125;4.05999998974949;407;100 mA
30.122891923947;-0.6995849609375;-0.15704345703125;4.06999998972424;408;100 mA
30.1328919239218;-0.69952392578125;-0.157958984375;4.07999998969899;409;100 mA
30.1428919238965;-0.699493408203125;-0.157257080078125;4.08999998967374;410;100 mA
30.1528919238713;-0.6995849609375;-0.158050537109375;4.0999999896485;411;100 mA
30.162891923846;-0.69952392578125;-0.158416748046875;4.10999998962325;412;100 mA
30.1728919238208;-0.699554443359375;-0.15960693359375;4.119999989598;413;100 mA
30.1828919237955;-0.699554443359375;-0.160491943359375;4.12999998957275;414;100 mA
30.1928919237703;-0.6995849609375;-0.159576416015625;4.1399999895475;415;100 mA
30.202891923745;-0.699493408203125;-0.16168212890625;4.14999998952226;416;100 mA
30.2128919237198;-0.699554443359375;-0.1597900390625;4.15999998949701;417;100 mA
30.2228919236945;-0.699554443359375;-0.16015625;4.16999998947176;418;100 mA
30.2328919236693;-0.69964599609375;-0.158416748046875;4.17999998944651;419;100 mA
30.242891923644;-0.6995849609375;-0.160491943359375;4.18999998942127;420;100 mA
30.2528919236188;-0.69952392578125;-0.159637451171875;4.19999998939602;421;100 mA
30.2628919235935;-0.699615478515625;-0.160064697265625;4.20999998937077;422;100 mA
30.2728919235683;-0.69952392578125;-0.158294677734375;4.21999998934552;423;100 mA
30.282891923543;-0.699615478515625;-0.158660888671875;4.22999998932028;424;100 mA
30.2928919235178;-0.699554443359375;-0.15869140625;4.23999998929503;425;100 mA
30.3028919234926;-0.69952392578125;-0.157989501953125;4.24999998926978;426;100 mA
30.3128919234673;-0.6995849609375;-0.158660888671875;4.25999998924453;427;100 mA
30.3228919234421;-0.6995849609375;-0.157012939453125;4.26999998921929;428;100 mA
30.3328919234168;-0.699554443359375;-0.15814208984375;4.27999998919404;429;100 mA
30.3428919233916;-0.6995849609375;-0.15679931640625;4.28999998916879;430;100 mA
30.3528919233663;-0.699615478515625;-0.158477783203125;4.29999998914354;431;100 mA
30.3628919233411;-0.6995849609375;-0.15777587890625;4.3099999891183;432;100 mA
30.3728919233158;-0.699462890625;-0.158782958984375;4.31999998909305;433;100 mA
30.3828919232906;-0.699493408203125;-0.156768798828125;4.3299999890678;434;100 mA
30.3928919232653;-0.6995849609375;-0.157135009765625;4.33999998904255;435;100 mA
30.4028919232401;-0.699493408203125;-0.1580810546875;4.34999998901731;436;100 mA
30.4128919232148;-0.699554443359375;-0.157989501953125;4.35999998899206;437;100 mA
30.4228919231896;-0.699554443359375;-0.158111572265625;4.36999998896681;438;100 mA
30.4328919231643;-0.6995849609375;-0.15576171875;4.37999998894156;439;100 mA
30.4428919231391;-0.699554443359375;-0.15521240234375;4.38999998891632;440;100 mA
30.4528919231138;-0.69952392578125;-0.15325927734375;4.39999998889107;441;100 mA
30.4628919230886;-0.69952392578125;-0.155029296875;4.40999998886582;442;100 mA
30.4728919230633;-0.6995849609375;-0.154144287109375;4.41999998884057;443;100 mA
30.4828919230381;-0.6995849609375;-0.15655517578125;4.42999998881533;444;100 mA
30.4928919230128;-0.699554443359375;-0.1549072265625;4.43999998879008;445;100 mA
30.5028919229876;-0.699554443359375;-0.155120849609375;4.44999998876483;446;100 mA
30.5128919229624;-0.699554443359375;-0.154144287109375;4.45999998873958;447;100 mA
30.5228919229371;-0.699615478515625;-0.154693603515625;4.46999998871433;448;100 mA
30.5328919229119;-0.699554443359375;-0.15496826171875;4.47999998868909;449;100 mA
30.5428919228866;-0.699554443359375;-0.154327392578125;4.48999998866384;450;100 mA
30.5528919228614;-0.69964599609375;-0.1549072265625;4.49999998863859;451;100 mA
30.5628919228361;-0.699554443359375;-0.153533935546875;4.50999998861334;452;100 mA
30.5728919228109;-0.69952392578125;-0.155181884765625;4.5199999885881;453;100 mA
30.5828919227856;-0.699554443359375;-0.154541015625;4.52999998856285;454;100 mA
30.5928919227604;-0.699615478515625;-0.156005859375;4.5399999885376;455;100 mA
30.6028919227351;-0.699554443359375;-0.1552734375;4.54999998851235;456;100 mA
30.6128919227099;-0.699462890625;-0.15557861328125;4.55999998848711;457;100 mA
30.6228919226846;-0.69952392578125;-0.154541015625;4.56999998846186;458;100 mA
30.6328919226594;-0.6995849609375;-0.155242919921875;4.57999998843661;459;100 mA
30.6428919226341;-0.699554443359375;-0.1558837890625;4.58999998841136;460;100 mA
30.6528919226089;-0.699554443359375;-0.156097412109375;4.59999998838612;461;100 mA
30.6628919225836;-0.6995849609375;-0.15484619140625;4.60999998836087;462;100 mA
30.6728919225584;-0.6995849609375;-0.153045654296875;4.61999998833562;463;100 mA
30.6828919225331;-0.69952392578125;-0.154632568359375;4.62999998831037;464;100 mA
30.6928919225079;-0.699554443359375;-0.15338134765625;4.63999998828513;465;100 mA
30.7028919224826;-0.6995849609375;-0.154754638671875;4.64999998825988;466;100 mA
30.7128919224574;-0.69964599609375;-0.153533935546875;4.65999998823463;467;100 mA
30.7228919224322;-0.6995849609375;-0.15533447265625;4.66999998820938;468;100 mA
30.7328919224069;-0.6995849609375;-0.153900146484375;4.67999998818414;469;100 mA
30.7428919223817;-0.699554443359375;-0.1541748046875;4.68999998815889;470;100 mA
30.7528919223564;-0.699554443359375;-0.153289794921875;4.69999998813364;471;100 mA
30.7628919223312;-0.699554443359375;-0.15460205078125;4.70999998810839;472;100 mA
30.7728919223059;-0.699554443359375;-0.155517578125;4.71999998808315;473;100 mA
30.7828919222807;-0.6995849609375;-0.155487060546875;4.7299999880579;474;100 mA
30.7928919222554;-0.69952392578125;-0.156951904296875;4.73999998803265;475;100 mA
30.8028919222302;-0.699554443359375;-0.155853271484375;4.7499999880074;476;100 mA
30.8128919222049;-0.6995849609375;-0.15765380859375;4.75999998798216;477;100 mA
30.8228919221797;-0.6995849609375;-0.156097412109375;4.76999998795691;478;100 mA
30.8328919221544;-0.699554443359375;-0.157684326171875;4.77999998793166;479;100 mA
30.8428919221292;-0.6995849609375;-0.15582275390625;4.78999998790641;480;100 mA
30.8528919221039;-0.69952392578125;-0.15643310546875;4.79999998788116;481;100 mA
30.8628919220787;-0.69952392578125;-0.15533447265625;4.80999998785592;482;100 mA
30.8728919220534;-0.69952392578125;-0.157135009765625;4.81999998783067;483;100 mA
30.8828919220282;-0.69952392578125;-0.1578369140625;4.82999998780542;484;100 mA
30.8928919220029;-0.699554443359375;-0.157745361328125;4.83999998778017;485;100 mA
30.9028919219777;-0.699554443359375;-0.157257080078125;4.84999998775493;486;100 mA
30.9128919219525;-0.699554443359375;-0.1563720703125;4.85999998772968;487;100 mA
30.9228919219272;-0.69952392578125;-0.157806396484375;4.86999998770443;488;100 mA
30.932891921902;-0.6995849609375;-0.1563720703125;4.87999998767918;489;100 mA
30.9428919218767;-0.699615478515625;-0.15740966796875;4.88999998765394;490;100 mA
30.9528919218515;-0.699554443359375;-0.15472412109375;4.89999998762869;491;100 mA
30.9628919218262;-0.69952392578125;-0.155120849609375;4.90999998760344;492;100 mA
30.972891921801;-0.69952392578125;-0.15460205078125;4.91999998757819;493;100 mA
30.9828919217757;-0.699554443359375;-0.1552734375;4.92999998755295;494;100 mA
30.9928919217505;-0.69952392578125;-0.154937744140625;4.9399999875277;495;100 mA
31.0028919217252;-0.6995849609375;-0.15521240234375;4.94999998750245;496;100 mA
31.0128919217;-0.69952392578125;-0.15557861328125;4.9599999874772;497;100 mA
31.0228919216747;-0.699554443359375;-0.15478515625;4.96999998745196;498;100 mA
31.0328919216495;-0.6995849609375;-0.156463623046875;4.97999998742671;499;100 mA
31.0428919216242;-0.6995849609375;-0.155609130859375;4.98999998740146;500;100 mA
31.052891921599;-0.699554443359375;-0.157379150390625;4.99999998737621;501;100 mA
31.0628919215737;-0.6995849609375;-0.1561279296875;5.00999998735097;502;100 mA
31.0728919215485;-0.6995849609375;-0.1571044921875;5.01999998732572;503;100 mA
31.0828919215232;-0.6995849609375;-0.155548095703125;5.02999998730047;504;100 mA
31.092891921498;-0.699554443359375;-0.157073974609375;5.03999998727522;505;100 mA
31.1028919214727;-0.69952392578125;-0.155975341796875;5.04999998724998;506;100 mA
31.1128919214475;-0.6995849609375;-0.157623291015625;5.05999998722473;507;100 mA
31.1228919214223;-0.699615478515625;-0.158172607421875;5.06999998719948;508;100 mA
31.132891921397;-0.699554443359375;-0.157958984375;5.07999998717423;509;100 mA
31.1428919213718;-0.699615478515625;-0.158660888671875;5.08999998714899;510;100 mA
31.1528919213465;-0.69952392578125;-0.156341552734375;5.09999998712374;511;100 mA
31.1628919213213;-0.6995849609375;-0.15740966796875;5.10999998709849;512;100 mA
31.172891921296;-0.699554443359375;-0.155914306640625;5.11999998707324;513;100 mA
31.1828919212708;-0.699615478515625;-0.15728759765625;5.129999987048;514;100 mA
31.1928919212455;-0.699554443359375;-0.15594482421875;5.13999998702275;515;100 mA
31.2028919212203;-0.6995849609375;-0.157806396484375;5.1499999869975;516;100 mA
31.212891921195;-0.699554443359375;-0.15667724609375;5.15999998697225;517;100 mA
31.2228919211698;-0.699615478515625;-0.156768798828125;5.169999986947;518;100 mA
31.2328919211445;-0.699554443359375;-0.15570068359375;5.17999998692176;519;100 mA
31.2428919211193;-0.69952392578125;-0.15545654296875;5.18999998689651;520;100 mA
31.252891921094;-0.699554443359375;-0.156524658203125;5.19999998687126;521;100 mA
31.2628919210688;-0.699554443359375;-0.156036376953125;5.20999998684601;522;100 mA
31.2728919210435;-0.6995849609375;-0.156280517578125;5.21999998682077;523;100 mA
31.2828919210183;-0.699554443359375;-0.154876708984375;5.22999998679552;524;100 mA
31.292891920993;-0.699554443359375;-0.15594482421875;5.23999998677027;525;100 mA
31.3028919209678;-0.6995849609375;-0.154510498046875;5.24999998674502;526;100 mA
31.3128919209425;-0.69952392578125;-0.155975341796875;5.25999998671978;527;100 mA
31.3228919209173;-0.6995849609375;-0.154327392578125;5.26999998669453;528;100 mA
31.3328919208921;-0.69952392578125;-0.15484619140625;5.27999998666928;529;100 mA
31.3428919208668;-0.699554443359375;-0.153961181640625;5.28999998664403;530;100 mA
31.3528919208416;-0.699554443359375;-0.15447998046875;5.29999998661879;531;100 mA
31.3628919208163;-0.699554443359375;-0.155242919921875;5.30999998659354;532;100 mA
31.3728919207911;-0.69964599609375;-0.155364990234375;5.31999998656829;533;100 mA
31.3828919207658;-0.6995849609375;-0.15618896484375;5.32999998654304;534;100 mA
31.3928919207406;-0.6995849609375;-0.154937744140625;5.3399999865178;535;100 mA
31.4028919207153;-0.699554443359375;-0.15582275390625;5.34999998649255;536;100 mA
31.4128919206901;-0.699554443359375;-0.154571533203125;5.3599999864673;537;100 mA
31.4228919206648;-0.6995849609375;-0.155853271484375;5.36999998644205;538;100 mA
31.4328919206396;-0.699554443359375;-0.1544189453125;5.37999998641681;539;100 mA
31.4428919206143;-0.699615478515625;-0.1553955078125;5.38999998639156;540;100 mA
31.4528919205891;-0.6995849609375;-0.153594970703125;5.39999998636631;541;100 mA
31.4628919205638;-0.69964599609375;-0.153900146484375;5.40999998634106;542;100 mA
31.4728919205386;-0.69952392578125;-0.15374755859375;5.41999998631582;543;100 mA
31.4828919205133;-0.6995849609375;-0.154754638671875;5.42999998629057;544;100 mA
31.4928919204881;-0.6995849609375;-0.1551513671875;5.43999998626532;545;100 mA
31.5028919204628;-0.699554443359375;-0.15496826171875;5.44999998624007;546;100 mA
31.5128919204376;-0.6995849609375;-0.156585693359375;5.45999998621483;547;100 mA
31.5228919204123;-0.6995849609375;-0.155731201171875;5.46999998618958;548;100 mA
31.5328919203871;-0.6995849609375;-0.155792236328125;5.47999998616433;549;100 mA
31.5428919203619;-0.699554443359375;-0.153350830078125;5.48999998613908;550;100 mA
31.5528919203366;-0.699554443359375;-0.154876708984375;5.49999998611383;551;100 mA
31.5628919203114;-0.699615478515625;-0.153839111328125;5.50999998608859;552;100 mA
31.5728919202861;-0.6995849609375;-0.1546630859375;5.51999998606334;553;100 mA
31.5828919202609;-0.699554443359375;-0.1539306640625;5.52999998603809;554;100 mA
31.5928919202356;-0.699554443359375;-0.154693603515625;5.53999998601284;555;100 mA
31.6028919202104;-0.69952392578125;-0.155487060546875;5.5499999859876;556;100 mA
31.6128919201851;-0.6995849609375;-0.155670166015625;5.55999998596235;557;100 mA
31.6228919201599;-0.69952392578125;-0.15509033203125;5.5699999859371;558;100 mA
31.6328919201346;-0.69952392578125;-0.153900146484375;5.57999998591185;559;100 mA
31.6428919201094;-0.699615478515625;-0.154937744140625;5.58999998588661;560;100 mA
31.6528919200841;-0.699554443359375;-0.15338134765625;5.59999998586136;561;100 mA
31.6628919200589;-0.699554443359375;-0.154876708984375;5.60999998583611;562;100 mA
31.6728919200336;-0.6995849609375;-0.15386962890625;5.61999998581086;563;100 mA
31.6828919200084;-0.699676513671875;-0.155181884765625;5.62999998578562;564;100 mA
31.6928919199831;-0.699554443359375;-0.15484619140625;5.63999998576037;565;100 mA
31.7028919199579;-0.6995849609375;-0.15631103515625;5.64999998573512;566;100 mA
31.7128919199326;-0.699554443359375;-0.15557861328125;5.65999998570987;567;100 mA
31.7228919199074;-0.6995849609375;-0.156951904296875;5.66999998568463;568;100 mA
31.7328919198821;-0.69952392578125;-0.15814208984375;5.67999998565938;569;100 mA
31.7428919198569;-0.6995849609375;-0.156524658203125;5.68999998563413;570;100 mA
31.7528919198317;-0.6995849609375;-0.157440185546875;5.69999998560888;571;100 mA
31.7628919198064;-0.699615478515625;-0.155364990234375;5.70999998558364;572;100 mA
31.7728919197812;-0.699554443359375;-0.156005859375;5.71999998555839;573;100 mA
31.7828919197559;-0.699554443359375;-0.154052734375;5.72999998553314;574;100 mA
31.7928919197307;-0.699554443359375;-0.154937744140625;5.73999998550789;575;100 mA
31.8028919197054;-0.699615478515625;-0.152984619140625;5.74999998548265;576;100 mA
31.8128919196802;-0.699554443359375;-0.154876708984375;5.7599999854574;577;100 mA
31.8228919196549;-0.699554443359375;-0.154205322265625;5.76999998543215;578;100 mA
31.8328919196297;-0.699554443359375;-0.154449462890625;5.7799999854069;579;100 mA
31.8428919196044;-0.6995849609375;-0.15374755859375;5.78999998538166;580;100 mA
31.8528919195792;-0.699554443359375;-0.153778076171875;5.79999998535641;581;100 mA
31.8628919195539;-0.699554443359375;-0.154571533203125;5.80999998533116;582;100 mA
31.8728919195287;-0.6995849609375;-0.1539306640625;5.81999998530591;583;100 mA
31.8828919195034;-0.699554443359375;-0.15472412109375;5.82999998528066;584;100 mA
31.8928919194782;-0.69952392578125;-0.153167724609375;5.83999998525542;585;100 mA
31.9028919194529;-0.699554443359375;-0.153961181640625;5.84999998523017;586;100 mA
31.9128919194277;-0.699554443359375;-0.151947021484375;5.85999998520492;587;100 mA
31.9228919194024;-0.6995849609375;-0.15264892578125;5.86999998517967;588;100 mA
31.9328919193772;-0.6995849609375;-0.151214599609375;5.87999998515443;589;100 mA
31.942891919352;-0.6995849609375;-0.1513671875;5.88999998512918;590;100 mA
31.9528919193267;-0.699615478515625;-0.151031494140625;5.89999998510393;591;100 mA
31.9628919193015;-0.6995849609375;-0.150848388671875;5.90999998507868;592;100 mA
31.9728919192762;-0.699554443359375;-0.151123046875;5.91999998505344;593;100 mA
31.982891919251;-0.699554443359375;-0.15167236328125;5.92999998502819;594;100 mA
31.9928919192257;-0.699554443359375;-0.152557373046875;5.93999998500294;595;100 mA
32.0028919192005;-0.699554443359375;-0.151702880859375;5.94999998497769;596;100 mA
32.0128919191752;-0.699554443359375;-0.15325927734375;5.95999998495245;597;100 mA
32.02289191915;-0.699493408203125;-0.15234375;5.9699999849272;598;100 mA
32.0328919191247;-0.69952392578125;-0.153594970703125;5.97999998490195;599;100 mA
32.0428919190995;-0.69952392578125;-0.153045654296875;5.9899999848767;600;100 mA
32.0528919190742;-0.69952392578125;-0.15435791015625;5.99999998485146;601;100 mA
32.062891919049;-0.6995849609375;-0.15399169921875;6.00999998482621;602;100 mA
32.0728919190237;-0.69952392578125;-0.154693603515625;6.01999998480096;603;100 mA
32.0828919189985;-0.699554443359375;-0.1552734375;6.02999998477571;604;100 mA
32.0928919189732;-0.699615478515625;-0.154815673828125;6.03999998475047;605;100 mA
32.102891918948;-0.699554443359375;-0.1551513671875;6.04999998472522;606;100 mA
32.1128919189227;-0.699554443359375;-0.153167724609375;6.05999998469997;607;100 mA
32.1228919188975;-0.699615478515625;-0.15423583984375;6.06999998467472;608;100 mA
32.1328919188722;-0.699615478515625;-0.153076171875;6.07999998464948;609;100 mA
32.142891918847;-0.699554443359375;-0.15399169921875;6.08999998462423;610;100 mA
32.1528919188218;-0.699615478515625;-0.1527099609375;6.09999998459898;611;100 mA
32.1628919187965;-0.699554443359375;-0.1544189453125;6.10999998457373;612;100 mA
32.1728919187713;-0.69952392578125;-0.1531982421875;6.11999998454849;613;100 mA
32.182891918746;-0.699615478515625;-0.153564453125;6.12999998452324;614;100 mA
32.1928919187208;-0.699554443359375;-0.153228759765625;6.13999998449799;615;100 mA
32.2028919186955;-0.699554443359375;-0.15301513671875;6.14999998447274;616;100 mA
32.2128919186703;-0.699554443359375;-0.1533203125;6.1599999844475;617;100 mA
32.222891918645;-0.699554443359375;-0.152191162109375;6.16999998442225;618;100 mA
32.2328919186198;-0.699615478515625;-0.153106689453125;6.179999984397;619;100 mA
32.2428919185945;-0.6995849609375;-0.152069091796875;6.18999998437175;620;100 mA
32.2528919185693;-0.69952392578125;-0.153350830078125;6.1999999843465;621;100 mA
32.262891918544;-0.699615478515625;-0.151123046875;6.20999998432126;622;100 mA
32.2728919185188;-0.699554443359375;-0.1514892578125;6.21999998429601;623;100 mA
32.2828919184935;-0.699554443359375;-0.15008544921875;6.22999998427076;624;100 mA
32.2928919184683;-0.69952392578125;-0.152099609375;6.23999998424551;625;100 mA
32.302891918443;-0.69952392578125;-0.151031494140625;6.24999998422027;626;100 mA
32.3128919184178;-0.699554443359375;-0.15118408203125;6.25999998419502;627;100 mA
32.3228919183925;-0.699554443359375;-0.150482177734375;6.26999998416977;628;100 mA
32.3328919183673;-0.699554443359375;-0.15118408203125;6.27999998414452;629;100 mA
32.342891918342;-0.69952392578125;-0.152008056640625;6.28999998411928;630;100 mA
32.3528919183168;-0.699615478515625;-0.15167236328125;6.29999998409403;631;100 mA
32.3628919182916;-0.699554443359375;-0.1524658203125;6.30999998406878;632;100 mA
32.3728919182663;-0.69952392578125;-0.150726318359375;6.31999998404353;633;100 mA
32.3828919182411;-0.699554443359375;-0.152191162109375;6.32999998401829;634;100 mA
32.3928919182158;-0.699615478515625;-0.15081787109375;6.33999998399304;635;100 mA
32.4028919181906;-0.69952392578125;-0.15234375;6.34999998396779;636;100 mA
32.4128919181653;-0.6995849609375;-0.15087890625;6.35999998394254;637;100 mA
32.4228919181401;-0.699493408203125;-0.150909423828125;6.3699999839173;638;100 mA
32.4328919181148;-0.6995849609375;-0.15032958984375;6.37999998389205;639;100 mA
32.4428919180896;-0.699615478515625;-0.150115966796875;6.3899999838668;640;100 mA
32.4528919180643;-0.699554443359375;-0.149658203125;6.39999998384155;641;100 mA
32.4628919180391;-0.699554443359375;-0.14935302734375;6.40999998381631;642;100 mA
32.4728919180138;-0.69964599609375;-0.150238037109375;6.41999998379106;643;100 mA
32.4828919179886;-0.6995849609375;-0.14910888671875;6.42999998376581;644;100 mA
32.4928919179633;-0.699493408203125;-0.151153564453125;6.43999998374056;645;100 mA
32.5028919179381;-0.6995849609375;-0.150360107421875;6.44999998371532;646;100 mA
32.5128919179128;-0.6995849609375;-0.151763916015625;6.45999998369007;647;100 mA
32.5228919178876;-0.6995849609375;-0.150726318359375;6.46999998366482;648;100 mA
32.5328919178623;-0.699554443359375;-0.152130126953125;6.47999998363957;649;100 mA
32.5428919178371;-0.699493408203125;-0.1512451171875;6.48999998361433;650;100 mA
32.5528919178118;-0.699554443359375;-0.152191162109375;6.49999998358908;651;100 mA
32.5628919177866;-0.699554443359375;-0.152252197265625;6.50999998356383;652;100 mA
32.5728919177614;-0.699554443359375;-0.152618408203125;6.51999998353858;653;100 mA
32.5828919177361;-0.699493408203125;-0.153564453125;6.52999998351333;654;100 mA
32.5928919177109;-0.69964599609375;-0.152191162109375;6.53999998348809;655;100 mA
32.6028919176856;-0.699554443359375;-0.15252685546875;6.54999998346284;656;100 mA
32.6128919176604;-0.699554443359375;-0.1513671875;6.55999998343759;657;100 mA
32.6228919176351;-0.6995849609375;-0.1522216796875;6.56999998341234;658;100 mA
32.6328919176099;-0.6995849609375;-0.1510009765625;6.5799999833871;659;100 mA
32.6428919175846;-0.69952392578125;-0.1524658203125;6.58999998336185;660;100 mA
32.6528919175594;-0.69952392578125;-0.15216064453125;6.5999999833366;661;100 mA
32.6628919175341;-0.6995849609375;-0.15338134765625;6.60999998331135;662;100 mA
32.6728919175089;-0.6995849609375;-0.152374267578125;6.61999998328611;663;100 mA
32.6828919174836;-0.699554443359375;-0.152862548828125;6.62999998326086;664;100 mA
32.6928919174584;-0.699615478515625;-0.152984619140625;6.63999998323561;665;100 mA
32.7028919174331;-0.699554443359375;-0.152191162109375;6.64999998321036;666;100 mA
32.7128919174079;-0.699554443359375;-0.153106689453125;6.65999998318512;667;100 mA
32.7228919173826;-0.6995849609375;-0.152099609375;6.66999998315987;668;100 mA
32.7328919173574;-0.699554443359375;-0.15301513671875;6.67999998313462;669;100 mA
32.7428919173321;-0.6995849609375;-0.151519775390625;6.68999998310937;670;100 mA
32.7528919173069;-0.6995849609375;-0.152008056640625;6.69999998308413;671;100 mA
32.7628919172816;-0.6995849609375;-0.15045166015625;6.70999998305888;672;100 mA
32.7728919172564;-0.699554443359375;-0.15167236328125;6.71999998303363;673;100 mA
32.7828919172312;-0.699554443359375;-0.151092529296875;6.72999998300838;674;100 mA
32.7928919172059;-0.69964599609375;-0.151702880859375;6.73999998298314;675;100 mA
32.8028919171807;-0.699554443359375;-0.150848388671875;6.74999998295789;676;100 mA
32.8128919171554;-0.699554443359375;-0.15032958984375;6.75999998293264;677;100 mA
32.8228919171302;-0.699554443359375;-0.151336669921875;6.76999998290739;678;100 mA
32.8328919171049;-0.699493408203125;-0.150970458984375;6.77999998288215;679;100 mA
32.8428919170797;-0.6995849609375;-0.1524658203125;6.7899999828569;680;100 mA
32.8528919170544;-0.6995849609375;-0.151519775390625;6.79999998283165;681;100 mA
32.8628919170292;-0.699554443359375;-0.15216064453125;6.8099999828064;682;100 mA
32.8728919170039;-0.699554443359375;-0.150726318359375;6.81999998278116;683;100 mA
32.8828919169787;-0.699554443359375;-0.1519775390625;6.82999998275591;684;100 mA
32.8928919169534;-0.6995849609375;-0.1512451171875;6.83999998273066;685;100 mA
32.9028919169282;-0.699676513671875;-0.152252197265625;6.84999998270541;686;100 mA
32.9128919169029;-0.699554443359375;-0.152435302734375;6.85999998268016;687;100 mA
32.9228919168777;-0.699554443359375;-0.152374267578125;6.86999998265492;688;100 mA
32.9328919168524;-0.6995849609375;-0.15380859375;6.87999998262967;689;100 mA
32.9428919168272;-0.699554443359375;-0.15313720703125;6.88999998260442;690;100 mA
32.9528919168019;-0.6995849609375;-0.153778076171875;6.89999998257917;691;100 mA
32.9628919167767;-0.699615478515625;-0.152801513671875;6.90999998255393;692;100 mA
32.9728919167515;-0.6995849609375;-0.15338134765625;6.91999998252868;693;100 mA
32.9828919167262;-0.699554443359375;-0.151458740234375;6.92999998250343;694;100 mA
32.992891916701;-0.6995849609375;-0.15191650390625;6.93999998247818;695;100 mA
33.0028919166757;-0.69952392578125;-0.1505126953125;6.94999998245294;696;100 mA
33.0128919166505;-0.6995849609375;-0.151580810546875;6.95999998242769;697;100 mA
33.0228919166252;-0.699554443359375;-0.150970458984375;6.96999998240244;698;100 mA
33.0328919166;-0.6995849609375;-0.151763916015625;6.97999998237719;699;100 mA
33.0428919165747;-0.699554443359375;-0.151580810546875;6.98999998235195;700;100 mA
