Time (s);WE(1).Potential (V);WE(1).Current (A);Corrected time (s);Index;Current range
48.7351628769555;-0.8001708984375;-0.32525634765625;0;1;100 mA
48.7451628769303;-0.79986572265625;-0.250152587890625;0.00999999997475243;2;100 mA
48.755162876905;-0.79925537109375;-0.22430419921875;0.0199999999495049;3;100 mA
48.7651628768798;-0.79986572265625;-0.207763671875;0.0299999999242573;4;100 mA
48.7751628768546;-0.79925537109375;-0.202423095703125;0.0399999998990097;5;100 mA
48.7851628768293;-0.79986572265625;-0.19708251953125;0.0499999998737621;6;100 mA
48.7951628768041;-0.799560546875;-0.195556640625;0.0599999998485146;7;100 mA
48.8051628767788;-0.799560546875;-0.191192626953125;0.069999999823267;8;100 mA
48.8151628767536;-0.79986572265625;-0.19268798828125;0.0799999997980194;9;100 mA
48.8251628767283;-0.799560546875;-0.189697265625;0.0899999997727718;10;100 mA
48.8351628767031;-0.79986572265625;-0.1895751953125;0.0999999997475243;11;100 mA
48.8451628766778;-0.79925537109375;-0.18798828125;0.109999999722277;12;100 mA
48.8551628766526;-0.79925537109375;-0.1883544921875;0.119999999697029;13;100 mA
48.8651628766273;-0.79986572265625;-0.1871337890625;0.129999999671782;14;100 mA
48.8751628766021;-0.79925537109375;-0.184844970703125;0.139999999646534;15;100 mA
48.8851628765768;-0.8001708984375;-0.185821533203125;0.149999999621286;16;100 mA
48.8951628765516;-0.7989501953125;-0.183990478515625;0.159999999596039;17;100 mA
48.9051628765263;-0.79986572265625;-0.183837890625;0.169999999570791;18;100 mA
48.9151628765011;-0.8001708984375;-0.182647705078125;0.179999999545544;19;100 mA
48.9251628764758;-0.79925537109375;-0.184661865234375;0.189999999520296;20;100 mA
48.9351628764506;-0.799560546875;-0.184295654296875;0.199999999495049;21;100 mA
48.9451628764253;-0.79925537109375;-0.189056396484375;0.209999999469801;22;100 mA
48.9551628764001;-0.79986572265625;-0.185455322265625;0.219999999444553;23;100 mA
48.9651628763748;-0.799560546875;-0.1866455078125;0.229999999419306;24;100 mA
48.9751628763496;-0.799560546875;-0.18695068359375;0.239999999394058;25;100 mA
48.9851628763244;-0.799560546875;-0.189178466796875;0.249999999368811;26;100 mA
48.9951628762991;-0.79925537109375;-0.190673828125;0.259999999343563;27;100 mA
49.0051628762739;-0.799560546875;-0.1883544921875;0.269999999318316;28;100 mA
49.0151628762486;-0.7989501953125;-0.186920166015625;0.279999999293068;29;100 mA
49.0251628762234;-0.79925537109375;-0.18548583984375;0.28999999926782;30;100 mA
49.0351628761981;-0.79925537109375;-0.185882568359375;0.299999999242573;31;100 mA
49.0451628761729;-0.8001708984375;-0.185150146484375;0.309999999217325;32;100 mA
49.0551628761476;-0.799560546875;-0.18914794921875;0.319999999192078;33;100 mA
49.0651628761224;-0.79925537109375;-0.186004638671875;0.32999999916683;34;100 mA
49.0751628760971;-0.799560546875;-0.18853759765625;0.339999999141583;35;100 mA
49.0851628760719;-0.799560546875;-0.186614990234375;0.349999999116335;36;100 mA
49.0951628760466;-0.799560546875;-0.1875;0.359999999091087;37;100 mA
49.1051628760214;-0.79925537109375;-0.186370849609375;0.36999999906584;38;100 mA
49.1151628759961;-0.79925537109375;-0.184906005859375;0.379999999040592;39;100 mA
49.1251628759709;-0.79925537109375;-0.186767578125;0.389999999015345;40;100 mA
49.1351628759456;-0.799560546875;-0.184051513671875;0.399999998990097;41;100 mA
49.1451628759204;-0.799560546875;-0.186248779296875;0.40999999896485;42;100 mA
49.1551628758951;-0.799560546875;-0.182708740234375;0.419999998939602;43;100 mA
49.1651628758699;-0.8001708984375;-0.1834716796875;0.429999998914354;44;100 mA
49.1751628758446;-0.79986572265625;-0.180267333984375;0.439999998889107;45;100 mA
49.1851628758194;-0.79986572265625;-0.18389892578125;0.449999998863859;46;100 mA
49.1951628757942;-0.79925537109375;-0.179443359375;0.459999998838612;47;100 mA
49.2051628757689;-0.79925537109375;-0.18035888671875;0.469999998813364;48;100 mA
49.2151628757437;-0.8001708984375;-0.179656982421875;0.479999998788116;49;100 mA
49.2251628757184;-0.79986572265625;-0.180938720703125;0.489999998762869;50;100 mA
49.2351628756932;-0.79986572265625;-0.181121826171875;0.499999998737621;51;100 mA
49.2451628756679;-0.79925537109375;-0.18035888671875;0.509999998712374;52;100 mA
49.2551628756427;-0.79925537109375;-0.182342529296875;0.519999998687126;53;100 mA
49.2651628756174;-0.79986572265625;-0.180633544921875;0.529999998661879;54;100 mA
49.2751628755922;-0.79925537109375;-0.18231201171875;0.539999998636631;55;100 mA
49.2851628755669;-0.79986572265625;-0.179656982421875;0.549999998611383;56;100 mA
49.2951628755417;-0.79925537109375;-0.180023193359375;0.559999998586136;57;100 mA
49.3051628755164;-0.799560546875;-0.177581787109375;0.569999998560888;58;100 mA
49.3151628754912;-0.79925537109375;-0.17938232421875;0.579999998535641;59;100 mA
49.3251628754659;-0.8001708984375;-0.177581787109375;0.589999998510393;60;100 mA
49.3351628754407;-0.79986572265625;-0.178009033203125;0.599999998485146;61;100 mA
49.3451628754154;-0.7989501953125;-0.17730712890625;0.609999998459898;62;100 mA
49.3551628753902;-0.799560546875;-0.17724609375;0.61999999843465;63;100 mA
49.3651628753649;-0.799560546875;-0.1767578125;0.629999998409403;64;100 mA
49.3751628753397;-0.7989501953125;-0.176849365234375;0.639999998384155;65;100 mA
49.3851628753144;-0.799560546875;-0.181396484375;0.649999998358908;66;100 mA
49.3951628752892;-0.799560546875;-0.18048095703125;0.65999999833366;67;100 mA
49.405162875264;-0.79986572265625;-0.18121337890625;0.669999998308413;68;100 mA
49.4151628752387;-0.799560546875;-0.17828369140625;0.679999998283165;69;100 mA
49.4251628752135;-0.799560546875;-0.181121826171875;0.689999998257917;70;100 mA
49.4351628751882;-0.799560546875;-0.178466796875;0.69999999823267;71;100 mA
49.445162875163;-0.79925537109375;-0.178619384765625;0.709999998207422;72;100 mA
49.4551628751377;-0.799560546875;-0.1763916015625;0.719999998182175;73;100 mA
49.4651628751125;-0.799560546875;-0.176544189453125;0.729999998156927;74;100 mA
49.4751628750872;-0.8001708984375;-0.175323486328125;0.73999999813168;75;100 mA
49.485162875062;-0.79925537109375;-0.17376708984375;0.749999998106432;76;100 mA
49.4951628750367;-0.7989501953125;-0.17462158203125;0.759999998081184;77;100 mA
49.5051628750115;-0.799560546875;-0.173675537109375;0.769999998055937;78;100 mA
49.5151628749862;-0.7989501953125;-0.17596435546875;0.779999998030689;79;100 mA
49.525162874961;-0.79986572265625;-0.173553466796875;0.789999998005442;80;100 mA
49.5351628749357;-0.79986572265625;-0.174285888671875;0.799999997980194;81;100 mA
49.5451628749105;-0.79925537109375;-0.173370361328125;0.809999997954947;82;100 mA
49.5551628748852;-0.79986572265625;-0.177764892578125;0.819999997929699;83;100 mA
49.56516287486;-0.8001708984375;-0.1759033203125;0.829999997904451;84;100 mA
49.5751628748347;-0.7989501953125;-0.17486572265625;0.839999997879204;85;100 mA
49.5851628748095;-0.79925537109375;-0.174530029296875;0.849999997853956;86;100 mA
49.5951628747843;-0.79925537109375;-0.17388916015625;0.859999997828709;87;100 mA
49.605162874759;-0.799560546875;-0.175445556640625;0.869999997803461;88;100 mA
49.6151628747338;-0.799560546875;-0.174468994140625;0.879999997778214;89;100 mA
49.6251628747085;-0.79925537109375;-0.177154541015625;0.889999997752966;90;100 mA
49.6351628746833;-0.79925537109375;-0.17608642578125;0.899999997727718;91;100 mA
49.645162874658;-0.799560546875;-0.17840576171875;0.909999997702471;92;100 mA
49.6551628746328;-0.799560546875;-0.176971435546875;0.919999997677223;93;100 mA
49.6651628746075;-0.79986572265625;-0.1776123046875;0.929999997651976;94;100 mA
49.6751628745823;-0.8001708984375;-0.17462158203125;0.939999997626728;95;100 mA
49.685162874557;-0.799560546875;-0.1771240234375;0.949999997601481;96;100 mA
49.6951628745318;-0.799560546875;-0.175506591796875;0.959999997576233;97;100 mA
49.7051628745065;-0.799560546875;-0.17626953125;0.969999997550985;98;100 mA
49.7151628744813;-0.799560546875;-0.176971435546875;0.979999997525738;99;100 mA
49.725162874456;-0.79925537109375;-0.17767333984375;0.98999999750049;100;100 mA
49.7351628744308;-0.799560546875;-0.18060302734375;0.999999997475243;101;100 mA
49.7451628744055;-0.79925537109375;-0.17974853515625;1.00999999745;102;100 mA
49.7551628743803;-0.799560546875;-0.180816650390625;1.01999999742475;103;100 mA
49.765162874355;-0.799560546875;-0.177886962890625;1.0299999973995;104;100 mA
49.7751628743298;-0.7989501953125;-0.179443359375;1.03999999737425;105;100 mA
49.7851628743045;-0.79925537109375;-0.18060302734375;1.049999997349;106;100 mA
49.7951628742793;-0.799560546875;-0.182952880859375;1.05999999732376;107;100 mA
49.8051628742541;-0.79925537109375;-0.180419921875;1.06999999729851;108;100 mA
49.8151628742288;-0.79986572265625;-0.179931640625;1.07999999727326;109;100 mA
49.8251628742036;-0.799560546875;-0.17877197265625;1.08999999724801;110;100 mA
49.8351628741783;-0.799560546875;-0.178253173828125;1.09999999722277;111;100 mA
49.8451628741531;-0.799560546875;-0.1796875;1.10999999719752;112;100 mA
49.8551628741278;-0.799560546875;-0.178558349609375;1.11999999717227;113;100 mA
49.8651628741026;-0.79925537109375;-0.181121826171875;1.12999999714702;114;100 mA
49.8751628740773;-0.799560546875;-0.178802490234375;1.13999999712178;115;100 mA
49.8851628740521;-0.799560546875;-0.183990478515625;1.14999999709653;116;100 mA
49.8951628740268;-0.799560546875;-0.180511474609375;1.15999999707128;117;100 mA
49.9051628740016;-0.79925537109375;-0.18084716796875;1.16999999704603;118;100 mA
49.9151628739763;-0.79986572265625;-0.177642822265625;1.17999999702079;119;100 mA
49.9251628739511;-0.799560546875;-0.179595947265625;1.18999999699554;120;100 mA
49.9351628739258;-0.799560546875;-0.178009033203125;1.19999999697029;121;100 mA
49.9451628739006;-0.7989501953125;-0.179046630859375;1.20999999694504;122;100 mA
49.9551628738753;-0.799560546875;-0.17852783203125;1.2199999969198;123;100 mA
49.9651628738501;-0.7989501953125;-0.177764892578125;1.22999999689455;124;100 mA
49.9751628738248;-0.799560546875;-0.177947998046875;1.2399999968693;125;100 mA
49.9851628737996;-0.79986572265625;-0.175933837890625;1.24999999684405;126;100 mA
49.9951628737743;-0.799560546875;-0.179290771484375;1.25999999681881;127;100 mA
50.0051628737491;-0.799560546875;-0.1771240234375;1.26999999679356;128;100 mA
50.0151628737239;-0.79925537109375;-0.179351806640625;1.27999999676831;129;100 mA
50.0251628736986;-0.799560546875;-0.175872802734375;1.28999999674306;130;100 mA
50.0351628736734;-0.79925537109375;-0.17791748046875;1.29999999671782;131;100 mA
50.0451628736481;-0.79986572265625;-0.17694091796875;1.30999999669257;132;100 mA
50.0551628736229;-0.79925537109375;-0.176055908203125;1.31999999666732;133;100 mA
50.0651628735976;-0.79925537109375;-0.176116943359375;1.32999999664207;134;100 mA
50.0751628735724;-0.799560546875;-0.17535400390625;1.33999999661683;135;100 mA
50.0851628735471;-0.799560546875;-0.17779541015625;1.34999999659158;136;100 mA
50.0951628735219;-0.79925537109375;-0.1761474609375;1.35999999656633;137;100 mA
50.1051628734966;-0.79925537109375;-0.1759033203125;1.36999999654108;138;100 mA
50.1151628734714;-0.799560546875;-0.175140380859375;1.37999999651583;139;100 mA
50.1251628734461;-0.799560546875;-0.178924560546875;1.38999999649059;140;100 mA
50.1351628734209;-0.79986572265625;-0.176300048828125;1.39999999646534;141;100 mA
50.1451628733956;-0.799560546875;-0.17877197265625;1.40999999644009;142;100 mA
50.1551628733704;-0.79925537109375;-0.17547607421875;1.41999999641484;143;100 mA
50.1651628733451;-0.79925537109375;-0.176544189453125;1.4299999963896;144;100 mA
50.1751628733199;-0.799560546875;-0.177703857421875;1.43999999636435;145;100 mA
50.1851628732946;-0.79925537109375;-0.176849365234375;1.4499999963391;146;100 mA
50.1951628732694;-0.799560546875;-0.17431640625;1.45999999631385;147;100 mA
50.2051628732441;-0.799560546875;-0.1705322265625;1.46999999628861;148;100 mA
50.2151628732189;-0.79986572265625;-0.1732177734375;1.47999999626336;149;100 mA
50.2251628731937;-0.799560546875;-0.1710205078125;1.48999999623811;150;100 mA
50.2351628731684;-0.799560546875;-0.17236328125;1.49999999621286;151;100 mA
50.2451628731432;-0.79925537109375;-0.17193603515625;1.50999999618762;152;100 mA
50.2551628731179;-0.799560546875;-0.173736572265625;1.51999999616237;153;100 mA
50.2651628730927;-0.79925537109375;-0.172210693359375;1.52999999613712;154;100 mA
50.2751628730674;-0.79925537109375;-0.173675537109375;1.53999999611187;155;100 mA
50.2851628730422;-0.8001708984375;-0.172393798828125;1.54999999608663;156;100 mA
50.2951628730169;-0.79925537109375;-0.172515869140625;1.55999999606138;157;100 mA
50.3051628729917;-0.799560546875;-0.173126220703125;1.56999999603613;158;100 mA
50.3151628729664;-0.79986572265625;-0.17333984375;1.57999999601088;159;100 mA
50.3251628729412;-0.79986572265625;-0.173583984375;1.58999999598564;160;100 mA
50.3351628729159;-0.79986572265625;-0.171966552734375;1.59999999596039;161;100 mA
50.3451628728907;-0.79925537109375;-0.172760009765625;1.60999999593514;162;100 mA
50.3551628728654;-0.8001708984375;-0.171142578125;1.61999999590989;163;100 mA
50.3651628728402;-0.799560546875;-0.174285888671875;1.62999999588465;164;100 mA
50.3751628728149;-0.799560546875;-0.171112060546875;1.6399999958594;165;100 mA
50.3851628727897;-0.79925537109375;-0.1727294921875;1.64999999583415;166;100 mA
50.3951628727644;-0.799560546875;-0.173614501953125;1.6599999958089;167;100 mA
50.4051628727392;-0.799560546875;-0.174285888671875;1.66999999578366;168;100 mA
50.4151628727139;-0.799560546875;-0.1722412109375;1.67999999575841;169;100 mA
50.4251628726887;-0.79986572265625;-0.172576904296875;1.68999999573316;170;100 mA
50.4351628726635;-0.79986572265625;-0.173370361328125;1.69999999570791;171;100 mA
50.4451628726382;-0.79986572265625;-0.173858642578125;1.70999999568267;172;100 mA
50.455162872613;-0.799560546875;-0.1766357421875;1.71999999565742;173;100 mA
50.4651628725877;-0.79986572265625;-0.174896240234375;1.72999999563217;174;100 mA
50.4751628725625;-0.7989501953125;-0.177001953125;1.73999999560692;175;100 mA
50.4851628725372;-0.79986572265625;-0.173736572265625;1.74999999558167;176;100 mA
50.495162872512;-0.799560546875;-0.174072265625;1.75999999555643;177;100 mA
50.5051628724867;-0.79925537109375;-0.173431396484375;1.76999999553118;178;100 mA
50.5151628724615;-0.79925537109375;-0.17608642578125;1.77999999550593;179;100 mA
50.5251628724362;-0.799560546875;-0.17364501953125;1.78999999548068;180;100 mA
50.535162872411;-0.79986572265625;-0.17333984375;1.79999999545544;181;100 mA
50.5451628723857;-0.8001708984375;-0.170989990234375;1.80999999543019;182;100 mA
50.5551628723605;-0.799560546875;-0.171295166015625;1.81999999540494;183;100 mA
50.5651628723352;-0.79986572265625;-0.171783447265625;1.82999999537969;184;100 mA
50.57516287231;-0.79925537109375;-0.170440673828125;1.83999999535445;185;100 mA
50.5851628722847;-0.799560546875;-0.16998291015625;1.8499999953292;186;100 mA
50.5951628722595;-0.79986572265625;-0.169036865234375;1.85999999530395;187;100 mA
50.6051628722342;-0.799560546875;-0.171661376953125;1.8699999952787;188;100 mA
50.615162872209;-0.799560546875;-0.171661376953125;1.87999999525346;189;100 mA
50.6251628721838;-0.79925537109375;-0.17388916015625;1.88999999522821;190;100 mA
50.6351628721585;-0.79986572265625;-0.17242431640625;1.89999999520296;191;100 mA
50.6451628721333;-0.7989501953125;-0.1729736328125;1.90999999517771;192;100 mA
50.655162872108;-0.79986572265625;-0.17071533203125;1.91999999515247;193;100 mA
50.6651628720828;-0.79925537109375;-0.17022705078125;1.92999999512722;194;100 mA
50.6751628720575;-0.799560546875;-0.171295166015625;1.93999999510197;195;100 mA
50.6851628720323;-0.799560546875;-0.17059326171875;1.94999999507672;196;100 mA
50.695162872007;-0.799560546875;-0.171844482421875;1.95999999505148;197;100 mA
50.7051628719818;-0.79925537109375;-0.17041015625;1.96999999502623;198;100 mA
50.7151628719565;-0.79986572265625;-0.1705322265625;1.97999999500098;199;100 mA
50.7251628719313;-0.799560546875;-0.167388916015625;1.98999999497573;200;100 mA
50.735162871906;-0.79986572265625;-0.16912841796875;1.99999999495049;201;100 mA
50.7451628718808;-0.799560546875;-0.168243408203125;2.00999999492524;202;100 mA
50.7551628718555;-0.79986572265625;-0.169219970703125;2.01999999489999;203;100 mA
50.7651628718303;-0.799560546875;-0.169281005859375;2.02999999487474;204;100 mA
50.775162871805;-0.799560546875;-0.16864013671875;2.0399999948495;205;100 mA
50.7851628717798;-0.79986572265625;-0.1680908203125;2.04999999482425;206;100 mA
50.7951628717545;-0.7989501953125;-0.16729736328125;2.059999994799;207;100 mA
50.8051628717293;-0.79925537109375;-0.1680908203125;2.06999999477375;208;100 mA
50.815162871704;-0.799560546875;-0.1671142578125;2.0799999947485;209;100 mA
50.8251628716788;-0.79986572265625;-0.1689453125;2.08999999472326;210;100 mA
50.8351628716536;-0.79925537109375;-0.166839599609375;2.09999999469801;211;100 mA
50.8451628716283;-0.799560546875;-0.1671142578125;2.10999999467276;212;100 mA
50.8551628716031;-0.799560546875;-0.16680908203125;2.11999999464751;213;100 mA
50.8651628715778;-0.79925537109375;-0.1676025390625;2.12999999462227;214;100 mA
50.8751628715526;-0.79986572265625;-0.16656494140625;2.13999999459702;215;100 mA
50.8851628715273;-0.799560546875;-0.169708251953125;2.14999999457177;216;100 mA
50.8951628715021;-0.799560546875;-0.170562744140625;2.15999999454652;217;100 mA
50.9051628714768;-0.79986572265625;-0.170928955078125;2.16999999452128;218;100 mA
50.9151628714516;-0.79986572265625;-0.17041015625;2.17999999449603;219;100 mA
50.9251628714263;-0.79986572265625;-0.16937255859375;2.18999999447078;220;100 mA
50.9351628714011;-0.79925537109375;-0.169464111328125;2.19999999444553;221;100 mA
50.9451628713758;-0.79986572265625;-0.165863037109375;2.20999999442029;222;100 mA
50.9551628713506;-0.799560546875;-0.16748046875;2.21999999439504;223;100 mA
50.9651628713253;-0.799560546875;-0.166015625;2.22999999436979;224;100 mA
50.9751628713001;-0.799560546875;-0.168701171875;2.23999999434454;225;100 mA
50.9851628712748;-0.79986572265625;-0.167449951171875;2.2499999943193;226;100 mA
50.9951628712496;-0.799560546875;-0.1678466796875;2.25999999429405;227;100 mA
51.0051628712243;-0.79986572265625;-0.167083740234375;2.2699999942688;228;100 mA
51.0151628711991;-0.79925537109375;-0.1661376953125;2.27999999424355;229;100 mA
51.0251628711738;-0.799560546875;-0.16497802734375;2.28999999421831;230;100 mA
51.0351628711486;-0.799560546875;-0.16558837890625;2.29999999419306;231;100 mA
51.0451628711234;-0.79986572265625;-0.16693115234375;2.30999999416781;232;100 mA
51.0551628710981;-0.7989501953125;-0.166046142578125;2.31999999414256;233;100 mA
51.0651628710729;-0.79925537109375;-0.16754150390625;2.32999999411732;234;100 mA
51.0751628710476;-0.79925537109375;-0.166229248046875;2.33999999409207;235;100 mA
51.0851628710224;-0.79986572265625;-0.1693115234375;2.34999999406682;236;100 mA
51.0951628709971;-0.79986572265625;-0.16729736328125;2.35999999404157;237;100 mA
51.1051628709719;-0.79925537109375;-0.166961669921875;2.36999999401633;238;100 mA
51.1151628709466;-0.79925537109375;-0.1644287109375;2.37999999399108;239;100 mA
51.1251628709214;-0.799560546875;-0.166473388671875;2.38999999396583;240;100 mA
51.1351628708961;-0.79986572265625;-0.16644287109375;2.39999999394058;241;100 mA
51.1451628708709;-0.7989501953125;-0.16680908203125;2.40999999391533;242;100 mA
51.1551628708456;-0.79925537109375;-0.167755126953125;2.41999999389009;243;100 mA
51.1651628708204;-0.79986572265625;-0.16632080078125;2.42999999386484;244;100 mA
51.1751628707951;-0.79986572265625;-0.16595458984375;2.43999999383959;245;100 mA
51.1851628707699;-0.799560546875;-0.164703369140625;2.44999999381434;246;100 mA
51.1951628707446;-0.799560546875;-0.16607666015625;2.4599999937891;247;100 mA
51.2051628707194;-0.8001708984375;-0.165191650390625;2.46999999376385;248;100 mA
51.2151628706941;-0.79925537109375;-0.166595458984375;2.4799999937386;249;100 mA
51.2251628706689;-0.799560546875;-0.1644287109375;2.48999999371335;250;100 mA
51.2351628706436;-0.799560546875;-0.164703369140625;2.49999999368811;251;100 mA
51.2451628706184;-0.79925537109375;-0.165069580078125;2.50999999366286;252;100 mA
51.2551628705932;-0.79986572265625;-0.16485595703125;2.51999999363761;253;100 mA
51.2651628705679;-0.799560546875;-0.164703369140625;2.52999999361236;254;100 mA
51.2751628705427;-0.79925537109375;-0.164825439453125;2.53999999358712;255;100 mA
51.2851628705174;-0.79925537109375;-0.16668701171875;2.54999999356187;256;100 mA
51.2951628704922;-0.799560546875;-0.166412353515625;2.55999999353662;257;100 mA
51.3051628704669;-0.799560546875;-0.168670654296875;2.56999999351137;258;100 mA
51.3151628704417;-0.79986572265625;-0.167999267578125;2.57999999348613;259;100 mA
51.3251628704164;-0.799560546875;-0.167999267578125;2.58999999346088;260;100 mA
51.3351628703912;-0.79986572265625;-0.1649169921875;2.59999999343563;261;100 mA
51.3451628703659;-0.79925537109375;-0.166107177734375;2.60999999341038;262;100 mA
51.3551628703407;-0.799560546875;-0.164886474609375;2.61999999338514;263;100 mA
51.3651628703154;-0.799560546875;-0.166412353515625;2.62999999335989;264;100 mA
51.3751628702902;-0.799560546875;-0.167633056640625;2.63999999333464;265;100 mA
51.3851628702649;-0.8001708984375;-0.16766357421875;2.64999999330939;266;100 mA
51.3951628702397;-0.799560546875;-0.16668701171875;2.65999999328415;267;100 mA
51.4051628702144;-0.79925537109375;-0.16522216796875;2.6699999932589;268;100 mA
51.4151628701892;-0.799560546875;-0.16668701171875;2.67999999323365;269;100 mA
51.4251628701639;-0.799560546875;-0.1658935546875;2.6899999932084;270;100 mA
51.4351628701387;-0.79986572265625;-0.16644287109375;2.69999999318316;271;100 mA
51.4451628701134;-0.79986572265625;-0.165130615234375;2.70999999315791;272;100 mA
51.4551628700882;-0.8001708984375;-0.16741943359375;2.71999999313266;273;100 mA
51.465162870063;-0.799560546875;-0.16680908203125;2.72999999310741;274;100 mA
51.4751628700377;-0.799560546875;-0.166961669921875;2.73999999308217;275;100 mA
51.4851628700125;-0.79925537109375;-0.167144775390625;2.74999999305692;276;100 mA
51.4951628699872;-0.799560546875;-0.167999267578125;2.75999999303167;277;100 mA
51.505162869962;-0.799560546875;-0.167755126953125;2.76999999300642;278;100 mA
51.5151628699367;-0.79925537109375;-0.16607666015625;2.77999999298117;279;100 mA
51.5251628699115;-0.799560546875;-0.16864013671875;2.78999999295593;280;100 mA
51.5351628698862;-0.799560546875;-0.167938232421875;2.79999999293068;281;100 mA
51.545162869861;-0.79986572265625;-0.1676025390625;2.80999999290543;282;100 mA
51.5551628698357;-0.79986572265625;-0.16534423828125;2.81999999288018;283;100 mA
51.5651628698105;-0.799560546875;-0.1658935546875;2.82999999285494;284;100 mA
51.5751628697852;-0.8001708984375;-0.1646728515625;2.83999999282969;285;100 mA
51.58516286976;-0.79925537109375;-0.166046142578125;2.84999999280444;286;100 mA
51.5951628697347;-0.79925537109375;-0.163909912109375;2.85999999277919;287;100 mA
51.6051628697095;-0.7989501953125;-0.164337158203125;2.86999999275395;288;100 mA
51.6151628696842;-0.799560546875;-0.164215087890625;2.8799999927287;289;100 mA
51.625162869659;-0.79986572265625;-0.16357421875;2.88999999270345;290;100 mA
51.6351628696337;-0.79986572265625;-0.165618896484375;2.8999999926782;291;100 mA
51.6451628696085;-0.79986572265625;-0.165557861328125;2.90999999265296;292;100 mA
51.6551628695833;-0.799560546875;-0.16680908203125;2.91999999262771;293;100 mA
51.665162869558;-0.79925537109375;-0.16650390625;2.92999999260246;294;100 mA
51.6751628695328;-0.79986572265625;-0.169158935546875;2.93999999257721;295;100 mA
51.6851628695075;-0.799560546875;-0.167144775390625;2.94999999255197;296;100 mA
51.6951628694823;-0.79925537109375;-0.1680908203125;2.95999999252672;297;100 mA
51.705162869457;-0.799560546875;-0.16650390625;2.96999999250147;298;100 mA
51.7151628694318;-0.79986572265625;-0.167144775390625;2.97999999247622;299;100 mA
51.7251628694065;-0.799560546875;-0.165130615234375;2.98999999245098;300;100 mA
51.7351628693813;-0.799560546875;-0.1644287109375;2.99999999242573;301;100 mA
51.745162869356;-0.79925537109375;-0.16497802734375;3.00999999240048;302;100 mA
51.7551628693308;-0.799560546875;-0.164642333984375;3.01999999237523;303;100 mA
51.7651628693055;-0.799560546875;-0.164337158203125;3.02999999234999;304;100 mA
51.7751628692803;-0.799560546875;-0.16339111328125;3.03999999232474;305;100 mA
51.785162869255;-0.79925537109375;-0.165924072265625;3.04999999229949;306;100 mA
51.7951628692298;-0.799560546875;-0.1654052734375;3.05999999227424;307;100 mA
51.8051628692045;-0.79864501953125;-0.16583251953125;3.069999992249;308;100 mA
51.8151628691793;-0.79925537109375;-0.16387939453125;3.07999999222375;309;100 mA
51.825162869154;-0.79986572265625;-0.164703369140625;3.0899999921985;310;100 mA
51.8351628691288;-0.8001708984375;-0.162261962890625;3.09999999217325;311;100 mA
51.8451628691035;-0.799560546875;-0.162506103515625;3.109999992148;312;100 mA
51.8551628690783;-0.7989501953125;-0.16229248046875;3.11999999212276;313;100 mA
51.8651628690531;-0.79986572265625;-0.163177490234375;3.12999999209751;314;100 mA
51.8751628690278;-0.799560546875;-0.16424560546875;3.13999999207226;315;100 mA
51.8851628690026;-0.799560546875;-0.162811279296875;3.14999999204701;316;100 mA
51.8951628689773;-0.799560546875;-0.16119384765625;3.15999999202177;317;100 mA
51.9051628689521;-0.799560546875;-0.159881591796875;3.16999999199652;318;100 mA
51.9151628689268;-0.79986572265625;-0.161163330078125;3.17999999197127;319;100 mA
51.9251628689016;-0.799560546875;-0.16046142578125;3.18999999194602;320;100 mA
51.9351628688763;-0.799560546875;-0.162689208984375;3.19999999192078;321;100 mA
51.9451628688511;-0.79925537109375;-0.162567138671875;3.20999999189553;322;100 mA
51.9551628688258;-0.799560546875;-0.16400146484375;3.21999999187028;323;100 mA
51.9651628688006;-0.799560546875;-0.161529541015625;3.22999999184503;324;100 mA
51.9751628687753;-0.79986572265625;-0.161865234375;3.23999999181979;325;100 mA
51.9851628687501;-0.79925537109375;-0.161895751953125;3.24999999179454;326;100 mA
51.9951628687248;-0.799560546875;-0.16180419921875;3.25999999176929;327;100 mA
52.0051628686996;-0.799560546875;-0.160247802734375;3.26999999174404;328;100 mA
52.0151628686743;-0.79986572265625;-0.15869140625;3.2799999917188;329;100 mA
52.0251628686491;-0.79925537109375;-0.16070556640625;3.28999999169355;330;100 mA
52.0351628686238;-0.799560546875;-0.16009521484375;3.2999999916683;331;100 mA
52.0451628685986;-0.799560546875;-0.161285400390625;3.30999999164305;332;100 mA
52.0551628685733;-0.799560546875;-0.15960693359375;3.31999999161781;333;100 mA
52.0651628685481;-0.799560546875;-0.15985107421875;3.32999999159256;334;100 mA
52.0751628685229;-0.799560546875;-0.15911865234375;3.33999999156731;335;100 mA
52.0851628684976;-0.799560546875;-0.15972900390625;3.34999999154206;336;100 mA
52.0951628684724;-0.7989501953125;-0.159088134765625;3.35999999151682;337;100 mA
52.1051628684471;-0.79925537109375;-0.1588134765625;3.36999999149157;338;100 mA
52.1151628684219;-0.8001708984375;-0.15850830078125;3.37999999146632;339;100 mA
52.1251628683966;-0.799560546875;-0.156890869140625;3.38999999144107;340;100 mA
52.1351628683714;-0.799560546875;-0.158172607421875;3.39999999141583;341;100 mA
52.1451628683461;-0.79986572265625;-0.15765380859375;3.40999999139058;342;100 mA
52.1551628683209;-0.799560546875;-0.158050537109375;3.41999999136533;343;100 mA
52.1651628682956;-0.799560546875;-0.15576171875;3.42999999134008;344;100 mA
52.1751628682704;-0.799560546875;-0.1561279296875;3.43999999131483;345;100 mA
52.1851628682451;-0.799560546875;-0.155426025390625;3.44999999128959;346;100 mA
52.1951628682199;-0.79925537109375;-0.156341552734375;3.45999999126434;347;100 mA
52.2051628681946;-0.79986572265625;-0.155426025390625;3.46999999123909;348;100 mA
52.2151628681694;-0.79925537109375;-0.156829833984375;3.47999999121384;349;100 mA
52.2251628681441;-0.79925537109375;-0.15814208984375;3.4899999911886;350;100 mA
52.2351628681189;-0.799560546875;-0.157440185546875;3.49999999116335;351;100 mA
52.2451628680936;-0.79925537109375;-0.157989501953125;3.5099999911381;352;100 mA
52.2551628680684;-0.799560546875;-0.157012939453125;3.51999999111285;353;100 mA
52.2651628680431;-0.79986572265625;-0.158294677734375;3.52999999108761;354;100 mA
52.2751628680179;-0.799560546875;-0.15606689453125;3.53999999106236;355;100 mA
52.2851628679927;-0.799560546875;-0.15765380859375;3.54999999103711;356;100 mA
52.2951628679674;-0.79986572265625;-0.1566162109375;3.55999999101186;357;100 mA
52.3051628679422;-0.79925537109375;-0.156494140625;3.56999999098662;358;100 mA
52.3151628679169;-0.79925537109375;-0.15576171875;3.57999999096137;359;100 mA
52.3251628678917;-0.8001708984375;-0.157501220703125;3.58999999093612;360;100 mA
52.3351628678664;-0.8001708984375;-0.157379150390625;3.59999999091087;361;100 mA
52.3451628678412;-0.7989501953125;-0.157012939453125;3.60999999088563;362;100 mA
52.3551628678159;-0.799560546875;-0.157257080078125;3.61999999086038;363;100 mA
52.3651628677907;-0.79986572265625;-0.156402587890625;3.62999999083513;364;100 mA
52.3751628677654;-0.79925537109375;-0.15667724609375;3.63999999080988;365;100 mA
52.3851628677402;-0.79925537109375;-0.15545654296875;3.64999999078464;366;100 mA
52.3951628677149;-0.799560546875;-0.156158447265625;3.65999999075939;367;100 mA
52.4051628676897;-0.799560546875;-0.15582275390625;3.66999999073414;368;100 mA
52.4151628676644;-0.799560546875;-0.158355712890625;3.67999999070889;369;100 mA
52.4251628676392;-0.79925537109375;-0.15716552734375;3.68999999068365;370;100 mA
52.4351628676139;-0.799560546875;-0.158538818359375;3.6999999906584;371;100 mA
52.4451628675887;-0.79986572265625;-0.1575927734375;3.70999999063315;372;100 mA
52.4551628675634;-0.79925537109375;-0.15771484375;3.7199999906079;373;100 mA
52.4651628675382;-0.79986572265625;-0.15826416015625;3.72999999058266;374;100 mA
52.4751628675129;-0.799560546875;-0.15789794921875;3.73999999055741;375;100 mA
52.4851628674877;-0.79986572265625;-0.158660888671875;3.74999999053216;376;100 mA
52.4951628674625;-0.79925537109375;-0.157501220703125;3.75999999050691;377;100 mA
52.5051628674372;-0.7989501953125;-0.158538818359375;3.76999999048167;378;100 mA
52.515162867412;-0.799560546875;-0.156982421875;3.77999999045642;379;100 mA
52.5251628673867;-0.79925537109375;-0.15740966796875;3.78999999043117;380;100 mA
52.5351628673615;-0.799560546875;-0.1552734375;3.79999999040592;381;100 mA
52.5451628673362;-0.799560546875;-0.1566162109375;3.80999999038067;382;100 mA
52.555162867311;-0.79925537109375;-0.155731201171875;3.81999999035543;383;100 mA
52.5651628672857;-0.79986572265625;-0.157257080078125;3.82999999033018;384;100 mA
52.5751628672605;-0.799560546875;-0.15765380859375;3.83999999030493;385;100 mA
52.5851628672352;-0.799560546875;-0.156982421875;3.84999999027968;386;100 mA
52.59516286721;-0.79925537109375;-0.1563720703125;3.85999999025444;387;100 mA
52.6051628671847;-0.79925537109375;-0.155853271484375;3.86999999022919;388;100 mA
52.6151628671595;-0.799560546875;-0.15692138671875;3.87999999020394;389;100 mA
52.6251628671342;-0.79925537109375;-0.156219482421875;3.88999999017869;390;100 mA
52.635162867109;-0.79925537109375;-0.1578369140625;3.89999999015345;391;100 mA
52.6451628670837;-0.79925537109375;-0.15625;3.9099999901282;392;100 mA
52.6551628670585;-0.799560546875;-0.156890869140625;3.91999999010295;393;100 mA
52.6651628670332;-0.8001708984375;-0.156280517578125;3.9299999900777;394;100 mA
52.675162867008;-0.79925537109375;-0.15557861328125;3.93999999005246;395;100 mA
52.6851628669828;-0.79925537109375;-0.154815673828125;3.94999999002721;396;100 mA
52.6951628669575;-0.799560546875;-0.154632568359375;3.95999999000196;397;100 mA
52.7051628669323;-0.799560546875;-0.155548095703125;3.96999998997671;398;100 mA
52.715162866907;-0.799560546875;-0.15478515625;3.97999998995147;399;100 mA
52.7251628668818;-0.79986572265625;-0.154571533203125;3.98999998992622;400;100 mA
52.7351628668565;-0.79986572265625;-0.153411865234375;3.99999998990097;401;100 mA
52.7451628668313;-0.799560546875;-0.154632568359375;4.00999998987572;402;100 mA
52.755162866806;-0.799560546875;-0.15380859375;4.01999998985048;403;100 mA
52.7651628667808;-0.8001708984375;-0.15460205078125;4.02999998982523;404;100 mA
52.7751628667555;-0.79925537109375;-0.151885986328125;4.03999998979998;405;100 mA
52.7851628667303;-0.79986572265625;-0.152435302734375;4.04999998977473;406;100 mA
52.795162866705;-0.799560546875;-0.1514892578125;4.05999998974949;407;100 mA
52.8051628666798;-0.79986572265625;-0.15142822265625;4.06999998972424;408;100 mA
52.8151628666545;-0.799560546875;-0.1505126953125;4.07999998969899;409;100 mA
52.8251628666293;-0.7989501953125;-0.151031494140625;4.08999998967374;410;100 mA
52.835162866604;-0.79986572265625;-0.153167724609375;4.0999999896485;411;100 mA
52.8451628665788;-0.8001708984375;-0.153533935546875;4.10999998962325;412;100 mA
52.8551628665535;-0.799560546875;-0.15423583984375;4.119999989598;413;100 mA
52.8651628665283;-0.799560546875;-0.152862548828125;4.12999998957275;414;100 mA
52.875162866503;-0.799560546875;-0.154266357421875;4.1399999895475;415;100 mA
52.8851628664778;-0.79925537109375;-0.15435791015625;4.14999998952226;416;100 mA
52.8951628664526;-0.79986572265625;-0.155853271484375;4.15999998949701;417;100 mA
52.9051628664273;-0.79925537109375;-0.15411376953125;4.16999998947176;418;100 mA
52.9151628664021;-0.8001708984375;-0.154388427734375;4.17999998944651;419;100 mA
52.9251628663768;-0.799560546875;-0.15472412109375;4.18999998942127;420;100 mA
52.9351628663516;-0.799560546875;-0.154937744140625;4.19999998939602;421;100 mA
52.9451628663263;-0.799560546875;-0.156890869140625;4.20999998937077;422;100 mA
52.9551628663011;-0.79986572265625;-0.15673828125;4.21999998934552;423;100 mA
52.9651628662758;-0.799560546875;-0.156829833984375;4.22999998932028;424;100 mA
52.9751628662506;-0.79925537109375;-0.156219482421875;4.23999998929503;425;100 mA
52.9851628662253;-0.79986572265625;-0.15631103515625;4.24999998926978;426;100 mA
52.9951628662001;-0.79925537109375;-0.156494140625;4.25999998924453;427;100 mA
53.0051628661748;-0.79925537109375;-0.157623291015625;4.26999998921929;428;100 mA
53.0151628661496;-0.79986572265625;-0.156097412109375;4.27999998919404;429;100 mA
53.0251628661243;-0.799560546875;-0.15673828125;4.28999998916879;430;100 mA
53.0351628660991;-0.7989501953125;-0.15673828125;4.29999998914354;431;100 mA
53.0451628660738;-0.799560546875;-0.15692138671875;4.3099999891183;432;100 mA
53.0551628660486;-0.799560546875;-0.154632568359375;4.31999998909305;433;100 mA
53.0651628660233;-0.799560546875;-0.153472900390625;4.3299999890678;434;100 mA
53.0751628659981;-0.8001708984375;-0.15350341796875;4.33999998904255;435;100 mA
53.0851628659728;-0.799560546875;-0.15240478515625;4.34999998901731;436;100 mA
53.0951628659476;-0.799560546875;-0.152862548828125;4.35999998899206;437;100 mA
53.1051628659224;-0.79986572265625;-0.152862548828125;4.36999998896681;438;100 mA
53.1151628658971;-0.79925537109375;-0.155029296875;4.37999998894156;439;100 mA
53.1251628658719;-0.799560546875;-0.155426025390625;4.38999998891632;440;100 mA
53.1351628658466;-0.799560546875;-0.15618896484375;4.39999998889107;441;100 mA
53.1451628658214;-0.79986572265625;-0.15618896484375;4.40999998886582;442;100 mA
53.1551628657961;-0.799560546875;-0.156097412109375;4.41999998884057;443;100 mA
53.1651628657709;-0.79986572265625;-0.155914306640625;4.42999998881533;444;100 mA
53.1751628657456;-0.79986572265625;-0.1563720703125;4.43999998879008;445;100 mA
53.1851628657204;-0.799560546875;-0.15625;4.44999998876483;446;100 mA
53.1951628656951;-0.799560546875;-0.155181884765625;4.45999998873958;447;100 mA
53.2051628656699;-0.799560546875;-0.15545654296875;4.46999998871433;448;100 mA
53.2151628656446;-0.799560546875;-0.154815673828125;4.47999998868909;449;100 mA
53.2251628656194;-0.79925537109375;-0.15582275390625;4.48999998866384;450;100 mA
53.2351628655941;-0.799560546875;-0.156005859375;4.49999998863859;451;100 mA
53.2451628655689;-0.79925537109375;-0.156524658203125;4.50999998861334;452;100 mA
53.2551628655436;-0.799560546875;-0.156158447265625;4.5199999885881;453;100 mA
53.2651628655184;-0.79925537109375;-0.1561279296875;4.52999998856285;454;100 mA
53.2751628654931;-0.79986572265625;-0.1558837890625;4.5399999885376;455;100 mA
53.2851628654679;-0.799560546875;-0.1558837890625;4.54999998851235;456;100 mA
53.2951628654426;-0.7989501953125;-0.154571533203125;4.55999998848711;457;100 mA
53.3051628654174;-0.799560546875;-0.15399169921875;4.56999998846186;458;100 mA
53.3151628653922;-0.799560546875;-0.1544189453125;4.57999998843661;459;100 mA
53.3251628653669;-0.799560546875;-0.15380859375;4.58999998841136;460;100 mA
53.3351628653417;-0.799560546875;-0.15460205078125;4.59999998838612;461;100 mA
53.3451628653164;-0.8001708984375;-0.1544189453125;4.60999998836087;462;100 mA
53.3551628652912;-0.799560546875;-0.155731201171875;4.61999998833562;463;100 mA
53.3651628652659;-0.79986572265625;-0.15716552734375;4.62999998831037;464;100 mA
53.3751628652407;-0.7989501953125;-0.158294677734375;4.63999998828513;465;100 mA
53.3851628652154;-0.8001708984375;-0.1571044921875;4.64999998825988;466;100 mA
53.3951628651902;-0.8001708984375;-0.158477783203125;4.65999998823463;467;100 mA
53.4051628651649;-0.79986572265625;-0.156982421875;4.66999998820938;468;100 mA
53.4151628651397;-0.799560546875;-0.157501220703125;4.67999998818414;469;100 mA
53.4251628651144;-0.7989501953125;-0.15692138671875;4.68999998815889;470;100 mA
53.4351628650892;-0.79925537109375;-0.155975341796875;4.69999998813364;471;100 mA
53.4451628650639;-0.79925537109375;-0.156585693359375;4.70999998810839;472;100 mA
53.4551628650387;-0.799560546875;-0.155364990234375;4.71999998808315;473;100 mA
53.4651628650134;-0.7989501953125;-0.155609130859375;4.7299999880579;474;100 mA
53.4751628649882;-0.79925537109375;-0.1561279296875;4.73999998803265;475;100 mA
53.4851628649629;-0.799560546875;-0.155914306640625;4.7499999880074;476;100 mA
53.4951628649377;-0.79925537109375;-0.155029296875;4.75999998798216;477;100 mA
53.5051628649124;-0.799560546875;-0.1558837890625;4.76999998795691;478;100 mA
53.5151628648872;-0.79986572265625;-0.155670166015625;4.77999998793166;479;100 mA
53.525162864862;-0.8001708984375;-0.15625;4.78999998790641;480;100 mA
53.5351628648367;-0.799560546875;-0.1553955078125;4.79999998788116;481;100 mA
53.5451628648115;-0.79925537109375;-0.154998779296875;4.80999998785592;482;100 mA
53.5551628647862;-0.799560546875;-0.15521240234375;4.81999998783067;483;100 mA
53.565162864761;-0.8001708984375;-0.15478515625;4.82999998780542;484;100 mA
53.5751628647357;-0.79986572265625;-0.15576171875;4.83999998778017;485;100 mA
53.5851628647105;-0.799560546875;-0.154815673828125;4.84999998775493;486;100 mA
53.5951628646852;-0.79925537109375;-0.155059814453125;4.85999998772968;487;100 mA
53.60516286466;-0.799560546875;-0.154571533203125;4.86999998770443;488;100 mA
53.6151628646347;-0.79925537109375;-0.156341552734375;4.87999998767918;489;100 mA
53.6251628646095;-0.79986572265625;-0.1552734375;4.88999998765394;490;100 mA
53.6351628645842;-0.79925537109375;-0.155059814453125;4.89999998762869;491;100 mA
53.645162864559;-0.799560546875;-0.15374755859375;4.90999998760344;492;100 mA
53.6551628645337;-0.799560546875;-0.152618408203125;4.91999998757819;493;100 mA
53.6651628645085;-0.799560546875;-0.152130126953125;4.92999998755295;494;100 mA
53.6751628644832;-0.79986572265625;-0.152587890625;4.9399999875277;495;100 mA
53.685162864458;-0.79925537109375;-0.153289794921875;4.94999998750245;496;100 mA
53.6951628644327;-0.799560546875;-0.153564453125;4.9599999874772;497;100 mA
53.7051628644075;-0.79925537109375;-0.15350341796875;4.96999998745196;498;100 mA
53.7151628643823;-0.799560546875;-0.152923583984375;4.97999998742671;499;100 mA
53.725162864357;-0.79925537109375;-0.154083251953125;4.98999998740146;500;100 mA
53.7351628643318;-0.799560546875;-0.154693603515625;4.99999998737621;501;100 mA
53.7451628643065;-0.79925537109375;-0.15472412109375;5.00999998735097;502;100 mA
53.7551628642813;-0.79925537109375;-0.15362548828125;5.01999998732572;503;100 mA
53.765162864256;-0.79925537109375;-0.1534423828125;5.02999998730047;504;100 mA
53.7751628642308;-0.79925537109375;-0.15234375;5.03999998727522;505;100 mA
53.7851628642055;-0.799560546875;-0.15283203125;5.04999998724998;506;100 mA
53.7951628641803;-0.799560546875;-0.1519775390625;5.05999998722473;507;100 mA
53.805162864155;-0.79986572265625;-0.152099609375;5.06999998719948;508;100 mA
53.8151628641298;-0.799560546875;-0.1524658203125;5.07999998717423;509;100 mA
53.8251628641045;-0.79986572265625;-0.151123046875;5.08999998714899;510;100 mA
53.8351628640793;-0.7989501953125;-0.151123046875;5.09999998712374;511;100 mA
53.845162864054;-0.79986572265625;-0.149688720703125;5.10999998709849;512;100 mA
53.8551628640288;-0.799560546875;-0.151123046875;5.11999998707324;513;100 mA
53.8651628640035;-0.799560546875;-0.150115966796875;5.129999987048;514;100 mA
53.8751628639783;-0.79925537109375;-0.15118408203125;5.13999998702275;515;100 mA
53.885162863953;-0.79925537109375;-0.151824951171875;5.1499999869975;516;100 mA
53.8951628639278;-0.79925537109375;-0.151885986328125;5.15999998697225;517;100 mA
53.9051628639025;-0.799560546875;-0.151123046875;5.169999986947;518;100 mA
53.9151628638773;-0.7989501953125;-0.15008544921875;5.17999998692176;519;100 mA
53.9251628638521;-0.79925537109375;-0.1497802734375;5.18999998689651;520;100 mA
53.9351628638268;-0.799560546875;-0.14947509765625;5.19999998687126;521;100 mA
53.9451628638016;-0.79925537109375;-0.15045166015625;5.20999998684601;522;100 mA
53.9551628637763;-0.79925537109375;-0.151031494140625;5.21999998682077;523;100 mA
53.9651628637511;-0.79925537109375;-0.15142822265625;5.22999998679552;524;100 mA
53.9751628637258;-0.79986572265625;-0.149810791015625;5.23999998677027;525;100 mA
53.9851628637006;-0.799560546875;-0.150543212890625;5.24999998674502;526;100 mA
53.9951628636753;-0.799560546875;-0.15081787109375;5.25999998671978;527;100 mA
54.0051628636501;-0.79925537109375;-0.151611328125;5.26999998669453;528;100 mA
54.0151628636248;-0.79925537109375;-0.151580810546875;5.27999998666928;529;100 mA
54.0251628635996;-0.79986572265625;-0.151824951171875;5.28999998664403;530;100 mA
54.0351628635743;-0.8001708984375;-0.151336669921875;5.29999998661879;531;100 mA
54.0451628635491;-0.799560546875;-0.150482177734375;5.30999998659354;532;100 mA
54.0551628635238;-0.799560546875;-0.1513671875;5.31999998656829;533;100 mA
54.0651628634986;-0.799560546875;-0.1500244140625;5.32999998654304;534;100 mA
54.0751628634733;-0.79986572265625;-0.15155029296875;5.3399999865178;535;100 mA
54.0851628634481;-0.7989501953125;-0.15130615234375;5.34999998649255;536;100 mA
54.0951628634228;-0.79986572265625;-0.152069091796875;5.3599999864673;537;100 mA
54.1051628633976;-0.79925537109375;-0.150970458984375;5.36999998644205;538;100 mA
54.1151628633723;-0.79986572265625;-0.1522216796875;5.37999998641681;539;100 mA
54.1251628633471;-0.799560546875;-0.152069091796875;5.38999998639156;540;100 mA
54.1351628633219;-0.799560546875;-0.15179443359375;5.39999998636631;541;100 mA
54.1451628632966;-0.799560546875;-0.150543212890625;5.40999998634106;542;100 mA
54.1551628632714;-0.79925537109375;-0.150360107421875;5.41999998631582;543;100 mA
54.1651628632461;-0.799560546875;-0.150848388671875;5.42999998629057;544;100 mA
54.1751628632209;-0.79986572265625;-0.150054931640625;5.43999998626532;545;100 mA
54.1851628631956;-0.799560546875;-0.150054931640625;5.44999998624007;546;100 mA
54.1951628631704;-0.79925537109375;-0.149566650390625;5.45999998621483;547;100 mA
54.2051628631451;-0.7989501953125;-0.15081787109375;5.46999998618958;548;100 mA
54.2151628631199;-0.79925537109375;-0.14923095703125;5.47999998616433;549;100 mA
54.2251628630946;-0.79986572265625;-0.150146484375;5.48999998613908;550;100 mA
54.2351628630694;-0.799560546875;-0.15008544921875;5.49999998611383;551;100 mA
54.2451628630441;-0.799560546875;-0.1514892578125;5.50999998608859;552;100 mA
54.2551628630189;-0.799560546875;-0.150970458984375;5.51999998606334;553;100 mA
54.2651628629936;-0.799560546875;-0.15069580078125;5.52999998603809;554;100 mA
54.2751628629684;-0.79986572265625;-0.15191650390625;5.53999998601284;555;100 mA
54.2851628629431;-0.799560546875;-0.15142822265625;5.5499999859876;556;100 mA
54.2951628629179;-0.799560546875;-0.15203857421875;5.55999998596235;557;100 mA
54.3051628628926;-0.799560546875;-0.150665283203125;5.5699999859371;558;100 mA
54.3151628628674;-0.799560546875;-0.150360107421875;5.57999998591185;559;100 mA
54.3251628628421;-0.79925537109375;-0.14971923828125;5.58999998588661;560;100 mA
54.3351628628169;-0.799560546875;-0.149566650390625;5.59999998586136;561;100 mA
54.3451628627917;-0.79925537109375;-0.149566650390625;5.60999998583611;562;100 mA
54.3551628627664;-0.799560546875;-0.15106201171875;5.61999998581086;563;100 mA
54.3651628627412;-0.799560546875;-0.149139404296875;5.62999998578562;564;100 mA
54.3751628627159;-0.799560546875;-0.14947509765625;5.63999998576037;565;100 mA
54.3851628626907;-0.79986572265625;-0.1502685546875;5.64999998573512;566;100 mA
54.3951628626654;-0.799560546875;-0.14996337890625;5.65999998570987;567;100 mA
54.4051628626402;-0.79925537109375;-0.150177001953125;5.66999998568463;568;100 mA
54.4151628626149;-0.7989501953125;-0.14923095703125;5.67999998565938;569;100 mA
54.4251628625897;-0.79986572265625;-0.150390625;5.68999998563413;570;100 mA
54.4351628625644;-0.79986572265625;-0.149322509765625;5.69999998560888;571;100 mA
54.4451628625392;-0.7989501953125;-0.15020751953125;5.70999998558364;572;100 mA
54.4551628625139;-0.799560546875;-0.149810791015625;5.71999998555839;573;100 mA
54.4651628624887;-0.799560546875;-0.150787353515625;5.72999998553314;574;100 mA
54.4751628624634;-0.799560546875;-0.150390625;5.73999998550789;575;100 mA
54.4851628624382;-0.79986572265625;-0.15069580078125;5.74999998548265;576;100 mA
54.4951628624129;-0.79986572265625;-0.14971923828125;5.7599999854574;577;100 mA
54.5051628623877;-0.7989501953125;-0.150482177734375;5.76999998543215;578;100 mA
54.5151628623624;-0.799560546875;-0.150421142578125;5.7799999854069;579;100 mA
54.5251628623372;-0.799560546875;-0.14996337890625;5.78999998538166;580;100 mA
54.5351628623119;-0.79925537109375;-0.149627685546875;5.79999998535641;581;100 mA
54.5451628622867;-0.799560546875;-0.148681640625;5.80999998533116;582;100 mA
54.5551628622615;-0.79925537109375;-0.149322509765625;5.81999998530591;583;100 mA
54.5651628622362;-0.79925537109375;-0.14849853515625;5.82999998528066;584;100 mA
54.575162862211;-0.79925537109375;-0.14898681640625;5.83999998525542;585;100 mA
54.5851628621857;-0.79986572265625;-0.148345947265625;5.84999998523017;586;100 mA
54.5951628621605;-0.79986572265625;-0.1490478515625;5.85999998520492;587;100 mA
54.6051628621352;-0.799560546875;-0.148712158203125;5.86999998517967;588;100 mA
54.61516286211;-0.79986572265625;-0.14886474609375;5.87999998515443;589;100 mA
54.6251628620847;-0.79925537109375;-0.14825439453125;5.88999998512918;590;100 mA
54.6351628620595;-0.79925537109375;-0.148223876953125;5.89999998510393;591;100 mA
54.6451628620342;-0.79925537109375;-0.149627685546875;5.90999998507868;592;100 mA
54.655162862009;-0.799560546875;-0.149383544921875;5.91999998505344;593;100 mA
54.6651628619837;-0.799560546875;-0.150177001953125;5.92999998502819;594;100 mA
54.6751628619585;-0.799560546875;-0.14892578125;5.93999998500294;595;100 mA
54.6851628619332;-0.79925537109375;-0.14935302734375;5.94999998497769;596;100 mA
54.695162861908;-0.799560546875;-0.1474609375;5.95999998495245;597;100 mA
54.7051628618827;-0.7989501953125;-0.148101806640625;5.9699999849272;598;100 mA
54.7151628618575;-0.799560546875;-0.14739990234375;5.97999998490195;599;100 mA
54.7251628618322;-0.799560546875;-0.147308349609375;5.9899999848767;600;100 mA
54.735162861807;-0.79986572265625;-0.148773193359375;5.99999998485146;601;100 mA
54.7451628617818;-0.79925537109375;-0.149383544921875;6.00999998482621;602;100 mA
54.7551628617565;-0.799560546875;-0.1494140625;6.01999998480096;603;100 mA
54.7651628617313;-0.79925537109375;-0.148895263671875;6.02999998477571;604;100 mA
54.775162861706;-0.79925537109375;-0.1478271484375;6.03999998475047;605;100 mA
54.7851628616808;-0.799560546875;-0.1474609375;6.04999998472522;606;100 mA
54.7951628616555;-0.79925537109375;-0.14813232421875;6.05999998469997;607;100 mA
54.8051628616303;-0.79925537109375;-0.147735595703125;6.06999998467472;608;100 mA
54.815162861605;-0.79925537109375;-0.14971923828125;6.07999998464948;609;100 mA
54.8251628615798;-0.79925537109375;-0.14898681640625;6.08999998462423;610;100 mA
54.8351628615545;-0.79986572265625;-0.14996337890625;6.09999998459898;611;100 mA
54.8451628615293;-0.799560546875;-0.149169921875;6.10999998457373;612;100 mA
54.855162861504;-0.799560546875;-0.149932861328125;6.11999998454849;613;100 mA
54.8651628614788;-0.799560546875;-0.150238037109375;6.12999998452324;614;100 mA
54.8751628614535;-0.799560546875;-0.1505126953125;6.13999998449799;615;100 mA
54.8851628614283;-0.799560546875;-0.150665283203125;6.14999998447274;616;100 mA
54.895162861403;-0.79986572265625;-0.149688720703125;6.1599999844475;617;100 mA
54.9051628613778;-0.79925537109375;-0.1507568359375;6.16999998442225;618;100 mA
54.9151628613525;-0.799560546875;-0.150299072265625;6.179999984397;619;100 mA
54.9251628613273;-0.799560546875;-0.15045166015625;6.18999998437175;620;100 mA
54.935162861302;-0.8001708984375;-0.149169921875;6.1999999843465;621;100 mA
54.9451628612768;-0.799560546875;-0.149139404296875;6.20999998432126;622;100 mA
54.9551628612516;-0.79986572265625;-0.14764404296875;6.21999998429601;623;100 mA
54.9651628612263;-0.799560546875;-0.1483154296875;6.22999998427076;624;100 mA
54.9751628612011;-0.799560546875;-0.14849853515625;6.23999998424551;625;100 mA
54.9851628611758;-0.7989501953125;-0.1484375;6.24999998422027;626;100 mA
54.9951628611506;-0.79986572265625;-0.149200439453125;6.25999998419502;627;100 mA
55.0051628611253;-0.79925537109375;-0.14849853515625;6.26999998416977;628;100 mA
55.0151628611001;-0.79986572265625;-0.1495361328125;6.27999998414452;629;100 mA
55.0251628610748;-0.79925537109375;-0.14874267578125;6.28999998411928;630;100 mA
55.0351628610496;-0.79925537109375;-0.150299072265625;6.29999998409403;631;100 mA
55.0451628610243;-0.799560546875;-0.149688720703125;6.30999998406878;632;100 mA
55.0551628609991;-0.79986572265625;-0.151031494140625;6.31999998404353;633;100 mA
55.0651628609738;-0.799560546875;-0.1497802734375;6.32999998401829;634;100 mA
55.0751628609486;-0.79925537109375;-0.150909423828125;6.33999998399304;635;100 mA
55.0851628609233;-0.79986572265625;-0.14892578125;6.34999998396779;636;100 mA
55.0951628608981;-0.79925537109375;-0.149627685546875;6.35999998394254;637;100 mA
55.1051628608728;-0.799560546875;-0.14813232421875;6.3699999839173;638;100 mA
55.1151628608476;-0.799560546875;-0.1483154296875;6.37999998389205;639;100 mA
55.1251628608223;-0.799560546875;-0.148345947265625;6.3899999838668;640;100 mA
55.1351628607971;-0.799560546875;-0.14801025390625;6.39999998384155;641;100 mA
55.1451628607718;-0.79986572265625;-0.14776611328125;6.40999998381631;642;100 mA
55.1551628607466;-0.79925537109375;-0.147003173828125;6.41999998379106;643;100 mA
55.1651628607214;-0.799560546875;-0.147674560546875;6.42999998376581;644;100 mA
55.1751628606961;-0.7989501953125;-0.148284912109375;6.43999998374056;645;100 mA
55.1851628606709;-0.799560546875;-0.148223876953125;6.44999998371532;646;100 mA
55.1951628606456;-0.799560546875;-0.1480712890625;6.45999998369007;647;100 mA
55.2051628606204;-0.79925537109375;-0.1484375;6.46999998366482;648;100 mA
55.2151628605951;-0.799560546875;-0.147979736328125;6.47999998363957;649;100 mA
55.2251628605699;-0.799560546875;-0.148590087890625;6.48999998361433;650;100 mA
55.2351628605446;-0.799560546875;-0.14691162109375;6.49999998358908;651;100 mA
55.2451628605194;-0.799560546875;-0.147216796875;6.50999998356383;652;100 mA
55.2551628604941;-0.79986572265625;-0.146209716796875;6.51999998353858;653;100 mA
55.2651628604689;-0.799560546875;-0.146881103515625;6.52999998351333;654;100 mA
55.2751628604436;-0.79986572265625;-0.146484375;6.53999998348809;655;100 mA
55.2851628604184;-0.799560546875;-0.145263671875;6.54999998346284;656;100 mA
55.2951628603931;-0.79986572265625;-0.146026611328125;6.55999998343759;657;100 mA
55.3051628603679;-0.79986572265625;-0.145477294921875;6.56999998341234;658;100 mA
55.3151628603426;-0.799560546875;-0.14599609375;6.5799999833871;659;100 mA
55.3251628603174;-0.799560546875;-0.147491455078125;6.58999998336185;660;100 mA
55.3351628602921;-0.79986572265625;-0.147674560546875;6.5999999833366;661;100 mA
55.3451628602669;-0.799560546875;-0.14642333984375;6.60999998331135;662;100 mA
55.3551628602416;-0.799560546875;-0.1461181640625;6.61999998328611;663;100 mA
55.3651628602164;-0.799560546875;-0.146240234375;6.62999998326086;664;100 mA
55.3751628601912;-0.799560546875;-0.14678955078125;6.63999998323561;665;100 mA
55.3851628601659;-0.7989501953125;-0.146270751953125;6.64999998321036;666;100 mA
55.3951628601407;-0.79925537109375;-0.14556884765625;6.65999998318512;667;100 mA
55.4051628601154;-0.799560546875;-0.14642333984375;6.66999998315987;668;100 mA
55.4151628600902;-0.79925537109375;-0.14569091796875;6.67999998313462;669;100 mA
55.4251628600649;-0.799560546875;-0.14697265625;6.68999998310937;670;100 mA
55.4351628600397;-0.79986572265625;-0.146728515625;6.69999998308413;671;100 mA
55.4451628600144;-0.79925537109375;-0.147857666015625;6.70999998305888;672;100 mA
55.4551628599892;-0.79925537109375;-0.147369384765625;6.71999998303363;673;100 mA
55.4651628599639;-0.79925537109375;-0.147552490234375;6.72999998300838;674;100 mA
55.4751628599387;-0.79925537109375;-0.148101806640625;6.73999998298314;675;100 mA
55.4851628599134;-0.799560546875;-0.148193359375;6.74999998295789;676;100 mA
55.4951628598882;-0.79925537109375;-0.1475830078125;6.75999998293264;677;100 mA
55.5051628598629;-0.79986572265625;-0.14752197265625;6.76999998290739;678;100 mA
55.5151628598377;-0.79986572265625;-0.147491455078125;6.77999998288215;679;100 mA
55.5251628598124;-0.799560546875;-0.148193359375;6.7899999828569;680;100 mA
55.5351628597872;-0.799560546875;-0.148040771484375;6.79999998283165;681;100 mA
55.5451628597619;-0.79986572265625;-0.147430419921875;6.8099999828064;682;100 mA
55.5551628597367;-0.8001708984375;-0.148040771484375;6.81999998278116;683;100 mA
55.5651628597114;-0.799560546875;-0.14794921875;6.82999998275591;684;100 mA
55.5751628596862;-0.79925537109375;-0.147552490234375;6.83999998273066;685;100 mA
55.585162859661;-0.799560546875;-0.147735595703125;6.84999998270541;686;100 mA
55.5951628596357;-0.79925537109375;-0.147979736328125;6.85999998268016;687;100 mA
55.6051628596105;-0.799560546875;-0.147674560546875;6.86999998265492;688;100 mA
55.6151628595852;-0.8001708984375;-0.14678955078125;6.87999998262967;689;100 mA
55.62516285956;-0.79925537109375;-0.147003173828125;6.88999998260442;690;100 mA
55.6351628595347;-0.799560546875;-0.14837646484375;6.89999998257917;691;100 mA
55.6451628595095;-0.79986572265625;-0.148468017578125;6.90999998255393;692;100 mA
55.6551628594842;-0.799560546875;-0.14813232421875;6.91999998252868;693;100 mA
55.665162859459;-0.79925537109375;-0.148712158203125;6.92999998250343;694;100 mA
55.6751628594337;-0.79986572265625;-0.14788818359375;6.93999998247818;695;100 mA
55.6851628594085;-0.799560546875;-0.148406982421875;6.94999998245294;696;100 mA
55.6951628593832;-0.799560546875;-0.14715576171875;6.95999998242769;697;100 mA
55.705162859358;-0.799560546875;-0.14739990234375;6.96999998240244;698;100 mA
55.7151628593327;-0.79925537109375;-0.148223876953125;6.97999998237719;699;100 mA
55.7251628593075;-0.799560546875;-0.148101806640625;6.98999998235195;700;100 mA
