Time (s);WE(1).Potential (V);WE(1).Current (A);Corrected time (s);Index;Current range
71.5597008193291;-0.9002685546875;-0.335693359375;0;1;100 mA
71.5697008193039;-0.899658203125;-0.266326904296875;0.00999999997475243;2;100 mA
71.5797008192786;-0.89935302734375;-0.23388671875;0.0199999999495049;3;100 mA
71.5897008192534;-0.89935302734375;-0.220428466796875;0.0299999999242573;4;100 mA
71.5997008192281;-0.89996337890625;-0.210693359375;0.0399999998990097;5;100 mA
71.6097008192029;-0.899658203125;-0.203216552734375;0.0499999998737621;6;100 mA
71.6197008191776;-0.899658203125;-0.20269775390625;0.0599999998485146;7;100 mA
71.6297008191524;-0.899658203125;-0.19677734375;0.069999999823267;8;100 mA
71.6397008191271;-0.899658203125;-0.197540283203125;0.0799999997980194;9;100 mA
71.6497008191019;-0.89996337890625;-0.193878173828125;0.0899999997727718;10;100 mA
71.6597008190766;-0.899658203125;-0.196044921875;0.0999999997475243;11;100 mA
71.6697008190514;-0.89935302734375;-0.192657470703125;0.109999999722277;12;100 mA
71.6797008190262;-0.899658203125;-0.1956787109375;0.119999999697029;13;100 mA
71.6897008190009;-0.89996337890625;-0.193939208984375;0.129999999671782;14;100 mA
71.6997008189757;-0.8990478515625;-0.194000244140625;0.139999999646534;15;100 mA
71.7097008189504;-0.899658203125;-0.19415283203125;0.149999999621286;16;100 mA
71.7197008189252;-0.8990478515625;-0.19415283203125;0.159999999596039;17;100 mA
71.7297008188999;-0.89935302734375;-0.19171142578125;0.169999999570791;18;100 mA
71.7397008188747;-0.899658203125;-0.190185546875;0.179999999545544;19;100 mA
71.7497008188494;-0.89935302734375;-0.189483642578125;0.189999999520296;20;100 mA
71.7597008188242;-0.89935302734375;-0.1873779296875;0.199999999495049;21;100 mA
71.7697008187989;-0.89996337890625;-0.189971923828125;0.209999999469801;22;100 mA
71.7797008187737;-0.899658203125;-0.185150146484375;0.219999999444553;23;100 mA
71.7897008187484;-0.89935302734375;-0.188323974609375;0.229999999419306;24;100 mA
71.7997008187232;-0.8990478515625;-0.185882568359375;0.239999999394058;25;100 mA
71.8097008186979;-0.899658203125;-0.188201904296875;0.249999999368811;26;100 mA
71.8197008186727;-0.8990478515625;-0.187957763671875;0.259999999343563;27;100 mA
71.8297008186474;-0.89996337890625;-0.1881103515625;0.269999999318316;28;100 mA
71.8397008186222;-0.8990478515625;-0.1876220703125;0.279999999293068;29;100 mA
71.8497008185969;-0.9002685546875;-0.18731689453125;0.28999999926782;30;100 mA
71.8597008185717;-0.899658203125;-0.190155029296875;0.299999999242573;31;100 mA
71.8697008185464;-0.89935302734375;-0.187957763671875;0.309999999217325;32;100 mA
71.8797008185212;-0.89935302734375;-0.189788818359375;0.319999999192078;33;100 mA
71.889700818496;-0.899658203125;-0.185943603515625;0.32999999916683;34;100 mA
71.8997008184707;-0.899658203125;-0.1898193359375;0.339999999141583;35;100 mA
71.9097008184455;-0.899658203125;-0.185943603515625;0.349999999116335;36;100 mA
71.9197008184202;-0.89996337890625;-0.18890380859375;0.359999999091087;37;100 mA
71.929700818395;-0.89935302734375;-0.1875;0.36999999906584;38;100 mA
71.9397008183697;-0.8990478515625;-0.188262939453125;0.379999999040592;39;100 mA
71.9497008183445;-0.89996337890625;-0.190765380859375;0.389999999015345;40;100 mA
71.9597008183192;-0.89935302734375;-0.188140869140625;0.399999998990097;41;100 mA
71.969700818294;-0.89935302734375;-0.18963623046875;0.40999999896485;42;100 mA
71.9797008182687;-0.899658203125;-0.18841552734375;0.419999998939602;43;100 mA
71.9897008182435;-0.8990478515625;-0.188446044921875;0.429999998914354;44;100 mA
71.9997008182182;-0.899658203125;-0.186859130859375;0.439999998889107;45;100 mA
72.009700818193;-0.8990478515625;-0.18707275390625;0.449999998863859;46;100 mA
72.0197008181677;-0.899658203125;-0.184967041015625;0.459999998838612;47;100 mA
72.0297008181425;-0.89996337890625;-0.187744140625;0.469999998813364;48;100 mA
72.0397008181172;-0.899658203125;-0.1881103515625;0.479999998788116;49;100 mA
72.049700818092;-0.8990478515625;-0.18994140625;0.489999998762869;50;100 mA
72.0597008180667;-0.8990478515625;-0.18878173828125;0.499999998737621;51;100 mA
72.0697008180415;-0.89935302734375;-0.187225341796875;0.509999998712374;52;100 mA
72.0797008180162;-0.8990478515625;-0.188629150390625;0.519999998687126;53;100 mA
72.089700817991;-0.89935302734375;-0.186767578125;0.529999998661879;54;100 mA
72.0997008179658;-0.899658203125;-0.186431884765625;0.539999998636631;55;100 mA
72.1097008179405;-0.899658203125;-0.186370849609375;0.549999998611383;56;100 mA
72.1197008179153;-0.8990478515625;-0.186920166015625;0.559999998586136;57;100 mA
72.12970081789;-0.89935302734375;-0.1876220703125;0.569999998560888;58;100 mA
72.1397008178648;-0.899658203125;-0.19024658203125;0.579999998535641;59;100 mA
72.1497008178395;-0.899658203125;-0.186859130859375;0.589999998510393;60;100 mA
72.1597008178143;-0.89935302734375;-0.189056396484375;0.599999998485146;61;100 mA
72.169700817789;-0.899658203125;-0.187286376953125;0.609999998459898;62;100 mA
72.1797008177638;-0.899658203125;-0.184783935546875;0.61999999843465;63;100 mA
72.1897008177385;-0.899658203125;-0.185821533203125;0.629999998409403;64;100 mA
72.1997008177133;-0.89935302734375;-0.18634033203125;0.639999998384155;65;100 mA
72.209700817688;-0.89996337890625;-0.187774658203125;0.649999998358908;66;100 mA
72.2197008176628;-0.89935302734375;-0.1849365234375;0.65999999833366;67;100 mA
72.2297008176375;-0.89935302734375;-0.188446044921875;0.669999998308413;68;100 mA
72.2397008176123;-0.8990478515625;-0.185943603515625;0.679999998283165;69;100 mA
72.249700817587;-0.8990478515625;-0.18511962890625;0.689999998257917;70;100 mA
72.2597008175618;-0.899658203125;-0.187286376953125;0.69999999823267;71;100 mA
72.2697008175365;-0.899658203125;-0.18792724609375;0.709999998207422;72;100 mA
72.2797008175113;-0.89935302734375;-0.18646240234375;0.719999998182175;73;100 mA
72.2897008174861;-0.89935302734375;-0.185638427734375;0.729999998156927;74;100 mA
72.2997008174608;-0.89935302734375;-0.18701171875;0.73999999813168;75;100 mA
72.3097008174356;-0.899658203125;-0.188934326171875;0.749999998106432;76;100 mA
72.3197008174103;-0.89935302734375;-0.1912841796875;0.759999998081184;77;100 mA
72.3297008173851;-0.89935302734375;-0.18743896484375;0.769999998055937;78;100 mA
72.3397008173598;-0.899658203125;-0.189666748046875;0.779999998030689;79;100 mA
72.3497008173346;-0.89996337890625;-0.187347412109375;0.789999998005442;80;100 mA
72.3597008173093;-0.89935302734375;-0.1878662109375;0.799999997980194;81;100 mA
72.3697008172841;-0.89935302734375;-0.186798095703125;0.809999997954947;82;100 mA
72.3797008172588;-0.89935302734375;-0.188079833984375;0.819999997929699;83;100 mA
72.3897008172336;-0.89996337890625;-0.1865234375;0.829999997904451;84;100 mA
72.3997008172083;-0.89935302734375;-0.18792724609375;0.839999997879204;85;100 mA
72.4097008171831;-0.89935302734375;-0.187744140625;0.849999997853956;86;100 mA
72.4197008171578;-0.899658203125;-0.18701171875;0.859999997828709;87;100 mA
72.4297008171326;-0.89935302734375;-0.186859130859375;0.869999997803461;88;100 mA
72.4397008171073;-0.89935302734375;-0.185150146484375;0.879999997778214;89;100 mA
72.4497008170821;-0.899658203125;-0.185455322265625;0.889999997752966;90;100 mA
72.4597008170568;-0.89935302734375;-0.1826171875;0.899999997727718;91;100 mA
72.4697008170316;-0.89935302734375;-0.185302734375;0.909999997702471;92;100 mA
72.4797008170063;-0.899658203125;-0.18438720703125;0.919999997677223;93;100 mA
72.4897008169811;-0.8990478515625;-0.184967041015625;0.929999997651976;94;100 mA
72.4997008169559;-0.89935302734375;-0.185150146484375;0.939999997626728;95;100 mA
72.5097008169306;-0.89935302734375;-0.18634033203125;0.949999997601481;96;100 mA
72.5197008169054;-0.89935302734375;-0.18701171875;0.959999997576233;97;100 mA
72.5297008168801;-0.89996337890625;-0.185821533203125;0.969999997550985;98;100 mA
72.5397008168549;-0.899658203125;-0.1845703125;0.979999997525738;99;100 mA
72.5497008168296;-0.899658203125;-0.186126708984375;0.98999999750049;100;100 mA
72.5597008168044;-0.8990478515625;-0.186492919921875;0.999999997475243;101;100 mA
72.5697008167791;-0.89996337890625;-0.18505859375;1.00999999745;102;100 mA
72.5797008167539;-0.89996337890625;-0.186676025390625;1.01999999742475;103;100 mA
72.5897008167286;-0.89935302734375;-0.18359375;1.0299999973995;104;100 mA
72.5997008167034;-0.8990478515625;-0.1868896484375;1.03999999737425;105;100 mA
72.6097008166781;-0.89996337890625;-0.184783935546875;1.049999997349;106;100 mA
72.6197008166529;-0.89935302734375;-0.1878662109375;1.05999999732376;107;100 mA
72.6297008166276;-0.89935302734375;-0.185394287109375;1.06999999729851;108;100 mA
72.6397008166024;-0.899658203125;-0.185821533203125;1.07999999727326;109;100 mA
72.6497008165771;-0.89996337890625;-0.187408447265625;1.08999999724801;110;100 mA
72.6597008165519;-0.899658203125;-0.18475341796875;1.09999999722277;111;100 mA
72.6697008165266;-0.8990478515625;-0.186065673828125;1.10999999719752;112;100 mA
72.6797008165014;-0.899658203125;-0.185211181640625;1.11999999717227;113;100 mA
72.6897008164761;-0.899658203125;-0.185455322265625;1.12999999714702;114;100 mA
72.6997008164509;-0.89935302734375;-0.185089111328125;1.13999999712178;115;100 mA
72.7097008164257;-0.89935302734375;-0.186737060546875;1.14999999709653;116;100 mA
72.7197008164004;-0.89996337890625;-0.18359375;1.15999999707128;117;100 mA
72.7297008163752;-0.89935302734375;-0.1822509765625;1.16999999704603;118;100 mA
72.7397008163499;-0.899658203125;-0.178924560546875;1.17999999702079;119;100 mA
72.7497008163247;-0.899658203125;-0.182281494140625;1.18999999699554;120;100 mA
72.7597008162994;-0.89996337890625;-0.182525634765625;1.19999999697029;121;100 mA
72.7697008162742;-0.89996337890625;-0.183380126953125;1.20999999694504;122;100 mA
72.7797008162489;-0.899658203125;-0.183868408203125;1.2199999969198;123;100 mA
72.7897008162237;-0.899658203125;-0.181915283203125;1.22999999689455;124;100 mA
72.7997008161984;-0.89935302734375;-0.183837890625;1.2399999968693;125;100 mA
72.8097008161732;-0.899658203125;-0.18115234375;1.24999999684405;126;100 mA
72.8197008161479;-0.899658203125;-0.182891845703125;1.25999999681881;127;100 mA
72.8297008161227;-0.899658203125;-0.182373046875;1.26999999679356;128;100 mA
72.8397008160974;-0.89935302734375;-0.183624267578125;1.27999999676831;129;100 mA
72.8497008160722;-0.8990478515625;-0.181915283203125;1.28999999674306;130;100 mA
72.8597008160469;-0.899658203125;-0.183868408203125;1.29999999671782;131;100 mA
72.8697008160217;-0.899658203125;-0.180328369140625;1.30999999669257;132;100 mA
72.8797008159964;-0.899658203125;-0.1805419921875;1.31999999666732;133;100 mA
72.8897008159712;-0.899658203125;-0.1798095703125;1.32999999664207;134;100 mA
72.8997008159459;-0.899658203125;-0.1806640625;1.33999999661683;135;100 mA
72.9097008159207;-0.89935302734375;-0.181488037109375;1.34999999659158;136;100 mA
72.9197008158955;-0.89935302734375;-0.179534912109375;1.35999999656633;137;100 mA
72.9297008158702;-0.899658203125;-0.182037353515625;1.36999999654108;138;100 mA
72.939700815845;-0.89874267578125;-0.1812744140625;1.37999999651583;139;100 mA
72.9497008158197;-0.89935302734375;-0.1834716796875;1.38999999649059;140;100 mA
72.9597008157945;-0.89996337890625;-0.17950439453125;1.39999999646534;141;100 mA
72.9697008157692;-0.89935302734375;-0.1783447265625;1.40999999644009;142;100 mA
72.979700815744;-0.89996337890625;-0.17559814453125;1.41999999641484;143;100 mA
72.9897008157187;-0.89935302734375;-0.17913818359375;1.4299999963896;144;100 mA
72.9997008156935;-0.89935302734375;-0.17822265625;1.43999999636435;145;100 mA
73.0097008156682;-0.899658203125;-0.179779052734375;1.4499999963391;146;100 mA
73.019700815643;-0.89935302734375;-0.18157958984375;1.45999999631385;147;100 mA
73.0297008156177;-0.899658203125;-0.180023193359375;1.46999999628861;148;100 mA
73.0397008155925;-0.89935302734375;-0.1810302734375;1.47999999626336;149;100 mA
73.0497008155672;-0.899658203125;-0.178375244140625;1.48999999623811;150;100 mA
73.059700815542;-0.89935302734375;-0.181396484375;1.49999999621286;151;100 mA
73.0697008155167;-0.89996337890625;-0.18011474609375;1.50999999618762;152;100 mA
73.0797008154915;-0.89996337890625;-0.18231201171875;1.51999999616237;153;100 mA
73.0897008154662;-0.899658203125;-0.180938720703125;1.52999999613712;154;100 mA
73.099700815441;-0.899658203125;-0.18145751953125;1.53999999611187;155;100 mA
73.1097008154157;-0.89996337890625;-0.178924560546875;1.54999999608663;156;100 mA
73.1197008153905;-0.89935302734375;-0.180633544921875;1.55999999606138;157;100 mA
73.1297008153653;-0.89935302734375;-0.18145751953125;1.56999999603613;158;100 mA
73.13970081534;-0.8990478515625;-0.180755615234375;1.57999999601088;159;100 mA
73.1497008153148;-0.899658203125;-0.18170166015625;1.58999999598564;160;100 mA
73.1597008152895;-0.89935302734375;-0.17999267578125;1.59999999596039;161;100 mA
73.1697008152643;-0.899658203125;-0.1817626953125;1.60999999593514;162;100 mA
73.179700815239;-0.89935302734375;-0.17822265625;1.61999999590989;163;100 mA
73.1897008152138;-0.89935302734375;-0.18212890625;1.62999999588465;164;100 mA
73.1997008151885;-0.8990478515625;-0.18414306640625;1.6399999958594;165;100 mA
73.2097008151633;-0.899658203125;-0.183929443359375;1.64999999583415;166;100 mA
73.219700815138;-0.89935302734375;-0.181121826171875;1.6599999958089;167;100 mA
73.2297008151128;-0.899658203125;-0.182373046875;1.66999999578366;168;100 mA
73.2397008150875;-0.89935302734375;-0.181304931640625;1.67999999575841;169;100 mA
73.2497008150623;-0.89935302734375;-0.177734375;1.68999999573316;170;100 mA
73.259700815037;-0.89935302734375;-0.1788330078125;1.69999999570791;171;100 mA
73.2697008150118;-0.8990478515625;-0.18017578125;1.70999999568267;172;100 mA
73.2797008149865;-0.899658203125;-0.180511474609375;1.71999999565742;173;100 mA
73.2897008149613;-0.899658203125;-0.179962158203125;1.72999999563217;174;100 mA
73.299700814936;-0.89996337890625;-0.180633544921875;1.73999999560692;175;100 mA
73.3097008149108;-0.89935302734375;-0.177642822265625;1.74999999558167;176;100 mA
73.3197008148856;-0.89935302734375;-0.179931640625;1.75999999555643;177;100 mA
73.3297008148603;-0.89935302734375;-0.181854248046875;1.76999999553118;178;100 mA
73.3397008148351;-0.899658203125;-0.182281494140625;1.77999999550593;179;100 mA
73.3497008148098;-0.8990478515625;-0.1796875;1.78999999548068;180;100 mA
73.3597008147846;-0.899658203125;-0.1781005859375;1.79999999545544;181;100 mA
73.3697008147593;-0.899658203125;-0.177642822265625;1.80999999543019;182;100 mA
73.3797008147341;-0.89996337890625;-0.1778564453125;1.81999999540494;183;100 mA
73.3897008147088;-0.899658203125;-0.18157958984375;1.82999999537969;184;100 mA
73.3997008146836;-0.89935302734375;-0.180999755859375;1.83999999535445;185;100 mA
73.4097008146583;-0.89996337890625;-0.1807861328125;1.8499999953292;186;100 mA
73.4197008146331;-0.89935302734375;-0.1798095703125;1.85999999530395;187;100 mA
73.4297008146078;-0.89935302734375;-0.18359375;1.8699999952787;188;100 mA
73.4397008145826;-0.899658203125;-0.179229736328125;1.87999999525346;189;100 mA
73.4497008145573;-0.899658203125;-0.180633544921875;1.88999999522821;190;100 mA
73.4597008145321;-0.899658203125;-0.178436279296875;1.89999999520296;191;100 mA
73.4697008145068;-0.89935302734375;-0.177764892578125;1.90999999517771;192;100 mA
73.4797008144816;-0.89935302734375;-0.17822265625;1.91999999515247;193;100 mA
73.4897008144563;-0.89935302734375;-0.177734375;1.92999999512722;194;100 mA
73.4997008144311;-0.899658203125;-0.178375244140625;1.93999999510197;195;100 mA
73.5097008144058;-0.8990478515625;-0.176788330078125;1.94999999507672;196;100 mA
73.5197008143806;-0.89996337890625;-0.17987060546875;1.95999999505148;197;100 mA
73.5297008143554;-0.89996337890625;-0.17852783203125;1.96999999502623;198;100 mA
73.5397008143301;-0.8990478515625;-0.180999755859375;1.97999999500098;199;100 mA
73.5497008143049;-0.899658203125;-0.179595947265625;1.98999999497573;200;100 mA
73.5597008142796;-0.899658203125;-0.18328857421875;1.99999999495049;201;100 mA
73.5697008142544;-0.89935302734375;-0.182952880859375;2.00999999492524;202;100 mA
73.5797008142291;-0.899658203125;-0.184295654296875;2.01999999489999;203;100 mA
73.5897008142039;-0.899658203125;-0.181793212890625;2.02999999487474;204;100 mA
73.5997008141786;-0.89935302734375;-0.180633544921875;2.0399999948495;205;100 mA
73.6097008141534;-0.89874267578125;-0.179901123046875;2.04999999482425;206;100 mA
73.6197008141281;-0.899658203125;-0.17962646484375;2.059999994799;207;100 mA
73.6297008141029;-0.8990478515625;-0.180908203125;2.06999999477375;208;100 mA
73.6397008140776;-0.899658203125;-0.1800537109375;2.0799999947485;209;100 mA
73.6497008140524;-0.89935302734375;-0.18060302734375;2.08999999472326;210;100 mA
73.6597008140271;-0.899658203125;-0.17822265625;2.09999999469801;211;100 mA
73.6697008140019;-0.89935302734375;-0.17926025390625;2.10999999467276;212;100 mA
73.6797008139766;-0.89996337890625;-0.176849365234375;2.11999999464751;213;100 mA
73.6897008139514;-0.899658203125;-0.178009033203125;2.12999999462227;214;100 mA
73.6997008139261;-0.8990478515625;-0.17626953125;2.13999999459702;215;100 mA
73.7097008139009;-0.89996337890625;-0.1783447265625;2.14999999457177;216;100 mA
73.7197008138756;-0.89935302734375;-0.1783447265625;2.15999999454652;217;100 mA
73.7297008138504;-0.899658203125;-0.179168701171875;2.16999999452128;218;100 mA
73.7397008138252;-0.89935302734375;-0.179595947265625;2.17999999449603;219;100 mA
73.7497008137999;-0.89996337890625;-0.17864990234375;2.18999999447078;220;100 mA
73.7597008137747;-0.89935302734375;-0.17962646484375;2.19999999444553;221;100 mA
73.7697008137494;-0.899658203125;-0.177947998046875;2.20999999442029;222;100 mA
73.7797008137242;-0.89935302734375;-0.17938232421875;2.21999999439504;223;100 mA
73.7897008136989;-0.899658203125;-0.1781005859375;2.22999999436979;224;100 mA
73.7997008136737;-0.899658203125;-0.177398681640625;2.23999999434454;225;100 mA
73.8097008136484;-0.899658203125;-0.17431640625;2.2499999943193;226;100 mA
73.8197008136232;-0.89935302734375;-0.175262451171875;2.25999999429405;227;100 mA
73.8297008135979;-0.89935302734375;-0.174468994140625;2.2699999942688;228;100 mA
73.8397008135727;-0.89935302734375;-0.1746826171875;2.27999999424355;229;100 mA
73.8497008135474;-0.89935302734375;-0.173370361328125;2.28999999421831;230;100 mA
73.8597008135222;-0.89935302734375;-0.173248291015625;2.29999999419306;231;100 mA
73.8697008134969;-0.89874267578125;-0.17626953125;2.30999999416781;232;100 mA
73.8797008134717;-0.89935302734375;-0.176544189453125;2.31999999414256;233;100 mA
73.8897008134464;-0.89996337890625;-0.177093505859375;2.32999999411732;234;100 mA
73.8997008134212;-0.899658203125;-0.175323486328125;2.33999999409207;235;100 mA
73.9097008133959;-0.899658203125;-0.175384521484375;2.34999999406682;236;100 mA
73.9197008133707;-0.89935302734375;-0.17254638671875;2.35999999404157;237;100 mA
73.9297008133454;-0.8990478515625;-0.174224853515625;2.36999999401633;238;100 mA
73.9397008133202;-0.89935302734375;-0.1732177734375;2.37999999399108;239;100 mA
73.949700813295;-0.89935302734375;-0.173828125;2.38999999396583;240;100 mA
73.9597008132697;-0.899658203125;-0.172576904296875;2.39999999394058;241;100 mA
73.9697008132445;-0.899658203125;-0.172760009765625;2.40999999391533;242;100 mA
73.9797008132192;-0.89996337890625;-0.17230224609375;2.41999999389009;243;100 mA
73.989700813194;-0.899658203125;-0.173736572265625;2.42999999386484;244;100 mA
73.9997008131687;-0.899658203125;-0.173797607421875;2.43999999383959;245;100 mA
74.0097008131435;-0.89935302734375;-0.1759033203125;2.44999999381434;246;100 mA
74.0197008131182;-0.8990478515625;-0.177154541015625;2.4599999937891;247;100 mA
74.029700813093;-0.899658203125;-0.175384521484375;2.46999999376385;248;100 mA
74.0397008130677;-0.89996337890625;-0.175323486328125;2.4799999937386;249;100 mA
74.0497008130425;-0.899658203125;-0.176177978515625;2.48999999371335;250;100 mA
74.0597008130172;-0.89935302734375;-0.177581787109375;2.49999999368811;251;100 mA
74.069700812992;-0.89935302734375;-0.175262451171875;2.50999999366286;252;100 mA
74.0797008129667;-0.89935302734375;-0.176422119140625;2.51999999363761;253;100 mA
74.0897008129415;-0.899658203125;-0.1767578125;2.52999999361236;254;100 mA
74.0997008129162;-0.89935302734375;-0.176727294921875;2.53999999358712;255;100 mA
74.109700812891;-0.899658203125;-0.175537109375;2.54999999356187;256;100 mA
74.1197008128657;-0.89996337890625;-0.176483154296875;2.55999999353662;257;100 mA
74.1297008128405;-0.8990478515625;-0.175079345703125;2.56999999351137;258;100 mA
74.1397008128152;-0.899658203125;-0.173553466796875;2.57999999348613;259;100 mA
74.14970081279;-0.89996337890625;-0.174041748046875;2.58999999346088;260;100 mA
74.1597008127648;-0.899658203125;-0.17437744140625;2.59999999343563;261;100 mA
74.1697008127395;-0.89935302734375;-0.17596435546875;2.60999999341038;262;100 mA
74.1797008127143;-0.899658203125;-0.17559814453125;2.61999999338514;263;100 mA
74.189700812689;-0.8990478515625;-0.175262451171875;2.62999999335989;264;100 mA
74.1997008126638;-0.89935302734375;-0.17364501953125;2.63999999333464;265;100 mA
74.2097008126385;-0.899658203125;-0.174163818359375;2.64999999330939;266;100 mA
74.2197008126133;-0.89935302734375;-0.174102783203125;2.65999999328415;267;100 mA
74.229700812588;-0.89935302734375;-0.17462158203125;2.6699999932589;268;100 mA
74.2397008125628;-0.8990478515625;-0.177276611328125;2.67999999323365;269;100 mA
74.2497008125375;-0.89935302734375;-0.175262451171875;2.6899999932084;270;100 mA
74.2597008125123;-0.899658203125;-0.17572021484375;2.69999999318316;271;100 mA
74.269700812487;-0.89935302734375;-0.174774169921875;2.70999999315791;272;100 mA
74.2797008124618;-0.89935302734375;-0.17510986328125;2.71999999313266;273;100 mA
74.2897008124365;-0.899658203125;-0.17401123046875;2.72999999310741;274;100 mA
74.2997008124113;-0.89935302734375;-0.173370361328125;2.73999999308217;275;100 mA
74.309700812386;-0.899658203125;-0.1724853515625;2.74999999305692;276;100 mA
74.3197008123608;-0.89935302734375;-0.173828125;2.75999999303167;277;100 mA
74.3297008123355;-0.89996337890625;-0.174713134765625;2.76999999300642;278;100 mA
74.3397008123103;-0.89935302734375;-0.174224853515625;2.77999999298117;279;100 mA
74.3497008122851;-0.89935302734375;-0.17205810546875;2.78999999295593;280;100 mA
74.3597008122598;-0.89996337890625;-0.172698974609375;2.79999999293068;281;100 mA
74.3697008122346;-0.89935302734375;-0.174224853515625;2.80999999290543;282;100 mA
74.3797008122093;-0.89874267578125;-0.17218017578125;2.81999999288018;283;100 mA
74.3897008121841;-0.899658203125;-0.17303466796875;2.82999999285494;284;100 mA
74.3997008121588;-0.899658203125;-0.172515869140625;2.83999999282969;285;100 mA
74.4097008121336;-0.89996337890625;-0.17236328125;2.84999999280444;286;100 mA
74.4197008121083;-0.899658203125;-0.1722412109375;2.85999999277919;287;100 mA
74.4297008120831;-0.89935302734375;-0.17169189453125;2.86999999275395;288;100 mA
74.4397008120578;-0.8990478515625;-0.173370361328125;2.8799999927287;289;100 mA
74.4497008120326;-0.89935302734375;-0.172943115234375;2.88999999270345;290;100 mA
74.4597008120073;-0.89996337890625;-0.171295166015625;2.8999999926782;291;100 mA
74.4697008119821;-0.899658203125;-0.171478271484375;2.90999999265296;292;100 mA
74.4797008119568;-0.8990478515625;-0.17071533203125;2.91999999262771;293;100 mA
74.4897008119316;-0.89935302734375;-0.170379638671875;2.92999999260246;294;100 mA
74.4997008119063;-0.89935302734375;-0.17034912109375;2.93999999257721;295;100 mA
74.5097008118811;-0.89935302734375;-0.170196533203125;2.94999999255197;296;100 mA
74.5197008118558;-0.89935302734375;-0.169097900390625;2.95999999252672;297;100 mA
74.5297008118306;-0.8990478515625;-0.16741943359375;2.96999999250147;298;100 mA
74.5397008118053;-0.89935302734375;-0.169158935546875;2.97999999247622;299;100 mA
74.5497008117801;-0.8990478515625;-0.16705322265625;2.98999999245098;300;100 mA
74.5597008117549;-0.899658203125;-0.167694091796875;2.99999999242573;301;100 mA
74.5697008117296;-0.899658203125;-0.168121337890625;3.00999999240048;302;100 mA
74.5797008117044;-0.89935302734375;-0.1680908203125;3.01999999237523;303;100 mA
74.5897008116791;-0.899658203125;-0.169342041015625;3.02999999234999;304;100 mA
74.5997008116539;-0.89935302734375;-0.1689453125;3.03999999232474;305;100 mA
74.6097008116286;-0.89935302734375;-0.16766357421875;3.04999999229949;306;100 mA
74.6197008116034;-0.899658203125;-0.16729736328125;3.05999999227424;307;100 mA
74.6297008115781;-0.89996337890625;-0.16949462890625;3.069999992249;308;100 mA
74.6397008115529;-0.8990478515625;-0.17041015625;3.07999999222375;309;100 mA
74.6497008115276;-0.89935302734375;-0.168914794921875;3.0899999921985;310;100 mA
74.6597008115024;-0.89996337890625;-0.168365478515625;3.09999999217325;311;100 mA
74.6697008114771;-0.89935302734375;-0.16754150390625;3.109999992148;312;100 mA
74.6797008114519;-0.89935302734375;-0.166778564453125;3.11999999212276;313;100 mA
74.6897008114266;-0.8990478515625;-0.167205810546875;3.12999999209751;314;100 mA
74.6997008114014;-0.89935302734375;-0.167510986328125;3.13999999207226;315;100 mA
74.7097008113761;-0.899658203125;-0.166839599609375;3.14999999204701;316;100 mA
74.7197008113509;-0.89935302734375;-0.165191650390625;3.15999999202177;317;100 mA
74.7297008113256;-0.89996337890625;-0.164703369140625;3.16999999199652;318;100 mA
74.7397008113004;-0.89996337890625;-0.166351318359375;3.17999999197127;319;100 mA
74.7497008112751;-0.89935302734375;-0.167327880859375;3.18999999194602;320;100 mA
74.7597008112499;-0.89935302734375;-0.167999267578125;3.19999999192078;321;100 mA
74.7697008112247;-0.89935302734375;-0.16583251953125;3.20999999189553;322;100 mA
74.7797008111994;-0.899658203125;-0.16650390625;3.21999999187028;323;100 mA
74.7897008111742;-0.89935302734375;-0.1666259765625;3.22999999184503;324;100 mA
74.7997008111489;-0.899658203125;-0.168304443359375;3.23999999181979;325;100 mA
74.8097008111237;-0.899658203125;-0.168212890625;3.24999999179454;326;100 mA
74.8197008110984;-0.899658203125;-0.16796875;3.25999999176929;327;100 mA
74.8297008110732;-0.89935302734375;-0.170013427734375;3.26999999174404;328;100 mA
74.8397008110479;-0.899658203125;-0.168212890625;3.2799999917188;329;100 mA
74.8497008110227;-0.899658203125;-0.170013427734375;3.28999999169355;330;100 mA
74.8597008109974;-0.899658203125;-0.16961669921875;3.2999999916683;331;100 mA
74.8697008109722;-0.89935302734375;-0.169952392578125;3.30999999164305;332;100 mA
74.8797008109469;-0.89935302734375;-0.169677734375;3.31999999161781;333;100 mA
74.8897008109217;-0.89996337890625;-0.17047119140625;3.32999999159256;334;100 mA
74.8997008108964;-0.8990478515625;-0.169677734375;3.33999999156731;335;100 mA
74.9097008108712;-0.899658203125;-0.17156982421875;3.34999999154206;336;100 mA
74.9197008108459;-0.899658203125;-0.17059326171875;3.35999999151682;337;100 mA
74.9297008108207;-0.899658203125;-0.1707763671875;3.36999999149157;338;100 mA
74.9397008107954;-0.89996337890625;-0.170654296875;3.37999999146632;339;100 mA
74.9497008107702;-0.899658203125;-0.170196533203125;3.38999999144107;340;100 mA
74.9597008107449;-0.899658203125;-0.171142578125;3.39999999141583;341;100 mA
74.9697008107197;-0.899658203125;-0.171142578125;3.40999999139058;342;100 mA
74.9797008106945;-0.899658203125;-0.1710205078125;3.41999999136533;343;100 mA
74.9897008106692;-0.89935302734375;-0.1700439453125;3.42999999134008;344;100 mA
74.999700810644;-0.89996337890625;-0.17095947265625;3.43999999131483;345;100 mA
75.0097008106187;-0.89935302734375;-0.1683349609375;3.44999999128959;346;100 mA
75.0197008105935;-0.899658203125;-0.169036865234375;3.45999999126434;347;100 mA
75.0297008105682;-0.89935302734375;-0.16876220703125;3.46999999123909;348;100 mA
75.039700810543;-0.89996337890625;-0.168060302734375;3.47999999121384;349;100 mA
75.0497008105177;-0.89996337890625;-0.1683349609375;3.4899999911886;350;100 mA
75.0597008104925;-0.89935302734375;-0.169219970703125;3.49999999116335;351;100 mA
75.0697008104672;-0.899658203125;-0.16851806640625;3.5099999911381;352;100 mA
75.079700810442;-0.899658203125;-0.168212890625;3.51999999111285;353;100 mA
75.0897008104167;-0.89935302734375;-0.168548583984375;3.52999999108761;354;100 mA
75.0997008103915;-0.899658203125;-0.16729736328125;3.53999999106236;355;100 mA
75.1097008103662;-0.89935302734375;-0.166900634765625;3.54999999103711;356;100 mA
75.119700810341;-0.899658203125;-0.16632080078125;3.55999999101186;357;100 mA
75.1297008103157;-0.899658203125;-0.166290283203125;3.56999999098662;358;100 mA
75.1397008102905;-0.89935302734375;-0.166595458984375;3.57999999096137;359;100 mA
75.1497008102652;-0.899658203125;-0.16656494140625;3.58999999093612;360;100 mA
75.15970081024;-0.899658203125;-0.165557861328125;3.59999999091087;361;100 mA
75.1697008102147;-0.899658203125;-0.164581298828125;3.60999999088563;362;100 mA
75.1797008101895;-0.899658203125;-0.163421630859375;3.61999999086038;363;100 mA
75.1897008101643;-0.899658203125;-0.16363525390625;3.62999999083513;364;100 mA
75.199700810139;-0.9002685546875;-0.163818359375;3.63999999080988;365;100 mA
75.2097008101138;-0.899658203125;-0.163726806640625;3.64999999078464;366;100 mA
75.2197008100885;-0.89935302734375;-0.163970947265625;3.65999999075939;367;100 mA
75.2297008100633;-0.89935302734375;-0.16400146484375;3.66999999073414;368;100 mA
75.239700810038;-0.89935302734375;-0.16351318359375;3.67999999070889;369;100 mA
75.2497008100128;-0.899658203125;-0.162872314453125;3.68999999068365;370;100 mA
75.2597008099875;-0.89935302734375;-0.163177490234375;3.6999999906584;371;100 mA
75.2697008099623;-0.89935302734375;-0.16400146484375;3.70999999063315;372;100 mA
75.279700809937;-0.89935302734375;-0.16436767578125;3.7199999906079;373;100 mA
75.2897008099118;-0.89935302734375;-0.164825439453125;3.72999999058266;374;100 mA
75.2997008098865;-0.89935302734375;-0.164031982421875;3.73999999055741;375;100 mA
75.3097008098613;-0.9002685546875;-0.165374755859375;3.74999999053216;376;100 mA
75.319700809836;-0.899658203125;-0.164886474609375;3.75999999050691;377;100 mA
75.3297008098108;-0.89935302734375;-0.165069580078125;3.76999999048167;378;100 mA
75.3397008097855;-0.89996337890625;-0.16448974609375;3.77999999045642;379;100 mA
75.3497008097603;-0.899658203125;-0.164306640625;3.78999999043117;380;100 mA
75.359700809735;-0.89996337890625;-0.165557861328125;3.79999999040592;381;100 mA
75.3697008097098;-0.89996337890625;-0.165374755859375;3.80999999038067;382;100 mA
75.3797008096846;-0.9002685546875;-0.1646728515625;3.81999999035543;383;100 mA
75.3897008096593;-0.899658203125;-0.165313720703125;3.82999999033018;384;100 mA
75.3997008096341;-0.899658203125;-0.16546630859375;3.83999999030493;385;100 mA
75.4097008096088;-0.899658203125;-0.164703369140625;3.84999999027968;386;100 mA
75.4197008095836;-0.89996337890625;-0.1634521484375;3.85999999025444;387;100 mA
75.4297008095583;-0.89935302734375;-0.162506103515625;3.86999999022919;388;100 mA
75.4397008095331;-0.89935302734375;-0.162261962890625;3.87999999020394;389;100 mA
75.4497008095078;-0.89935302734375;-0.161224365234375;3.88999999017869;390;100 mA
75.4597008094826;-0.899658203125;-0.16143798828125;3.89999999015345;391;100 mA
75.4697008094573;-0.899658203125;-0.161773681640625;3.9099999901282;392;100 mA
75.4797008094321;-0.89935302734375;-0.161346435546875;3.91999999010295;393;100 mA
75.4897008094068;-0.89935302734375;-0.161651611328125;3.9299999900777;394;100 mA
75.4997008093816;-0.899658203125;-0.16229248046875;3.93999999005246;395;100 mA
75.5097008093563;-0.89996337890625;-0.161956787109375;3.94999999002721;396;100 mA
75.5197008093311;-0.899658203125;-0.16351318359375;3.95999999000196;397;100 mA
75.5297008093058;-0.899658203125;-0.16412353515625;3.96999998997671;398;100 mA
75.5397008092806;-0.899658203125;-0.16339111328125;3.97999998995147;399;100 mA
75.5497008092553;-0.89935302734375;-0.163330078125;3.98999998992622;400;100 mA
75.5597008092301;-0.899658203125;-0.162994384765625;3.99999998990097;401;100 mA
75.5697008092048;-0.89935302734375;-0.16461181640625;4.00999998987572;402;100 mA
75.5797008091796;-0.8990478515625;-0.16510009765625;4.01999998985048;403;100 mA
75.5897008091544;-0.8990478515625;-0.1654052734375;4.02999998982523;404;100 mA
75.5997008091291;-0.899658203125;-0.166015625;4.03999998979998;405;100 mA
75.6097008091039;-0.89935302734375;-0.16717529296875;4.04999998977473;406;100 mA
75.6197008090786;-0.8990478515625;-0.166259765625;4.05999998974949;407;100 mA
75.6297008090534;-0.8990478515625;-0.167449951171875;4.06999998972424;408;100 mA
75.6397008090281;-0.89935302734375;-0.165924072265625;4.07999998969899;409;100 mA
75.6497008090029;-0.8990478515625;-0.1663818359375;4.08999998967374;410;100 mA
75.6597008089776;-0.9002685546875;-0.165771484375;4.0999999896485;411;100 mA
75.6697008089524;-0.899658203125;-0.16412353515625;4.10999998962325;412;100 mA
75.6797008089271;-0.8990478515625;-0.164459228515625;4.119999989598;413;100 mA
75.6897008089019;-0.89935302734375;-0.163299560546875;4.12999998957275;414;100 mA
75.6997008088766;-0.8990478515625;-0.163665771484375;4.1399999895475;415;100 mA
75.7097008088514;-0.8990478515625;-0.162628173828125;4.14999998952226;416;100 mA
75.7197008088261;-0.89935302734375;-0.164337158203125;4.15999998949701;417;100 mA
75.7297008088009;-0.89996337890625;-0.162322998046875;4.16999998947176;418;100 mA
75.7397008087756;-0.899658203125;-0.1634521484375;4.17999998944651;419;100 mA
75.7497008087504;-0.89935302734375;-0.1632080078125;4.18999998942127;420;100 mA
75.7597008087251;-0.8990478515625;-0.163787841796875;4.19999998939602;421;100 mA
75.7697008086999;-0.899658203125;-0.163238525390625;4.20999998937077;422;100 mA
75.7797008086746;-0.89935302734375;-0.16253662109375;4.21999998934552;423;100 mA
75.7897008086494;-0.89935302734375;-0.162750244140625;4.22999998932028;424;100 mA
75.7997008086242;-0.8990478515625;-0.16326904296875;4.23999998929503;425;100 mA
75.8097008085989;-0.899658203125;-0.16375732421875;4.24999998926978;426;100 mA
75.8197008085737;-0.89996337890625;-0.162445068359375;4.25999998924453;427;100 mA
75.8297008085484;-0.89935302734375;-0.1624755859375;4.26999998921929;428;100 mA
75.8397008085232;-0.899658203125;-0.16357421875;4.27999998919404;429;100 mA
75.8497008084979;-0.89935302734375;-0.163299560546875;4.28999998916879;430;100 mA
75.8597008084727;-0.8990478515625;-0.1617431640625;4.29999998914354;431;100 mA
75.8697008084474;-0.899658203125;-0.162139892578125;4.3099999891183;432;100 mA
75.8797008084222;-0.89935302734375;-0.160552978515625;4.31999998909305;433;100 mA
75.8897008083969;-0.89935302734375;-0.16131591796875;4.3299999890678;434;100 mA
75.8997008083717;-0.89996337890625;-0.16217041015625;4.33999998904255;435;100 mA
75.9097008083464;-0.89996337890625;-0.16156005859375;4.34999998901731;436;100 mA
75.9197008083212;-0.8990478515625;-0.1617431640625;4.35999998899206;437;100 mA
75.9297008082959;-0.89935302734375;-0.1622314453125;4.36999998896681;438;100 mA
75.9397008082707;-0.899658203125;-0.16143798828125;4.37999998894156;439;100 mA
75.9497008082454;-0.899658203125;-0.1611328125;4.38999998891632;440;100 mA
75.9597008082202;-0.899658203125;-0.162628173828125;4.39999998889107;441;100 mA
75.9697008081949;-0.899658203125;-0.16326904296875;4.40999998886582;442;100 mA
75.9797008081697;-0.89935302734375;-0.163665771484375;4.41999998884057;443;100 mA
75.9897008081444;-0.89935302734375;-0.163787841796875;4.42999998881533;444;100 mA
75.9997008081192;-0.8990478515625;-0.1632080078125;4.43999998879008;445;100 mA
76.009700808094;-0.89935302734375;-0.163665771484375;4.44999998876483;446;100 mA
76.0197008080687;-0.89935302734375;-0.162872314453125;4.45999998873958;447;100 mA
76.0297008080435;-0.89996337890625;-0.1639404296875;4.46999998871433;448;100 mA
76.0397008080182;-0.89935302734375;-0.164215087890625;4.47999998868909;449;100 mA
76.049700807993;-0.89935302734375;-0.1636962890625;4.48999998866384;450;100 mA
76.0597008079677;-0.899658203125;-0.162628173828125;4.49999998863859;451;100 mA
76.0697008079425;-0.89996337890625;-0.1634521484375;4.50999998861334;452;100 mA
76.0797008079172;-0.899658203125;-0.161376953125;4.5199999885881;453;100 mA
76.089700807892;-0.8990478515625;-0.16229248046875;4.52999998856285;454;100 mA
76.0997008078667;-0.899658203125;-0.16131591796875;4.5399999885376;455;100 mA
76.1097008078415;-0.899658203125;-0.161041259765625;4.54999998851235;456;100 mA
76.1197008078162;-0.8990478515625;-0.162322998046875;4.55999998848711;457;100 mA
76.129700807791;-0.89996337890625;-0.1614990234375;4.56999998846186;458;100 mA
76.1397008077657;-0.89996337890625;-0.16131591796875;4.57999998843661;459;100 mA
76.1497008077405;-0.899658203125;-0.160125732421875;4.58999998841136;460;100 mA
76.1597008077152;-0.8990478515625;-0.16180419921875;4.59999998838612;461;100 mA
76.16970080769;-0.89935302734375;-0.161102294921875;4.60999998836087;462;100 mA
76.1797008076647;-0.899658203125;-0.16064453125;4.61999998833562;463;100 mA
76.1897008076395;-0.89935302734375;-0.16058349609375;4.62999998831037;464;100 mA
76.1997008076142;-0.89935302734375;-0.160308837890625;4.63999998828513;465;100 mA
76.209700807589;-0.899658203125;-0.159881591796875;4.64999998825988;466;100 mA
76.2197008075638;-0.89935302734375;-0.159271240234375;4.65999998823463;467;100 mA
76.2297008075385;-0.899658203125;-0.158966064453125;4.66999998820938;468;100 mA
76.2397008075133;-0.8990478515625;-0.158477783203125;4.67999998818414;469;100 mA
76.249700807488;-0.899658203125;-0.1597900390625;4.68999998815889;470;100 mA
76.2597008074628;-0.89935302734375;-0.15899658203125;4.69999998813364;471;100 mA
76.2697008074375;-0.89935302734375;-0.160247802734375;4.70999998810839;472;100 mA
76.2797008074123;-0.89996337890625;-0.15887451171875;4.71999998808315;473;100 mA
76.289700807387;-0.899658203125;-0.158905029296875;4.7299999880579;474;100 mA
76.2997008073618;-0.89935302734375;-0.157135009765625;4.73999998803265;475;100 mA
76.3097008073365;-0.89935302734375;-0.15777587890625;4.7499999880074;476;100 mA
76.3197008073113;-0.89935302734375;-0.158905029296875;4.75999998798216;477;100 mA
76.329700807286;-0.8990478515625;-0.1591796875;4.76999998795691;478;100 mA
76.3397008072608;-0.899658203125;-0.15911865234375;4.77999998793166;479;100 mA
76.3497008072355;-0.89935302734375;-0.158843994140625;4.78999998790641;480;100 mA
76.3597008072103;-0.89935302734375;-0.157135009765625;4.79999998788116;481;100 mA
76.369700807185;-0.89935302734375;-0.157501220703125;4.80999998785592;482;100 mA
76.3797008071598;-0.89935302734375;-0.158721923828125;4.81999998783067;483;100 mA
76.3897008071345;-0.89996337890625;-0.158905029296875;4.82999998780542;484;100 mA
76.3997008071093;-0.899658203125;-0.159454345703125;4.83999998778017;485;100 mA
76.4097008070841;-0.89935302734375;-0.160247802734375;4.84999998775493;486;100 mA
76.4197008070588;-0.89935302734375;-0.1597900390625;4.85999998772968;487;100 mA
76.4297008070336;-0.89935302734375;-0.1590576171875;4.86999998770443;488;100 mA
76.4397008070083;-0.89935302734375;-0.1595458984375;4.87999998767918;489;100 mA
76.4497008069831;-0.89935302734375;-0.159332275390625;4.88999998765394;490;100 mA
76.4597008069578;-0.89996337890625;-0.15875244140625;4.89999998762869;491;100 mA
76.4697008069326;-0.899658203125;-0.15826416015625;4.90999998760344;492;100 mA
76.4797008069073;-0.899658203125;-0.15936279296875;4.91999998757819;493;100 mA
76.4897008068821;-0.8990478515625;-0.159149169921875;4.92999998755295;494;100 mA
76.4997008068568;-0.899658203125;-0.158966064453125;4.9399999875277;495;100 mA
76.5097008068316;-0.899658203125;-0.15948486328125;4.94999998750245;496;100 mA
76.5197008068063;-0.8990478515625;-0.159515380859375;4.9599999874772;497;100 mA
76.5297008067811;-0.899658203125;-0.1590576171875;4.96999998745196;498;100 mA
76.5397008067558;-0.89935302734375;-0.15692138671875;4.97999998742671;499;100 mA
76.5497008067306;-0.899658203125;-0.1575927734375;4.98999998740146;500;100 mA
76.5597008067053;-0.899658203125;-0.158538818359375;4.99999998737621;501;100 mA
76.5697008066801;-0.89996337890625;-0.1590576171875;5.00999998735097;502;100 mA
76.5797008066548;-0.899658203125;-0.15826416015625;5.01999998732572;503;100 mA
76.5897008066296;-0.89935302734375;-0.15875244140625;5.02999998730047;504;100 mA
76.5997008066043;-0.899658203125;-0.158111572265625;5.03999998727522;505;100 mA
76.6097008065791;-0.89935302734375;-0.159027099609375;5.04999998724998;506;100 mA
76.6197008065539;-0.899658203125;-0.15667724609375;5.05999998722473;507;100 mA
76.6297008065286;-0.89935302734375;-0.1563720703125;5.06999998719948;508;100 mA
76.6397008065034;-0.89935302734375;-0.155670166015625;5.07999998717423;509;100 mA
76.6497008064781;-0.9002685546875;-0.15557861328125;5.08999998714899;510;100 mA
76.6597008064529;-0.89935302734375;-0.15582275390625;5.09999998712374;511;100 mA
76.6697008064276;-0.89935302734375;-0.15496826171875;5.10999998709849;512;100 mA
76.6797008064024;-0.899658203125;-0.155609130859375;5.11999998707324;513;100 mA
76.6897008063771;-0.8990478515625;-0.155975341796875;5.129999987048;514;100 mA
76.6997008063519;-0.89935302734375;-0.155517578125;5.13999998702275;515;100 mA
76.7097008063266;-0.89935302734375;-0.15533447265625;5.1499999869975;516;100 mA
76.7197008063014;-0.89935302734375;-0.1558837890625;5.15999998697225;517;100 mA
76.7297008062761;-0.899658203125;-0.155242919921875;5.169999986947;518;100 mA
76.7397008062509;-0.899658203125;-0.15594482421875;5.17999998692176;519;100 mA
76.7497008062256;-0.8990478515625;-0.15386962890625;5.18999998689651;520;100 mA
76.7597008062004;-0.899658203125;-0.155303955078125;5.19999998687126;521;100 mA
76.7697008061751;-0.89935302734375;-0.1546630859375;5.20999998684601;522;100 mA
76.7797008061499;-0.89935302734375;-0.155670166015625;5.21999998682077;523;100 mA
76.7897008061246;-0.89996337890625;-0.15667724609375;5.22999998679552;524;100 mA
76.7997008060994;-0.89935302734375;-0.156524658203125;5.23999998677027;525;100 mA
76.8097008060741;-0.89935302734375;-0.155670166015625;5.24999998674502;526;100 mA
76.8197008060489;-0.8990478515625;-0.15679931640625;5.25999998671978;527;100 mA
76.8297008060237;-0.89935302734375;-0.15667724609375;5.26999998669453;528;100 mA
76.8397008059984;-0.89935302734375;-0.157440185546875;5.27999998666928;529;100 mA
76.8497008059732;-0.89996337890625;-0.157379150390625;5.28999998664403;530;100 mA
76.8597008059479;-0.899658203125;-0.156463623046875;5.29999998661879;531;100 mA
76.8697008059227;-0.8990478515625;-0.155517578125;5.30999998659354;532;100 mA
76.8797008058974;-0.89935302734375;-0.155548095703125;5.31999998656829;533;100 mA
76.8897008058722;-0.899658203125;-0.155364990234375;5.32999998654304;534;100 mA
76.8997008058469;-0.89935302734375;-0.15533447265625;5.3399999865178;535;100 mA
76.9097008058217;-0.89935302734375;-0.1563720703125;5.34999998649255;536;100 mA
76.9197008057964;-0.899658203125;-0.15594482421875;5.3599999864673;537;100 mA
76.9297008057712;-0.899658203125;-0.156463623046875;5.36999998644205;538;100 mA
76.9397008057459;-0.899658203125;-0.157440185546875;5.37999998641681;539;100 mA
76.9497008057207;-0.89935302734375;-0.15765380859375;5.38999998639156;540;100 mA
76.9597008056954;-0.899658203125;-0.15631103515625;5.39999998636631;541;100 mA
76.9697008056702;-0.89935302734375;-0.15618896484375;5.40999998634106;542;100 mA
76.9797008056449;-0.899658203125;-0.155181884765625;5.41999998631582;543;100 mA
76.9897008056197;-0.899658203125;-0.156707763671875;5.42999998629057;544;100 mA
76.9997008055944;-0.89935302734375;-0.156097412109375;5.43999998626532;545;100 mA
77.0097008055692;-0.899658203125;-0.157379150390625;5.44999998624007;546;100 mA
77.0197008055439;-0.899658203125;-0.1571044921875;5.45999998621483;547;100 mA
77.0297008055187;-0.899658203125;-0.156829833984375;5.46999998618958;548;100 mA
77.0397008054935;-0.89935302734375;-0.15704345703125;5.47999998616433;549;100 mA
77.0497008054682;-0.89935302734375;-0.155731201171875;5.48999998613908;550;100 mA
77.059700805443;-0.899658203125;-0.155914306640625;5.49999998611383;551;100 mA
77.0697008054177;-0.899658203125;-0.155548095703125;5.50999998608859;552;100 mA
77.0797008053925;-0.89935302734375;-0.15582275390625;5.51999998606334;553;100 mA
77.0897008053672;-0.89996337890625;-0.155731201171875;5.52999998603809;554;100 mA
77.099700805342;-0.89935302734375;-0.15570068359375;5.53999998601284;555;100 mA
77.1097008053167;-0.89996337890625;-0.157073974609375;5.5499999859876;556;100 mA
77.1197008052915;-0.89935302734375;-0.156494140625;5.55999998596235;557;100 mA
77.1297008052662;-0.899658203125;-0.155914306640625;5.5699999859371;558;100 mA
77.139700805241;-0.899658203125;-0.155364990234375;5.57999998591185;559;100 mA
77.1497008052157;-0.89935302734375;-0.155853271484375;5.58999998588661;560;100 mA
77.1597008051905;-0.8990478515625;-0.154693603515625;5.59999998586136;561;100 mA
77.1697008051652;-0.89996337890625;-0.15496826171875;5.60999998583611;562;100 mA
77.17970080514;-0.89996337890625;-0.15496826171875;5.61999998581086;563;100 mA
77.1897008051147;-0.8990478515625;-0.15557861328125;5.62999998578562;564;100 mA
77.1997008050895;-0.89935302734375;-0.15576171875;5.63999998576037;565;100 mA
77.2097008050642;-0.899658203125;-0.1549072265625;5.64999998573512;566;100 mA
77.219700805039;-0.89935302734375;-0.15496826171875;5.65999998570987;567;100 mA
77.2297008050137;-0.899658203125;-0.15460205078125;5.66999998568463;568;100 mA
77.2397008049885;-0.9002685546875;-0.154632568359375;5.67999998565938;569;100 mA
77.2497008049633;-0.89935302734375;-0.153045654296875;5.68999998563413;570;100 mA
77.259700804938;-0.89935302734375;-0.15338134765625;5.69999998560888;571;100 mA
77.2697008049128;-0.899658203125;-0.15362548828125;5.70999998558364;572;100 mA
77.2797008048875;-0.89935302734375;-0.154388427734375;5.71999998555839;573;100 mA
77.2897008048623;-0.89996337890625;-0.153564453125;5.72999998553314;574;100 mA
77.299700804837;-0.89935302734375;-0.153656005859375;5.73999998550789;575;100 mA
77.3097008048118;-0.8990478515625;-0.15350341796875;5.74999998548265;576;100 mA
77.3197008047865;-0.899658203125;-0.153594970703125;5.7599999854574;577;100 mA
77.3297008047613;-0.899658203125;-0.1531982421875;5.76999998543215;578;100 mA
77.339700804736;-0.89935302734375;-0.153167724609375;5.7799999854069;579;100 mA
77.3497008047108;-0.89935302734375;-0.154052734375;5.78999998538166;580;100 mA
77.3597008046855;-0.8990478515625;-0.154083251953125;5.79999998535641;581;100 mA
77.3697008046603;-0.89935302734375;-0.154205322265625;5.80999998533116;582;100 mA
77.379700804635;-0.899658203125;-0.153778076171875;5.81999998530591;583;100 mA
77.3897008046098;-0.899658203125;-0.154754638671875;5.82999998528066;584;100 mA
77.3997008045845;-0.89935302734375;-0.153717041015625;5.83999998525542;585;100 mA
77.4097008045593;-0.89935302734375;-0.1534423828125;5.84999998523017;586;100 mA
77.419700804534;-0.899658203125;-0.152801513671875;5.85999998520492;587;100 mA
77.4297008045088;-0.89935302734375;-0.1524658203125;5.86999998517967;588;100 mA
77.4397008044836;-0.899658203125;-0.153900146484375;5.87999998515443;589;100 mA
77.4497008044583;-0.899658203125;-0.154449462890625;5.88999998512918;590;100 mA
77.4597008044331;-0.89996337890625;-0.1541748046875;5.89999998510393;591;100 mA
77.4697008044078;-0.899658203125;-0.153594970703125;5.90999998507868;592;100 mA
77.4797008043826;-0.89935302734375;-0.153900146484375;5.91999998505344;593;100 mA
77.4897008043573;-0.899658203125;-0.15374755859375;5.92999998502819;594;100 mA
77.4997008043321;-0.89935302734375;-0.154510498046875;5.93999998500294;595;100 mA
77.5097008043068;-0.899658203125;-0.153717041015625;5.94999998497769;596;100 mA
77.5197008042816;-0.89996337890625;-0.15380859375;5.95999998495245;597;100 mA
77.5297008042563;-0.89935302734375;-0.153717041015625;5.9699999849272;598;100 mA
77.5397008042311;-0.899658203125;-0.153411865234375;5.97999998490195;599;100 mA
77.5497008042058;-0.9002685546875;-0.1541748046875;5.9899999848767;600;100 mA
77.5597008041806;-0.89935302734375;-0.15447998046875;5.99999998485146;601;100 mA
77.5697008041553;-0.89935302734375;-0.154327392578125;6.00999998482621;602;100 mA
77.5797008041301;-0.899658203125;-0.154205322265625;6.01999998480096;603;100 mA
77.5897008041048;-0.89935302734375;-0.15399169921875;6.02999998477571;604;100 mA
77.5997008040796;-0.89935302734375;-0.153289794921875;6.03999998475047;605;100 mA
77.6097008040543;-0.89935302734375;-0.153045654296875;6.04999998472522;606;100 mA
77.6197008040291;-0.899658203125;-0.154388427734375;6.05999998469997;607;100 mA
77.6297008040038;-0.8990478515625;-0.1558837890625;6.06999998467472;608;100 mA
77.6397008039786;-0.89935302734375;-0.1541748046875;6.07999998464948;609;100 mA
77.6497008039534;-0.89935302734375;-0.1536865234375;6.08999998462423;610;100 mA
77.6597008039281;-0.899658203125;-0.15277099609375;6.09999998459898;611;100 mA
77.6697008039029;-0.89935302734375;-0.152191162109375;6.10999998457373;612;100 mA
77.6797008038776;-0.899658203125;-0.1522216796875;6.11999998454849;613;100 mA
77.6897008038524;-0.89935302734375;-0.15264892578125;6.12999998452324;614;100 mA
77.6997008038271;-0.89874267578125;-0.1524658203125;6.13999998449799;615;100 mA
77.7097008038019;-0.899658203125;-0.152191162109375;6.14999998447274;616;100 mA
77.7197008037766;-0.899658203125;-0.151580810546875;6.1599999844475;617;100 mA
77.7297008037514;-0.89935302734375;-0.151702880859375;6.16999998442225;618;100 mA
77.7397008037261;-0.89996337890625;-0.151611328125;6.179999984397;619;100 mA
77.7497008037009;-0.8990478515625;-0.151824951171875;6.18999998437175;620;100 mA
77.7597008036756;-0.89935302734375;-0.15277099609375;6.1999999843465;621;100 mA
77.7697008036504;-0.89935302734375;-0.15338134765625;6.20999998432126;622;100 mA
77.7797008036251;-0.8990478515625;-0.153594970703125;6.21999998429601;623;100 mA
77.7897008035999;-0.899658203125;-0.152801513671875;6.22999998427076;624;100 mA
77.7997008035746;-0.89996337890625;-0.151611328125;6.23999998424551;625;100 mA
77.8097008035494;-0.89935302734375;-0.15167236328125;6.24999998422027;626;100 mA
77.8197008035241;-0.899658203125;-0.152679443359375;6.25999998419502;627;100 mA
77.8297008034989;-0.89935302734375;-0.15240478515625;6.26999998416977;628;100 mA
77.8397008034736;-0.89935302734375;-0.152313232421875;6.27999998414452;629;100 mA
77.8497008034484;-0.89935302734375;-0.153045654296875;6.28999998411928;630;100 mA
77.8597008034232;-0.89874267578125;-0.152679443359375;6.29999998409403;631;100 mA
77.8697008033979;-0.899658203125;-0.1546630859375;6.30999998406878;632;100 mA
77.8797008033727;-0.89996337890625;-0.154052734375;6.31999998404353;633;100 mA
77.8897008033474;-0.899658203125;-0.153472900390625;6.32999998401829;634;100 mA
77.8997008033222;-0.89935302734375;-0.153839111328125;6.33999998399304;635;100 mA
77.9097008032969;-0.899658203125;-0.15252685546875;6.34999998396779;636;100 mA
77.9197008032717;-0.89935302734375;-0.152618408203125;6.35999998394254;637;100 mA
77.9297008032464;-0.899658203125;-0.15185546875;6.3699999839173;638;100 mA
77.9397008032212;-0.899658203125;-0.151702880859375;6.37999998389205;639;100 mA
77.9497008031959;-0.899658203125;-0.150604248046875;6.3899999838668;640;100 mA
77.9597008031707;-0.8990478515625;-0.15155029296875;6.39999998384155;641;100 mA
77.9697008031454;-0.89935302734375;-0.152130126953125;6.40999998381631;642;100 mA
77.9797008031202;-0.89935302734375;-0.1514892578125;6.41999998379106;643;100 mA
77.9897008030949;-0.89935302734375;-0.1514892578125;6.42999998376581;644;100 mA
77.9997008030697;-0.899658203125;-0.152313232421875;6.43999998374056;645;100 mA
78.0097008030444;-0.899658203125;-0.152191162109375;6.44999998371532;646;100 mA
78.0197008030192;-0.8990478515625;-0.151580810546875;6.45999998369007;647;100 mA
78.0297008029939;-0.8990478515625;-0.151092529296875;6.46999998366482;648;100 mA
78.0397008029687;-0.89935302734375;-0.151519775390625;6.47999998363957;649;100 mA
78.0497008029434;-0.899658203125;-0.15167236328125;6.48999998361433;650;100 mA
78.0597008029182;-0.89935302734375;-0.15179443359375;6.49999998358908;651;100 mA
78.069700802893;-0.899658203125;-0.151763916015625;6.50999998356383;652;100 mA
78.0797008028677;-0.89996337890625;-0.1510009765625;6.51999998353858;653;100 mA
78.0897008028425;-0.899658203125;-0.15045166015625;6.52999998351333;654;100 mA
78.0997008028172;-0.89935302734375;-0.150543212890625;6.53999998348809;655;100 mA
78.109700802792;-0.89935302734375;-0.15118408203125;6.54999998346284;656;100 mA
78.1197008027667;-0.89996337890625;-0.150909423828125;6.55999998343759;657;100 mA
78.1297008027415;-0.8990478515625;-0.150482177734375;6.56999998341234;658;100 mA
78.1397008027162;-0.89935302734375;-0.15032958984375;6.5799999833871;659;100 mA
78.149700802691;-0.89935302734375;-0.150482177734375;6.58999998336185;660;100 mA
78.1597008026657;-0.899658203125;-0.150299072265625;6.5999999833366;661;100 mA
78.1697008026405;-0.89996337890625;-0.149566650390625;6.60999998331135;662;100 mA
78.1797008026152;-0.89935302734375;-0.150299072265625;6.61999998328611;663;100 mA
78.18970080259;-0.89935302734375;-0.1495361328125;6.62999998326086;664;100 mA
78.1997008025647;-0.899658203125;-0.150054931640625;6.63999998323561;665;100 mA
78.2097008025395;-0.899658203125;-0.149322509765625;6.64999998321036;666;100 mA
78.2197008025142;-0.89935302734375;-0.150634765625;6.65999998318512;667;100 mA
78.229700802489;-0.89935302734375;-0.150970458984375;6.66999998315987;668;100 mA
78.2397008024637;-0.899658203125;-0.151519775390625;6.67999998313462;669;100 mA
78.2497008024385;-0.89935302734375;-0.15142822265625;6.68999998310937;670;100 mA
78.2597008024132;-0.899658203125;-0.150909423828125;6.69999998308413;671;100 mA
78.269700802388;-0.8990478515625;-0.150238037109375;6.70999998305888;672;100 mA
78.2797008023628;-0.89935302734375;-0.1500244140625;6.71999998303363;673;100 mA
78.2897008023375;-0.89996337890625;-0.15032958984375;6.72999998300838;674;100 mA
78.2997008023123;-0.899658203125;-0.150054931640625;6.73999998298314;675;100 mA
78.309700802287;-0.899658203125;-0.15087890625;6.74999998295789;676;100 mA
78.3197008022618;-0.89874267578125;-0.151275634765625;6.75999998293264;677;100 mA
78.3297008022365;-0.89935302734375;-0.1517333984375;6.76999998290739;678;100 mA
78.3397008022113;-0.899658203125;-0.15069580078125;6.77999998288215;679;100 mA
78.349700802186;-0.9002685546875;-0.149871826171875;6.7899999828569;680;100 mA
78.3597008021608;-0.89935302734375;-0.151458740234375;6.79999998283165;681;100 mA
78.3697008021355;-0.89935302734375;-0.15155029296875;6.8099999828064;682;100 mA
78.3797008021103;-0.89935302734375;-0.15081787109375;6.81999998278116;683;100 mA
78.389700802085;-0.899658203125;-0.150146484375;6.82999998275591;684;100 mA
78.3997008020598;-0.899658203125;-0.150421142578125;6.83999998273066;685;100 mA
78.4097008020345;-0.89935302734375;-0.149993896484375;6.84999998270541;686;100 mA
78.4197008020093;-0.899658203125;-0.150115966796875;6.85999998268016;687;100 mA
78.429700801984;-0.89996337890625;-0.149658203125;6.86999998265492;688;100 mA
78.4397008019588;-0.899658203125;-0.1513671875;6.87999998262967;689;100 mA
78.4497008019335;-0.899658203125;-0.150146484375;6.88999998260442;690;100 mA
78.4597008019083;-0.899658203125;-0.15118408203125;6.89999998257917;691;100 mA
78.4697008018831;-0.9002685546875;-0.150634765625;6.90999998255393;692;100 mA
78.4797008018578;-0.899658203125;-0.14984130859375;6.91999998252868;693;100 mA
78.4897008018326;-0.8990478515625;-0.149810791015625;6.92999998250343;694;100 mA
78.4997008018073;-0.899658203125;-0.1502685546875;6.93999998247818;695;100 mA
78.5097008017821;-0.899658203125;-0.149627685546875;6.94999998245294;696;100 mA
78.5197008017568;-0.8990478515625;-0.1505126953125;6.95999998242769;697;100 mA
78.5297008017316;-0.899658203125;-0.149078369140625;6.96999998240244;698;100 mA
78.5397008017063;-0.899658203125;-0.14971923828125;6.97999998237719;699;100 mA
78.5497008016811;-0.89935302734375;-0.14947509765625;6.98999998235195;700;100 mA
