Time (s);WE(1).Potential (V);Corrected time (s);Index;WE(1).Current (A);Current range;Cutoffs
264.774778331508;-0.464599609375;0;1;-0.289459228515625;1 A;
264.776078331505;-0.520538330078125;0.00129999999671782;2;-0.28973388671875;1 A;
264.777378331501;-0.55328369140625;0.00259999999343563;3;-0.289794921875;1 A;
264.778678331498;-0.57586669921875;0.00389999999015345;4;-0.289794921875;1 A;
264.779978331495;-0.593017578125;0.00519999998687126;5;-0.289825439453125;1 A;
264.781278331492;-0.607940673828125;0.00649999998358908;6;-0.28985595703125;1 A;
264.782578331488;-0.620758056640625;0.00779999998030689;7;-0.2899169921875;1 A;
264.783878331485;-0.631622314453125;0.00909999997702471;8;-0.289886474609375;1 A;
264.785178331482;-0.64154052734375;0.0103999999737425;9;-0.2899169921875;1 A;
264.786478331478;-0.6514892578125;0.0116999999704603;10;-0.28985595703125;1 A;
264.787778331475;-0.661468505859375;0.0129999999671782;11;-0.28985595703125;1 A;
264.789078331472;-0.67132568359375;0.014299999963896;12;-0.28985595703125;1 A;
264.790378331469;-0.681121826171875;0.0155999999606138;13;-0.289886474609375;1 A;
264.791678331465;-0.690887451171875;0.0168999999573316;14;-0.289886474609375;1 A;
264.792978331462;-0.700531005859375;0.0181999999540494;15;-0.2899169921875;1 A;
264.794278331459;-0.7099609375;0.0194999999507672;16;-0.2899169921875;1 A;
264.795578331455;-0.71905517578125;0.020799999947485;17;-0.289886474609375;1 A;
264.796878331452;-0.727813720703125;0.0220999999442029;18;-0.289886474609375;1 A;
264.798178331449;-0.735931396484375;0.0233999999409207;19;-0.289886474609375;1 A;
264.799478331446;-0.743408203125;0.0246999999376385;20;-0.2899169921875;1 A;
264.800778331442;-0.75018310546875;0.0259999999343563;21;-0.289886474609375;1 A;
264.802078331439;-0.7562255859375;0.0272999999310741;22;-0.2899169921875;1 A;
264.803378331436;-0.76080322265625;0.0285999999277919;23;-0.2899169921875;1 A;
264.804678331432;-0.76507568359375;0.0298999999245098;24;-0.289947509765625;1 A;
264.805978331429;-0.7672119140625;0.0311999999212276;25;-0.2899169921875;1 A;
264.807278331426;-0.7672119140625;0.0324999999179454;26;-0.28997802734375;1 A;
264.808578331423;-0.76629638671875;0.0337999999146632;27;-0.28997802734375;1 A;
264.809878331419;-0.7647705078125;0.035099999911381;28;-0.290008544921875;1 A;
264.811178331416;-0.76385498046875;0.0363999999080988;29;-0.28997802734375;1 A;
264.812478331413;-0.762939453125;0.0376999999048167;30;-0.28997802734375;1 A;
264.813778331409;-0.76263427734375;0.0389999999015345;31;-0.2899169921875;1 A;
264.815078331406;-0.76202392578125;0.0402999998982523;32;-0.2899169921875;1 A;
264.816378331403;-0.76202392578125;0.0415999998949701;33;-0.289947509765625;1 A;
264.8176783314;-0.76202392578125;0.0428999998916879;34;-0.2899169921875;1 A;
264.818978331396;-0.76171875;0.0441999998884057;35;-0.28997802734375;1 A;
264.820278331393;-0.76141357421875;0.0454999998851235;36;-0.290069580078125;1 A;
264.82157833139;-0.76141357421875;0.0467999998818414;37;-0.28997802734375;1 A;
264.822878331387;-0.76141357421875;0.0480999998785592;38;-0.2899169921875;1 A;
264.824178331383;-0.76141357421875;0.049399999875277;39;-0.290008544921875;1 A;
264.82547833138;-0.76141357421875;0.0506999998719948;40;-0.289947509765625;1 A;
264.826778331377;-0.76141357421875;0.0519999998687126;41;-0.28997802734375;1 A;
264.828078331373;-0.76141357421875;0.0532999998654304;42;-0.28997802734375;1 A;
264.82937833137;-0.7611083984375;0.0545999998621483;43;-0.28997802734375;1 A;
264.830678331367;-0.76141357421875;0.0558999998588661;44;-0.28997802734375;1 A;
264.831978331364;-0.7611083984375;0.0571999998555839;45;-0.290008544921875;1 A;
264.83327833136;-0.7611083984375;0.0584999998523017;46;-0.28997802734375;1 A;
264.834578331357;-0.7611083984375;0.0597999998490195;47;-0.289947509765625;1 A;
264.835878331354;-0.7611083984375;0.0610999998457373;48;-0.28997802734375;1 A;
264.83717833135;-0.76141357421875;0.0623999998424551;49;-0.289947509765625;1 A;
264.838478331347;-0.7611083984375;0.063699999839173;50;-0.290008544921875;1 A;
264.839778331344;-0.7611083984375;0.0649999998358908;51;-0.290008544921875;1 A;
264.841078331341;-0.7611083984375;0.0662999998326086;52;-0.290008544921875;1 A;
264.842378331337;-0.76080322265625;0.0675999998293264;53;-0.28997802734375;1 A;
264.843678331334;-0.7611083984375;0.0688999998260442;54;-0.290008544921875;1 A;
264.844978331331;-0.76080322265625;0.070199999822762;55;-0.289947509765625;1 A;
264.846278331327;-0.7611083984375;0.0714999998194799;56;-0.289886474609375;1 A;
264.847578331324;-0.7611083984375;0.0727999998161977;57;-0.28997802734375;1 A;
264.848878331321;-0.7611083984375;0.0740999998129155;58;-0.290008544921875;1 A;
264.850178331318;-0.7611083984375;0.0753999998096333;59;-0.28997802734375;1 A;
264.851478331314;-0.7611083984375;0.0766999998063511;60;-0.289947509765625;1 A;
264.852778331311;-0.76080322265625;0.0779999998030689;61;-0.290008544921875;1 A;
264.854078331308;-0.7611083984375;0.0792999997997867;62;-0.290008544921875;1 A;
264.855378331304;-0.7611083984375;0.0805999997965046;63;-0.289947509765625;1 A;
264.856678331301;-0.7611083984375;0.0818999997932224;64;-0.2899169921875;1 A;
264.857978331298;-0.76080322265625;0.0831999997899402;65;-0.2899169921875;1 A;
264.859278331295;-0.7611083984375;0.084499999786658;66;-0.290008544921875;1 A;
264.860578331291;-0.7611083984375;0.0857999997833758;67;-0.290008544921875;1 A;
264.861878331288;-0.7611083984375;0.0870999997800936;68;-0.289947509765625;1 A;
264.863178331285;-0.76080322265625;0.0883999997768115;69;-0.289947509765625;1 A;
264.864478331281;-0.7611083984375;0.0896999997735293;70;-0.28997802734375;1 A;
264.865778331278;-0.7611083984375;0.0909999997702471;71;-0.28997802734375;1 A;
264.867078331275;-0.7611083984375;0.0922999997669649;72;-0.28997802734375;1 A;
264.868378331272;-0.76080322265625;0.0935999997636827;73;-0.2899169921875;1 A;
264.869678331268;-0.76080322265625;0.0948999997604005;74;-0.289947509765625;1 A;
264.870978331265;-0.76080322265625;0.0961999997571183;75;-0.289947509765625;1 A;
264.872278331262;-0.7611083984375;0.0974999997538362;76;-0.28997802734375;1 A;
264.873578331258;-0.7611083984375;0.098799999750554;77;-0.290008544921875;1 A;
264.874878331255;-0.76080322265625;0.100099999747272;78;-0.28997802734375;1 A;
264.876178331252;-0.7611083984375;0.10139999974399;79;-0.289947509765625;1 A;
264.877478331249;-0.7611083984375;0.102699999740707;80;-0.290008544921875;1 A;
264.878778331245;-0.7611083984375;0.103999999737425;81;-0.290008544921875;1 A;
264.880078331242;-0.76141357421875;0.105299999734143;82;-0.290008544921875;1 A;
264.881378331239;-0.76080322265625;0.106599999730861;83;-0.290008544921875;1 A;
264.882678331236;-0.7611083984375;0.107899999727579;84;-0.290008544921875;1 A;
264.883978331232;-0.7611083984375;0.109199999724297;85;-0.28997802734375;1 A;
264.885278331229;-0.76141357421875;0.110499999721014;86;-0.2899169921875;1 A;
264.886578331226;-0.7611083984375;0.111799999717732;87;-0.28997802734375;1 A;
264.887878331222;-0.7611083984375;0.11309999971445;88;-0.290008544921875;1 A;
264.889178331219;-0.7611083984375;0.114399999711168;89;-0.290008544921875;1 A;
264.890478331216;-0.7611083984375;0.115699999707886;90;-0.290008544921875;1 A;
264.891778331213;-0.76141357421875;0.116999999704603;91;-0.289947509765625;1 A;
264.893078331209;-0.76141357421875;0.118299999701321;92;-0.290008544921875;1 A;
264.894378331206;-0.76141357421875;0.119599999698039;93;-0.28997802734375;1 A;
264.895678331203;-0.76141357421875;0.120899999694757;94;-0.289947509765625;1 A;
264.896978331199;-0.76141357421875;0.122199999691475;95;-0.28997802734375;1 A;
264.898278331196;-0.7611083984375;0.123499999688192;96;-0.28997802734375;1 A;
264.899578331193;-0.76171875;0.12479999968491;97;-0.290008544921875;1 A;
264.90087833119;-0.76141357421875;0.126099999681628;98;-0.290008544921875;1 A;
264.902178331186;-0.76141357421875;0.127399999678346;99;-0.28997802734375;1 A;
264.903478331183;-0.76171875;0.128699999675064;100;-0.289947509765625;1 A;
264.90477833118;-0.76141357421875;0.129999999671782;101;-0.290008544921875;1 A;
264.906078331176;-0.76171875;0.131299999668499;102;-0.28997802734375;1 A;
264.907378331173;-0.76171875;0.132599999665217;103;-0.290008544921875;1 A;
264.90867833117;-0.76141357421875;0.133899999661935;104;-0.28997802734375;1 A;
264.909978331167;-0.76171875;0.135199999658653;105;-0.289947509765625;1 A;
264.911278331163;-0.76171875;0.136499999655371;106;-0.289947509765625;1 A;
264.91257833116;-0.76141357421875;0.137799999652088;107;-0.289947509765625;1 A;
264.913878331157;-0.76141357421875;0.139099999648806;108;-0.28997802734375;1 A;
264.915178331153;-0.76141357421875;0.140399999645524;109;-0.290008544921875;1 A;
264.91647833115;-0.76171875;0.141699999642242;110;-0.28997802734375;1 A;
264.917778331147;-0.76171875;0.14299999963896;111;-0.2899169921875;1 A;
264.919078331144;-0.76202392578125;0.144299999635678;112;-0.290008544921875;1 A;
264.92037833114;-0.76202392578125;0.145599999632395;113;-0.289947509765625;1 A;
264.921678331137;-0.76202392578125;0.146899999629113;114;-0.2899169921875;1 A;
264.922978331134;-0.76171875;0.148199999625831;115;-0.289947509765625;1 A;
264.92427833113;-0.76171875;0.149499999622549;116;-0.2899169921875;1 A;
264.925578331127;-0.76171875;0.150799999619267;117;-0.28997802734375;1 A;
264.926878331124;-0.76202392578125;0.152099999615984;118;-0.290008544921875;1 A;
264.928178331121;-0.76202392578125;0.153399999612702;119;-0.28997802734375;1 A;
264.929478331117;-0.76202392578125;0.15469999960942;120;-0.289947509765625;1 A;
264.930778331114;-0.7623291015625;0.155999999606138;121;-0.289947509765625;1 A;
264.932078331111;-0.76202392578125;0.157299999602856;122;-0.28997802734375;1 A;
264.933378331108;-0.7623291015625;0.158599999599573;123;-0.28997802734375;1 A;
264.934678331104;-0.7623291015625;0.159899999596291;124;-0.28997802734375;1 A;
264.935978331101;-0.76202392578125;0.161199999593009;125;-0.290008544921875;1 A;
264.937278331098;-0.76202392578125;0.162499999589727;126;-0.289947509765625;1 A;
264.938578331094;-0.76202392578125;0.163799999586445;127;-0.28997802734375;1 A;
264.939878331091;-0.7623291015625;0.165099999583163;128;-0.2899169921875;1 A;
264.941178331088;-0.76202392578125;0.16639999957988;129;-0.28997802734375;1 A;
264.942478331085;-0.7623291015625;0.167699999576598;130;-0.289947509765625;1 A;
264.943778331081;-0.76202392578125;0.168999999573316;131;-0.28997802734375;1 A;
264.945078331078;-0.7623291015625;0.170299999570034;132;-0.289947509765625;1 A;
264.946378331075;-0.7623291015625;0.171599999566752;133;-0.28997802734375;1 A;
264.947678331071;-0.76263427734375;0.172899999563469;134;-0.289947509765625;1 A;
264.948978331068;-0.7623291015625;0.174199999560187;135;-0.2899169921875;1 A;
264.950278331065;-0.7623291015625;0.175499999556905;136;-0.289947509765625;1 A;
264.951578331062;-0.7623291015625;0.176799999553623;137;-0.289947509765625;1 A;
264.952878331058;-0.762939453125;0.178099999550341;138;-0.2899169921875;1 A;
264.954178331055;-0.76263427734375;0.179399999547059;139;-0.28997802734375;1 A;
264.955478331052;-0.7623291015625;0.180699999543776;140;-0.290008544921875;1 A;
264.956778331048;-0.76263427734375;0.181999999540494;141;-0.289947509765625;1 A;
264.958078331045;-0.762939453125;0.183299999537212;142;-0.289947509765625;1 A;
264.959378331042;-0.76263427734375;0.18459999953393;143;-0.289947509765625;1 A;
264.960678331039;-0.76263427734375;0.185899999530648;144;-0.289947509765625;1 A;
264.961978331035;-0.76263427734375;0.187199999527365;145;-0.28997802734375;1 A;
264.963278331032;-0.76263427734375;0.188499999524083;146;-0.28997802734375;1 A;
264.964578331029;-0.762939453125;0.189799999520801;147;-0.289947509765625;1 A;
264.965878331025;-0.762939453125;0.191099999517519;148;-0.289947509765625;1 A;
264.967178331022;-0.76263427734375;0.192399999514237;149;-0.2900390625;1 A;
264.968478331019;-0.762939453125;0.193699999510955;150;-0.28997802734375;1 A;
264.969778331016;-0.762939453125;0.194999999507672;151;-0.28997802734375;1 A;
264.971078331012;-0.76263427734375;0.19629999950439;152;-0.28997802734375;1 A;
264.972378331009;-0.76324462890625;0.197599999501108;153;-0.28997802734375;1 A;
264.973678331006;-0.76324462890625;0.198899999497826;154;-0.289947509765625;1 A;
264.974978331002;-0.762939453125;0.200199999494544;155;-0.289947509765625;1 A;
264.976278330999;-0.762939453125;0.201499999491261;156;-0.28997802734375;1 A;
264.977578330996;-0.762939453125;0.202799999487979;157;-0.290008544921875;1 A;
264.978878330993;-0.76324462890625;0.204099999484697;158;-0.290008544921875;1 A;
264.980178330989;-0.762939453125;0.205399999481415;159;-0.290008544921875;1 A;
264.981478330986;-0.762939453125;0.206699999478133;160;-0.28997802734375;1 A;
264.982778330983;-0.7635498046875;0.20799999947485;161;-0.290008544921875;1 A;
264.98407833098;-0.76324462890625;0.209299999471568;162;-0.28997802734375;1 A;
264.985378330976;-0.76324462890625;0.210599999468286;163;-0.289947509765625;1 A;
264.986678330973;-0.76324462890625;0.211899999465004;164;-0.28997802734375;1 A;
264.98797833097;-0.762939453125;0.213199999461722;165;-0.28997802734375;1 A;
264.989278330966;-0.76324462890625;0.21449999945844;166;-0.289886474609375;1 A;
264.990578330963;-0.7635498046875;0.215799999455157;167;-0.2900390625;1 A;
264.99187833096;-0.7635498046875;0.217099999451875;168;-0.289947509765625;1 A;
264.993178330957;-0.76385498046875;0.218399999448593;169;-0.28997802734375;1 A;
264.994478330953;-0.76385498046875;0.219699999445311;170;-0.28997802734375;1 A;
264.99577833095;-0.7635498046875;0.220999999442029;171;-0.28997802734375;1 A;
264.997078330947;-0.76385498046875;0.222299999438746;172;-0.289947509765625;1 A;
264.998378330943;-0.76385498046875;0.223599999435464;173;-0.2899169921875;1 A;
264.99967833094;-0.7635498046875;0.224899999432182;174;-0.28997802734375;1 A;
265.000978330937;-0.76385498046875;0.2261999994289;175;-0.290008544921875;1 A;
265.002278330934;-0.76385498046875;0.227499999425618;176;-0.290008544921875;1 A;
265.00357833093;-0.76385498046875;0.228799999422336;177;-0.289947509765625;1 A;
265.004878330927;-0.7635498046875;0.230099999419053;178;-0.28997802734375;1 A;
265.006178330924;-0.76385498046875;0.231399999415771;179;-0.289947509765625;1 A;
265.00747833092;-0.76385498046875;0.232699999412489;180;-0.289947509765625;1 A;
265.008778330917;-0.76385498046875;0.233999999409207;181;-0.28997802734375;1 A;
265.010078330914;-0.76416015625;0.235299999405925;182;-0.289947509765625;1 A;
265.011378330911;-0.76385498046875;0.236599999402642;183;-0.28997802734375;1 A;
265.012678330907;-0.76385498046875;0.23789999939936;184;-0.28997802734375;1 A;
265.013978330904;-0.76385498046875;0.239199999396078;185;-0.289947509765625;1 A;
265.015278330901;-0.76446533203125;0.240499999392796;186;-0.289947509765625;1 A;
265.016578330897;-0.76446533203125;0.241799999389514;187;-0.289947509765625;1 A;
265.017878330894;-0.76416015625;0.243099999386232;188;-0.289947509765625;1 A;
265.019178330891;-0.76416015625;0.244399999382949;189;-0.28997802734375;1 A;
265.020478330888;-0.7647705078125;0.245699999379667;190;-0.2899169921875;1 A;
265.021778330884;-0.76446533203125;0.246999999376385;191;-0.290008544921875;1 A;
265.023078330881;-0.76446533203125;0.248299999373103;192;-0.28997802734375;1 A;
265.024378330878;-0.76446533203125;0.249599999369821;193;-0.289947509765625;1 A;
265.025678330874;-0.76446533203125;0.250899999366538;194;-0.290008544921875;1 A;
265.026978330871;-0.76446533203125;0.252199999363256;195;-0.290008544921875;1 A;
265.028278330868;-0.76446533203125;0.253499999359974;196;-0.289947509765625;1 A;
265.029578330865;-0.76446533203125;0.254799999356692;197;-0.28997802734375;1 A;
265.030878330861;-0.76446533203125;0.25609999935341;198;-0.290069580078125;1 A;
265.032178330858;-0.76446533203125;0.257399999350127;199;-0.289947509765625;1 A;
265.033478330855;-0.7647705078125;0.258699999346845;200;-0.289947509765625;1 A;
265.034778330852;-0.7647705078125;0.259999999343563;201;-0.28997802734375;1 A;
265.036078330848;-0.7647705078125;0.261299999340281;202;-0.289947509765625;1 A;
265.037378330845;-0.7647705078125;0.262599999336999;203;-0.290008544921875;1 A;
265.038678330842;-0.76446533203125;0.263899999333717;204;-0.290008544921875;1 A;
265.039978330838;-0.76446533203125;0.265199999330434;205;-0.28997802734375;1 A;
265.041278330835;-0.7647705078125;0.266499999327152;206;-0.290008544921875;1 A;
265.042578330832;-0.76507568359375;0.26779999932387;207;-0.290008544921875;1 A;
265.043878330829;-0.7647705078125;0.269099999320588;208;-0.28997802734375;1 A;
265.045178330825;-0.7647705078125;0.270399999317306;209;-0.28997802734375;1 A;
265.046478330822;-0.765380859375;0.271699999314023;210;-0.289947509765625;1 A;
265.047778330819;-0.765380859375;0.272999999310741;211;-0.289947509765625;1 A;
265.049078330815;-0.765380859375;0.274299999307459;212;-0.290008544921875;1 A;
265.050378330812;-0.76507568359375;0.275599999304177;213;-0.28997802734375;1 A;
265.051678330809;-0.76507568359375;0.276899999300895;214;-0.2900390625;1 A;
265.052978330806;-0.765380859375;0.278199999297613;215;-0.290008544921875;1 A;
265.054278330802;-0.76507568359375;0.27949999929433;216;-0.28997802734375;1 A;
265.055578330799;-0.76507568359375;0.280799999291048;217;-0.290008544921875;1 A;
265.056878330796;-0.76507568359375;0.282099999287766;218;-0.2899169921875;1 A;
265.058178330792;-0.76507568359375;0.283399999284484;219;-0.28997802734375;1 A;
265.059478330789;-0.765380859375;0.284699999281202;220;-0.290008544921875;1 A;
265.060778330786;-0.76568603515625;0.285999999277919;221;-0.28997802734375;1 A;
265.062078330783;-0.765380859375;0.287299999274637;222;-0.28997802734375;1 A;
265.063378330779;-0.765380859375;0.288599999271355;223;-0.290008544921875;1 A;
265.064678330776;-0.76568603515625;0.289899999268073;224;-0.289947509765625;1 A;
265.065978330773;-0.76568603515625;0.291199999264791;225;-0.289947509765625;1 A;
265.067278330769;-0.765380859375;0.292499999261508;226;-0.290008544921875;1 A;
265.068578330766;-0.76568603515625;0.293799999258226;227;-0.290008544921875;1 A;
265.069878330763;-0.7659912109375;0.295099999254944;228;-0.28997802734375;1 A;
265.07117833076;-0.765380859375;0.296399999251662;229;-0.28997802734375;1 A;
265.072478330756;-0.765380859375;0.29769999924838;230;-0.289947509765625;1 A;
265.073778330753;-0.7659912109375;0.298999999245098;231;-0.28997802734375;1 A;
265.07507833075;-0.7659912109375;0.300299999241815;232;-0.290008544921875;1 A;
265.076378330746;-0.7659912109375;0.301599999238533;233;-0.289947509765625;1 A;
265.077678330743;-0.7659912109375;0.302899999235251;234;-0.28997802734375;1 A;
265.07897833074;-0.76568603515625;0.304199999231969;235;-0.28997802734375;1 A;
265.080278330737;-0.76629638671875;0.305499999228687;236;-0.289947509765625;1 A;
265.081578330733;-0.7659912109375;0.306799999225404;237;-0.28997802734375;1 A;
265.08287833073;-0.76629638671875;0.308099999222122;238;-0.2899169921875;1 A;
265.084178330727;-0.7659912109375;0.30939999921884;239;-0.28997802734375;1 A;
265.085478330724;-0.7659912109375;0.310699999215558;240;-0.290008544921875;1 A;
265.08677833072;-0.7666015625;0.311999999212276;241;-0.2899169921875;1 A;
265.088078330717;-0.7666015625;0.313299999208994;242;-0.290008544921875;1 A;
265.089378330714;-0.76629638671875;0.314599999205711;243;-0.290008544921875;1 A;
265.09067833071;-0.7666015625;0.315899999202429;244;-0.290008544921875;1 A;
265.091978330707;-0.76629638671875;0.317199999199147;245;-0.28997802734375;1 A;
265.093278330704;-0.7666015625;0.318499999195865;246;-0.28997802734375;1 A;
265.094578330701;-0.7666015625;0.319799999192583;247;-0.289947509765625;1 A;
265.095878330697;-0.7666015625;0.3210999991893;248;-0.28997802734375;1 A;
265.097178330694;-0.76629638671875;0.322399999186018;249;-0.28997802734375;1 A;
265.098478330691;-0.7666015625;0.323699999182736;250;-0.28997802734375;1 A;
265.099778330687;-0.76629638671875;0.324999999179454;251;-0.290008544921875;1 A;
265.101078330684;-0.76690673828125;0.326299999176172;252;-0.289947509765625;1 A;
265.102378330681;-0.7666015625;0.32759999917289;253;-0.28997802734375;1 A;
265.103678330678;-0.7666015625;0.328899999169607;254;-0.289947509765625;1 A;
265.104978330674;-0.76690673828125;0.330199999166325;255;-0.290008544921875;1 A;
265.106278330671;-0.76690673828125;0.331499999163043;256;-0.289947509765625;1 A;
265.107578330668;-0.76690673828125;0.332799999159761;257;-0.290008544921875;1 A;
265.108878330664;-0.76690673828125;0.334099999156479;258;-0.28997802734375;1 A;
265.110178330661;-0.7672119140625;0.335399999153196;259;-0.28997802734375;1 A;
265.111478330658;-0.76690673828125;0.336699999149914;260;-0.28997802734375;1 A;
265.112778330655;-0.7672119140625;0.337999999146632;261;-0.289947509765625;1 A;
265.114078330651;-0.7672119140625;0.33929999914335;262;-0.28997802734375;1 A;
265.115378330648;-0.7672119140625;0.340599999140068;263;-0.28997802734375;1 A;
265.116678330645;-0.76690673828125;0.341899999136785;264;-0.290008544921875;1 A;
265.117978330641;-0.7672119140625;0.343199999133503;265;-0.28997802734375;1 A;
265.119278330638;-0.76751708984375;0.344499999130221;266;-0.28997802734375;1 A;
265.120578330635;-0.76690673828125;0.345799999126939;267;-0.28997802734375;1 A;
265.121878330632;-0.76751708984375;0.347099999123657;268;-0.2899169921875;1 A;
265.123178330628;-0.767822265625;0.348399999120375;269;-0.290008544921875;1 A;
265.124478330625;-0.7672119140625;0.349699999117092;270;-0.28997802734375;1 A;
265.125778330622;-0.76751708984375;0.35099999911381;271;-0.28997802734375;1 A;
265.127078330618;-0.76751708984375;0.352299999110528;272;-0.290008544921875;1 A;
265.128378330615;-0.7672119140625;0.353599999107246;273;-0.290008544921875;1 A;
265.129678330612;-0.767822265625;0.354899999103964;274;-0.2900390625;1 A;
265.130978330609;-0.76751708984375;0.356199999100681;275;-0.28997802734375;1 A;
265.132278330605;-0.76751708984375;0.357499999097399;276;-0.28997802734375;1 A;
265.133578330602;-0.76751708984375;0.358799999094117;277;-0.28997802734375;1 A;
265.134878330599;-0.767822265625;0.360099999090835;278;-0.289947509765625;1 A;
265.136178330595;-0.767822265625;0.361399999087553;279;-0.290008544921875;1 A;
265.137478330592;-0.767822265625;0.362699999084271;280;-0.290008544921875;1 A;
265.138778330589;-0.767822265625;0.363999999080988;281;-0.2899169921875;1 A;
265.140078330586;-0.767822265625;0.365299999077706;282;-0.289947509765625;1 A;
265.141378330582;-0.76812744140625;0.366599999074424;283;-0.28997802734375;1 A;
265.142678330579;-0.76812744140625;0.367899999071142;284;-0.290008544921875;1 A;
265.143978330576;-0.76812744140625;0.36919999906786;285;-0.290008544921875;1 A;
265.145278330573;-0.76812744140625;0.370499999064577;286;-0.290008544921875;1 A;
265.146578330569;-0.76812744140625;0.371799999061295;287;-0.28997802734375;1 A;
265.147878330566;-0.76812744140625;0.373099999058013;288;-0.2900390625;1 A;
265.149178330563;-0.767822265625;0.374399999054731;289;-0.289947509765625;1 A;
265.150478330559;-0.7684326171875;0.375699999051449;290;-0.290008544921875;1 A;
265.151778330556;-0.76812744140625;0.376999999048167;291;-0.290008544921875;1 A;
265.153078330553;-0.7684326171875;0.378299999044884;292;-0.28997802734375;1 A;
265.15437833055;-0.7684326171875;0.379599999041602;293;-0.289947509765625;1 A;
265.155678330546;-0.7684326171875;0.38089999903832;294;-0.290008544921875;1 A;
265.156978330543;-0.76812744140625;0.382199999035038;295;-0.28997802734375;1 A;
265.15827833054;-0.7684326171875;0.383499999031756;296;-0.290008544921875;1 A;
265.159578330536;-0.76873779296875;0.384799999028473;297;-0.290008544921875;1 A;
265.160878330533;-0.76873779296875;0.386099999025191;298;-0.290008544921875;1 A;
265.16217833053;-0.76873779296875;0.387399999021909;299;-0.28997802734375;1 A;
265.163478330527;-0.76904296875;0.388699999018627;300;-0.2899169921875;1 A;
265.164778330523;-0.76873779296875;0.389999999015345;301;-0.290008544921875;1 A;
265.16607833052;-0.76873779296875;0.391299999012062;302;-0.290008544921875;1 A;
265.167378330517;-0.76904296875;0.39259999900878;303;-0.290008544921875;1 A;
265.168678330513;-0.76873779296875;0.393899999005498;304;-0.2899169921875;1 A;
265.16997833051;-0.76873779296875;0.395199999002216;305;-0.28997802734375;1 A;
265.171278330507;-0.76904296875;0.396499998998934;306;-0.290008544921875;1 A;
265.172578330504;-0.76904296875;0.397799998995652;307;-0.28997802734375;1 A;
265.1738783305;-0.76904296875;0.399099998992369;308;-0.28997802734375;1 A;
265.175178330497;-0.76934814453125;0.400399998989087;309;-0.289947509765625;1 A;
265.176478330494;-0.76934814453125;0.401699998985805;310;-0.28997802734375;1 A;
265.17777833049;-0.76904296875;0.402999998982523;311;-0.28997802734375;1 A;
265.179078330487;-0.76904296875;0.404299998979241;312;-0.28997802734375;1 A;
265.180378330484;-0.76934814453125;0.405599998975958;313;-0.289947509765625;1 A;
265.181678330481;-0.76934814453125;0.406899998972676;314;-0.289947509765625;1 A;
265.182978330477;-0.7696533203125;0.408199998969394;315;-0.289947509765625;1 A;
265.184278330474;-0.7696533203125;0.409499998966112;316;-0.290008544921875;1 A;
265.185578330471;-0.7696533203125;0.41079999896283;317;-0.2899169921875;1 A;
265.186878330467;-0.7696533203125;0.412099998959548;318;-0.2899169921875;1 A;
265.188178330464;-0.7696533203125;0.413399998956265;319;-0.28997802734375;1 A;
265.189478330461;-0.7696533203125;0.414699998952983;320;-0.289947509765625;1 A;
265.190778330458;-0.7696533203125;0.415999998949701;321;-0.289947509765625;1 A;
265.192078330454;-0.76995849609375;0.417299998946419;322;-0.28997802734375;1 A;
265.193378330451;-0.76995849609375;0.418599998943137;323;-0.290008544921875;1 A;
265.194678330448;-0.76995849609375;0.419899998939854;324;-0.2900390625;1 A;
265.195978330445;-0.76995849609375;0.421199998936572;325;-0.2899169921875;1 A;
265.197278330441;-0.76995849609375;0.42249999893329;326;-0.290008544921875;1 A;
265.198578330438;-0.770263671875;0.423799998930008;327;-0.289947509765625;1 A;
265.199878330435;-0.76995849609375;0.425099998926726;328;-0.289947509765625;1 A;
265.201178330431;-0.76995849609375;0.426399998923443;329;-0.28997802734375;1 A;
265.202478330428;-0.770263671875;0.427699998920161;330;-0.289947509765625;1 A;
265.203778330425;-0.76995849609375;0.428999998916879;331;-0.28997802734375;1 A;
265.205078330422;-0.770263671875;0.430299998913597;332;-0.289947509765625;1 A;
265.206378330418;-0.770263671875;0.431599998910315;333;-0.28997802734375;1 A;
265.207678330415;-0.770263671875;0.432899998907033;334;-0.290008544921875;1 A;
265.208978330412;-0.770263671875;0.43419999890375;335;-0.289947509765625;1 A;
265.210278330408;-0.77056884765625;0.435499998900468;336;-0.2899169921875;1 A;
265.211578330405;-0.77056884765625;0.436799998897186;337;-0.289947509765625;1 A;
265.212878330402;-0.77056884765625;0.438099998893904;338;-0.290008544921875;1 A;
265.214178330399;-0.77056884765625;0.439399998890622;339;-0.289947509765625;1 A;
265.215478330395;-0.77056884765625;0.440699998887339;340;-0.289947509765625;1 A;
265.216778330392;-0.77056884765625;0.441999998884057;341;-0.289947509765625;1 A;
265.218078330389;-0.7708740234375;0.443299998880775;342;-0.28997802734375;1 A;
265.219378330385;-0.7708740234375;0.444599998877493;343;-0.290008544921875;1 A;
265.220678330382;-0.7708740234375;0.445899998874211;344;-0.28997802734375;1 A;
265.221978330379;-0.7708740234375;0.447199998870929;345;-0.289947509765625;1 A;
265.223278330376;-0.7708740234375;0.448499998867646;346;-0.28997802734375;1 A;
265.224578330372;-0.77117919921875;0.449799998864364;347;-0.289947509765625;1 A;
265.225878330369;-0.77117919921875;0.451099998861082;348;-0.28997802734375;1 A;
265.227178330366;-0.771484375;0.4523999988578;349;-0.28997802734375;1 A;
265.228478330362;-0.771484375;0.453699998854518;350;-0.289947509765625;1 A;
265.229778330359;-0.77117919921875;0.454999998851235;351;-0.290008544921875;1 A;
265.231078330356;-0.771484375;0.456299998847953;352;-0.289947509765625;1 A;
265.232378330353;-0.77117919921875;0.457599998844671;353;-0.28997802734375;1 A;
265.233678330349;-0.771484375;0.458899998841389;354;-0.289947509765625;1 A;
265.234978330346;-0.77117919921875;0.460199998838107;355;-0.289947509765625;1 A;
265.236278330343;-0.771484375;0.461499998834825;356;-0.28997802734375;1 A;
265.237578330339;-0.77178955078125;0.462799998831542;357;-0.28997802734375;1 A;
265.238878330336;-0.77117919921875;0.46409999882826;358;-0.290008544921875;1 A;
265.240178330333;-0.77117919921875;0.465399998824978;359;-0.289947509765625;1 A;
265.24147833033;-0.77178955078125;0.466699998821696;360;-0.289947509765625;1 A;
265.242778330326;-0.77178955078125;0.467999998818414;361;-0.28997802734375;1 A;
265.244078330323;-0.77178955078125;0.469299998815131;362;-0.290008544921875;1 A;
265.24537833032;-0.77178955078125;0.470599998811849;363;-0.289947509765625;1 A;
265.246678330317;-0.77178955078125;0.471899998808567;364;-0.290008544921875;1 A;
265.247978330313;-0.77178955078125;0.473199998805285;365;-0.289947509765625;1 A;
265.24927833031;-0.77178955078125;0.474499998802003;366;-0.28997802734375;1 A;
265.250578330307;-0.77178955078125;0.47579999879872;367;-0.28997802734375;1 A;
265.251878330303;-0.7720947265625;0.477099998795438;368;-0.2900390625;1 A;
265.2531783303;-0.7720947265625;0.478399998792156;369;-0.290008544921875;1 A;
265.254478330297;-0.7720947265625;0.479699998788874;370;-0.28997802734375;1 A;
265.255778330294;-0.7720947265625;0.480999998785592;371;-0.28997802734375;1 A;
265.25707833029;-0.77239990234375;0.48229999878231;372;-0.28997802734375;1 A;
265.258378330287;-0.7720947265625;0.483599998779027;373;-0.28997802734375;1 A;
265.259678330284;-0.772705078125;0.484899998775745;374;-0.28997802734375;1 A;
265.26097833028;-0.7720947265625;0.486199998772463;375;-0.289947509765625;1 A;
265.262278330277;-0.77239990234375;0.487499998769181;376;-0.290008544921875;1 A;
265.263578330274;-0.77239990234375;0.488799998765899;377;-0.28997802734375;1 A;
265.264878330271;-0.772705078125;0.490099998762616;378;-0.290008544921875;1 A;
265.266178330267;-0.772705078125;0.491399998759334;379;-0.289947509765625;1 A;
265.267478330264;-0.77239990234375;0.492699998756052;380;-0.28997802734375;1 A;
265.268778330261;-0.772705078125;0.49399999875277;381;-0.289947509765625;1 A;
265.270078330257;-0.772705078125;0.495299998749488;382;-0.28997802734375;1 A;
265.271378330254;-0.772705078125;0.496599998746206;383;-0.290008544921875;1 A;
265.272678330251;-0.772705078125;0.497899998742923;384;-0.290008544921875;1 A;
265.273978330248;-0.77301025390625;0.499199998739641;385;-0.28997802734375;1 A;
265.275278330244;-0.77301025390625;0.500499998736359;386;-0.290008544921875;1 A;
265.276578330241;-0.77301025390625;0.501799998733077;387;-0.28997802734375;1 A;
265.277878330238;-0.77301025390625;0.503099998729795;388;-0.28985595703125;1 A;
265.279178330234;-0.77301025390625;0.504399998726512;389;-0.289947509765625;1 A;
265.280478330231;-0.7733154296875;0.50569999872323;390;-0.2899169921875;1 A;
265.281778330228;-0.7733154296875;0.506999998719948;391;-0.290008544921875;1 A;
265.283078330225;-0.77362060546875;0.508299998716666;392;-0.2899169921875;1 A;
265.284378330221;-0.7733154296875;0.509599998713384;393;-0.28997802734375;1 A;
265.285678330218;-0.77362060546875;0.510899998710101;394;-0.289947509765625;1 A;
265.286978330215;-0.7733154296875;0.512199998706819;395;-0.28997802734375;1 A;
265.288278330211;-0.7733154296875;0.513499998703537;396;-0.290008544921875;1 A;
265.289578330208;-0.77392578125;0.514799998700255;397;-0.2899169921875;1 A;
265.290878330205;-0.77362060546875;0.516099998696973;398;-0.290008544921875;1 A;
265.292178330202;-0.77362060546875;0.517399998693691;399;-0.290008544921875;1 A;
265.293478330198;-0.77362060546875;0.518699998690408;400;-0.28997802734375;1 A;
265.294778330195;-0.77392578125;0.519999998687126;401;-0.290008544921875;1 A;
265.296078330192;-0.77392578125;0.521299998683844;402;-0.289947509765625;1 A;
265.297378330189;-0.77392578125;0.522599998680562;403;-0.2899169921875;1 A;
265.298678330185;-0.77392578125;0.52389999867728;404;-0.2900390625;1 A;
265.299978330182;-0.77423095703125;0.525199998673997;405;-0.28997802734375;1 A;
265.301278330179;-0.77423095703125;0.526499998670715;406;-0.289947509765625;1 A;
265.302578330175;-0.77423095703125;0.527799998667433;407;-0.289947509765625;1 A;
265.303878330172;-0.77392578125;0.529099998664151;408;-0.2899169921875;1 A;
265.305178330169;-0.77423095703125;0.530399998660869;409;-0.28997802734375;1 A;
265.306478330166;-0.7745361328125;0.531699998657587;410;-0.289947509765625;1 A;
265.307778330162;-0.77423095703125;0.532999998654304;411;-0.28997802734375;1 A;
265.309078330159;-0.77423095703125;0.534299998651022;412;-0.28997802734375;1 A;
265.310378330156;-0.77423095703125;0.53559999864774;413;-0.289947509765625;1 A;
265.311678330152;-0.77423095703125;0.536899998644458;414;-0.28997802734375;1 A;
265.312978330149;-0.7745361328125;0.538199998641176;415;-0.290008544921875;1 A;
265.314278330146;-0.7745361328125;0.539499998637893;416;-0.289947509765625;1 A;
265.315578330143;-0.77484130859375;0.540799998634611;417;-0.28997802734375;1 A;
265.316878330139;-0.7745361328125;0.542099998631329;418;-0.28997802734375;1 A;
265.318178330136;-0.7745361328125;0.543399998628047;419;-0.2900390625;1 A;
265.319478330133;-0.77484130859375;0.544699998624765;420;-0.289947509765625;1 A;
265.320778330129;-0.77484130859375;0.545999998621483;421;-0.28997802734375;1 A;
265.322078330126;-0.77484130859375;0.5472999986182;422;-0.289947509765625;1 A;
265.323378330123;-0.77484130859375;0.548599998614918;423;-0.28997802734375;1 A;
265.32467833012;-0.775146484375;0.549899998611636;424;-0.28997802734375;1 A;
265.325978330116;-0.77484130859375;0.551199998608354;425;-0.28997802734375;1 A;
265.327278330113;-0.77484130859375;0.552499998605072;426;-0.289947509765625;1 A;
265.32857833011;-0.775146484375;0.553799998601789;427;-0.289947509765625;1 A;
265.329878330106;-0.77545166015625;0.555099998598507;428;-0.289947509765625;1 A;
265.331178330103;-0.77545166015625;0.556399998595225;429;-0.290008544921875;1 A;
265.3324783301;-0.7757568359375;0.557699998591943;430;-0.290008544921875;1 A;
265.333778330097;-0.77545166015625;0.558999998588661;431;-0.28997802734375;1 A;
265.335078330093;-0.775146484375;0.560299998585378;432;-0.289947509765625;1 A;
265.33637833009;-0.7757568359375;0.561599998582096;433;-0.290008544921875;1 A;
265.337678330087;-0.77545166015625;0.562899998578814;434;-0.28997802734375;1 A;
265.338978330083;-0.77545166015625;0.564199998575532;435;-0.290008544921875;1 A;
265.34027833008;-0.7757568359375;0.56549999857225;436;-0.28997802734375;1 A;
265.341578330077;-0.7757568359375;0.566799998568968;437;-0.28997802734375;1 A;
265.342878330074;-0.7757568359375;0.568099998565685;438;-0.290008544921875;1 A;
265.34417833007;-0.77606201171875;0.569399998562403;439;-0.290008544921875;1 A;
265.345478330067;-0.77606201171875;0.570699998559121;440;-0.290008544921875;1 A;
265.346778330064;-0.7763671875;0.571999998555839;441;-0.28997802734375;1 A;
265.348078330061;-0.7763671875;0.573299998552557;442;-0.290008544921875;1 A;
265.349378330057;-0.77606201171875;0.574599998549274;443;-0.2899169921875;1 A;
265.350678330054;-0.77606201171875;0.575899998545992;444;-0.2899169921875;1 A;
265.351978330051;-0.77606201171875;0.57719999854271;445;-0.290008544921875;1 A;
265.353278330047;-0.77606201171875;0.578499998539428;446;-0.2899169921875;1 A;
265.354578330044;-0.7763671875;0.579799998536146;447;-0.289947509765625;1 A;
265.355878330041;-0.7763671875;0.581099998532864;448;-0.2900390625;1 A;
265.357178330038;-0.7763671875;0.582399998529581;449;-0.289947509765625;1 A;
265.358478330034;-0.7763671875;0.583699998526299;450;-0.289947509765625;1 A;
265.359778330031;-0.77667236328125;0.584999998523017;451;-0.28997802734375;1 A;
265.361078330028;-0.77667236328125;0.586299998519735;452;-0.28997802734375;1 A;
265.362378330024;-0.77667236328125;0.587599998516453;453;-0.28997802734375;1 A;
265.363678330021;-0.77667236328125;0.58889999851317;454;-0.289947509765625;1 A;
265.364978330018;-0.7769775390625;0.590199998509888;455;-0.28997802734375;1 A;
265.366278330015;-0.77667236328125;0.591499998506606;456;-0.290008544921875;1 A;
265.367578330011;-0.7769775390625;0.592799998503324;457;-0.290008544921875;1 A;
265.368878330008;-0.7769775390625;0.594099998500042;458;-0.28997802734375;1 A;
265.370178330005;-0.77728271484375;0.59539999849676;459;-0.28997802734375;1 A;
265.371478330001;-0.7769775390625;0.596699998493477;460;-0.28997802734375;1 A;
265.372778329998;-0.7769775390625;0.597999998490195;461;-0.290008544921875;1 A;
265.374078329995;-0.777587890625;0.599299998486913;462;-0.289947509765625;1 A;
265.375378329992;-0.77728271484375;0.600599998483631;463;-0.28997802734375;1 A;
265.376678329988;-0.77728271484375;0.601899998480349;464;-0.2899169921875;1 A;
265.377978329985;-0.77728271484375;0.603199998477066;465;-0.28997802734375;1 A;
265.379278329982;-0.777587890625;0.604499998473784;466;-0.290008544921875;1 A;
265.380578329978;-0.77728271484375;0.605799998470502;467;-0.289947509765625;1 A;
265.381878329975;-0.77789306640625;0.60709999846722;468;-0.290008544921875;1 A;
265.383178329972;-0.777587890625;0.608399998463938;469;-0.28997802734375;1 A;
265.384478329969;-0.77789306640625;0.609699998460655;470;-0.28997802734375;1 A;
265.385778329965;-0.777587890625;0.610999998457373;471;-0.28997802734375;1 A;
265.387078329962;-0.7781982421875;0.612299998454091;472;-0.290008544921875;1 A;
265.388378329959;-0.777587890625;0.613599998450809;473;-0.28997802734375;1 A;
265.389678329955;-0.7781982421875;0.614899998447527;474;-0.28997802734375;1 A;
265.390978329952;-0.77850341796875;0.616199998444245;475;-0.28997802734375;1 A;
265.392278329949;-0.77789306640625;0.617499998440962;476;-0.28997802734375;1 A;
265.393578329946;-0.77789306640625;0.61879999843768;477;-0.289947509765625;1 A;
265.394878329942;-0.7781982421875;0.620099998434398;478;-0.28997802734375;1 A;
265.396178329939;-0.7781982421875;0.621399998431116;479;-0.28997802734375;1 A;
265.397478329936;-0.77850341796875;0.622699998427834;480;-0.289947509765625;1 A;
265.398778329932;-0.77850341796875;0.623999998424551;481;-0.290008544921875;1 A;
265.400078329929;-0.7781982421875;0.625299998421269;482;-0.28997802734375;1 A;
265.401378329926;-0.77850341796875;0.626599998417987;483;-0.2900390625;1 A;
265.402678329923;-0.77880859375;0.627899998414705;484;-0.289947509765625;1 A;
265.403978329919;-0.77880859375;0.629199998411423;485;-0.289947509765625;1 A;
265.405278329916;-0.77850341796875;0.630499998408141;486;-0.2899169921875;1 A;
265.406578329913;-0.77880859375;0.631799998404858;487;-0.28997802734375;1 A;
265.40787832991;-0.77880859375;0.633099998401576;488;-0.289947509765625;1 A;
265.409178329906;-0.77880859375;0.634399998398294;489;-0.289947509765625;1 A;
265.410478329903;-0.77880859375;0.635699998395012;490;-0.28997802734375;1 A;
265.4117783299;-0.77911376953125;0.63699999839173;491;-0.290008544921875;1 A;
265.413078329896;-0.77911376953125;0.638299998388447;492;-0.28997802734375;1 A;
265.414378329893;-0.77911376953125;0.639599998385165;493;-0.290008544921875;1 A;
265.41567832989;-0.7794189453125;0.640899998381883;494;-0.289947509765625;1 A;
265.416978329887;-0.7794189453125;0.642199998378601;495;-0.289947509765625;1 A;
265.418278329883;-0.77911376953125;0.643499998375319;496;-0.290008544921875;1 A;
265.41957832988;-0.7794189453125;0.644799998372036;497;-0.289947509765625;1 A;
265.420878329877;-0.7794189453125;0.646099998368754;498;-0.289947509765625;1 A;
265.422178329873;-0.7794189453125;0.647399998365472;499;-0.289947509765625;1 A;
265.42347832987;-0.77911376953125;0.64869999836219;500;-0.289947509765625;1 A;
265.424778329867;-0.77972412109375;0.649999998358908;501;-0.28997802734375;1 A;
265.426078329864;-0.7794189453125;0.651299998355626;502;-0.290008544921875;1 A;
265.42737832986;-0.77972412109375;0.652599998352343;503;-0.2899169921875;1 A;
265.428678329857;-0.780029296875;0.653899998349061;504;-0.289947509765625;1 A;
265.429978329854;-0.77972412109375;0.655199998345779;505;-0.28997802734375;1 A;
265.43127832985;-0.780029296875;0.656499998342497;506;-0.290008544921875;1 A;
265.432578329847;-0.77972412109375;0.657799998339215;507;-0.28997802734375;1 A;
265.433878329844;-0.77972412109375;0.659099998335932;508;-0.28997802734375;1 A;
265.435178329841;-0.780029296875;0.66039999833265;509;-0.290008544921875;1 A;
265.436478329837;-0.78033447265625;0.661699998329368;510;-0.289947509765625;1 A;
265.437778329834;-0.780029296875;0.662999998326086;511;-0.28997802734375;1 A;
265.439078329831;-0.78033447265625;0.664299998322804;512;-0.2899169921875;1 A;
265.440378329827;-0.780029296875;0.665599998319522;513;-0.28997802734375;1 A;
265.441678329824;-0.78033447265625;0.666899998316239;514;-0.290008544921875;1 A;
265.442978329821;-0.78033447265625;0.668199998312957;515;-0.28997802734375;1 A;
265.444278329818;-0.78033447265625;0.669499998309675;516;-0.289947509765625;1 A;
265.445578329814;-0.7806396484375;0.670799998306393;517;-0.289947509765625;1 A;
265.446878329811;-0.7806396484375;0.672099998303111;518;-0.28997802734375;1 A;
265.448178329808;-0.7806396484375;0.673399998299828;519;-0.289947509765625;1 A;
265.449478329804;-0.7806396484375;0.674699998296546;520;-0.28997802734375;1 A;
265.450778329801;-0.7806396484375;0.675999998293264;521;-0.289947509765625;1 A;
265.452078329798;-0.78094482421875;0.677299998289982;522;-0.290008544921875;1 A;
265.453378329795;-0.78094482421875;0.6785999982867;523;-0.289947509765625;1 A;
265.454678329791;-0.78094482421875;0.679899998283418;524;-0.289947509765625;1 A;
265.455978329788;-0.78094482421875;0.681199998280135;525;-0.28997802734375;1 A;
265.457278329785;-0.78094482421875;0.682499998276853;526;-0.290008544921875;1 A;
265.458578329782;-0.78094482421875;0.683799998273571;527;-0.2899169921875;1 A;
265.459878329778;-0.78125;0.685099998270289;528;-0.2900390625;1 A;
265.461178329775;-0.78094482421875;0.686399998267007;529;-0.289947509765625;1 A;
265.462478329772;-0.78125;0.687699998263724;530;-0.28997802734375;1 A;
265.463778329768;-0.78125;0.688999998260442;531;-0.289947509765625;1 A;
265.465078329765;-0.78125;0.69029999825716;532;-0.28997802734375;1 A;
265.466378329762;-0.78155517578125;0.691599998253878;533;-0.28997802734375;1 A;
265.467678329759;-0.78155517578125;0.692899998250596;534;-0.28997802734375;1 A;
265.468978329755;-0.78125;0.694199998247313;535;-0.289886474609375;1 A;
265.470278329752;-0.7818603515625;0.695499998244031;536;-0.290008544921875;1 A;
265.471578329749;-0.7818603515625;0.696799998240749;537;-0.290008544921875;1 A;
265.472878329745;-0.7818603515625;0.698099998237467;538;-0.28997802734375;1 A;
265.474178329742;-0.7818603515625;0.699399998234185;539;-0.2900390625;1 A;
265.475478329739;-0.7818603515625;0.700699998230903;540;-0.290069580078125;1 A;
265.476778329736;-0.7818603515625;0.70199999822762;541;-0.289947509765625;1 A;
265.478078329732;-0.782470703125;0.703299998224338;542;-0.290008544921875;1 A;
265.479378329729;-0.78216552734375;0.704599998221056;543;-0.290008544921875;1 A;
265.480678329726;-0.78216552734375;0.705899998217774;544;-0.289947509765625;1 A;
265.481978329722;-0.78216552734375;0.707199998214492;545;-0.290008544921875;1 A;
265.483278329719;-0.782470703125;0.708499998211209;546;-0.28997802734375;1 A;
265.484578329716;-0.78216552734375;0.709799998207927;547;-0.28997802734375;1 A;
265.485878329713;-0.782470703125;0.711099998204645;548;-0.289947509765625;1 A;
265.487178329709;-0.782470703125;0.712399998201363;549;-0.28997802734375;1 A;
265.488478329706;-0.78277587890625;0.713699998198081;550;-0.28997802734375;1 A;
265.489778329703;-0.7830810546875;0.714999998194799;551;-0.289947509765625;1 A;
265.491078329699;-0.7830810546875;0.716299998191516;552;-0.289947509765625;1 A;
265.492378329696;-0.78277587890625;0.717599998188234;553;-0.28997802734375;1 A;
265.493678329693;-0.7830810546875;0.718899998184952;554;-0.28997802734375;1 A;
265.49497832969;-0.78277587890625;0.72019999818167;555;-0.289947509765625;1 A;
265.496278329686;-0.7830810546875;0.721499998178388;556;-0.289947509765625;1 A;
265.497578329683;-0.7830810546875;0.722799998175105;557;-0.289947509765625;1 A;
265.49887832968;-0.7830810546875;0.724099998171823;558;-0.289947509765625;1 A;
265.500178329676;-0.7830810546875;0.725399998168541;559;-0.28997802734375;1 A;
265.501478329673;-0.7830810546875;0.726699998165259;560;-0.28997802734375;1 A;
265.50277832967;-0.78338623046875;0.727999998161977;561;-0.28997802734375;1 A;
265.504078329667;-0.78338623046875;0.729299998158695;562;-0.290008544921875;1 A;
265.505378329663;-0.78369140625;0.730599998155412;563;-0.290008544921875;1 A;
265.50667832966;-0.78369140625;0.73189999815213;564;-0.289947509765625;1 A;
265.507978329657;-0.78369140625;0.733199998148848;565;-0.290008544921875;1 A;
265.509278329654;-0.78399658203125;0.734499998145566;566;-0.289947509765625;1 A;
265.51057832965;-0.78369140625;0.735799998142284;567;-0.28997802734375;1 A;
265.511878329647;-0.78369140625;0.737099998139001;568;-0.290008544921875;1 A;
265.513178329644;-0.78369140625;0.738399998135719;569;-0.28997802734375;1 A;
265.51447832964;-0.78399658203125;0.739699998132437;570;-0.28997802734375;1 A;
265.515778329637;-0.78399658203125;0.740999998129155;571;-0.289947509765625;1 A;
265.517078329634;-0.78369140625;0.742299998125873;572;-0.2899169921875;1 A;
265.518378329631;-0.7843017578125;0.74359999812259;573;-0.28997802734375;1 A;
265.519678329627;-0.7843017578125;0.744899998119308;574;-0.290008544921875;1 A;
265.520978329624;-0.7843017578125;0.746199998116026;575;-0.289947509765625;1 A;
265.522278329621;-0.7843017578125;0.747499998112744;576;-0.28997802734375;1 A;
265.523578329617;-0.7843017578125;0.748799998109462;577;-0.28997802734375;1 A;
265.524878329614;-0.78460693359375;0.75009999810618;578;-0.289947509765625;1 A;
265.526178329611;-0.78460693359375;0.751399998102897;579;-0.289947509765625;1 A;
265.527478329608;-0.78460693359375;0.752699998099615;580;-0.290008544921875;1 A;
265.528778329604;-0.784912109375;0.753999998096333;581;-0.289947509765625;1 A;
265.530078329601;-0.78460693359375;0.755299998093051;582;-0.28997802734375;1 A;
265.531378329598;-0.784912109375;0.756599998089769;583;-0.28997802734375;1 A;
265.532678329594;-0.784912109375;0.757899998086486;584;-0.28997802734375;1 A;
265.533978329591;-0.78521728515625;0.759199998083204;585;-0.28997802734375;1 A;
265.535278329588;-0.78521728515625;0.760499998079922;586;-0.28997802734375;1 A;
265.536578329585;-0.78521728515625;0.76179999807664;587;-0.28997802734375;1 A;
265.537878329581;-0.7855224609375;0.763099998073358;588;-0.2899169921875;1 A;
265.539178329578;-0.78521728515625;0.764399998070076;589;-0.28997802734375;1 A;
265.540478329575;-0.7855224609375;0.765699998066793;590;-0.28997802734375;1 A;
265.541778329571;-0.78521728515625;0.766999998063511;591;-0.28997802734375;1 A;
265.543078329568;-0.7855224609375;0.768299998060229;592;-0.2899169921875;1 A;
265.544378329565;-0.78582763671875;0.769599998056947;593;-0.290008544921875;1 A;
265.545678329562;-0.78582763671875;0.770899998053665;594;-0.290008544921875;1 A;
265.546978329558;-0.7855224609375;0.772199998050382;595;-0.289947509765625;1 A;
265.548278329555;-0.78582763671875;0.7734999980471;596;-0.28997802734375;1 A;
265.549578329552;-0.78582763671875;0.774799998043818;597;-0.289947509765625;1 A;
265.550878329548;-0.78582763671875;0.776099998040536;598;-0.289947509765625;1 A;
265.552178329545;-0.7861328125;0.777399998037254;599;-0.290008544921875;1 A;
265.553478329542;-0.78582763671875;0.778699998033971;600;-0.289947509765625;1 A;
265.554778329539;-0.7861328125;0.779999998030689;601;-0.289947509765625;1 A;
265.556078329535;-0.7861328125;0.781299998027407;602;-0.28997802734375;1 A;
265.557378329532;-0.7861328125;0.782599998024125;603;-0.2899169921875;1 A;
265.558678329529;-0.7867431640625;0.783899998020843;604;-0.289947509765625;1 A;
265.559978329526;-0.78643798828125;0.785199998017561;605;-0.289947509765625;1 A;
265.561278329522;-0.78643798828125;0.786499998014278;606;-0.289947509765625;1 A;
265.562578329519;-0.7867431640625;0.787799998010996;607;-0.28997802734375;1 A;
265.563878329516;-0.78704833984375;0.789099998007714;608;-0.289947509765625;1 A;
265.565178329512;-0.7867431640625;0.790399998004432;609;-0.28997802734375;1 A;
265.566478329509;-0.78704833984375;0.79169999800115;610;-0.28997802734375;1 A;
265.567778329506;-0.78704833984375;0.792999997997867;611;-0.289947509765625;1 A;
265.569078329503;-0.787353515625;0.794299997994585;612;-0.289947509765625;1 A;
265.570378329499;-0.78704833984375;0.795599997991303;613;-0.28997802734375;1 A;
265.571678329496;-0.78704833984375;0.796899997988021;614;-0.28997802734375;1 A;
265.572978329493;-0.78704833984375;0.798199997984739;615;-0.28997802734375;1 A;
265.574278329489;-0.78704833984375;0.799499997981457;616;-0.28997802734375;1 A;
265.575578329486;-0.787353515625;0.800799997978174;617;-0.28997802734375;1 A;
265.576878329483;-0.78765869140625;0.802099997974892;618;-0.289947509765625;1 A;
265.57817832948;-0.7879638671875;0.80339999797161;619;-0.28997802734375;1 A;
265.579478329476;-0.78765869140625;0.804699997968328;620;-0.28997802734375;1 A;
265.580778329473;-0.78765869140625;0.805999997965046;621;-0.28997802734375;1 A;
265.58207832947;-0.7879638671875;0.807299997961763;622;-0.28997802734375;1 A;
265.583378329466;-0.7879638671875;0.808599997958481;623;-0.289947509765625;1 A;
265.584678329463;-0.7879638671875;0.809899997955199;624;-0.2899169921875;1 A;
265.58597832946;-0.7879638671875;0.811199997951917;625;-0.28997802734375;1 A;
265.587278329457;-0.7879638671875;0.812499997948635;626;-0.28997802734375;1 A;
265.588578329453;-0.78826904296875;0.813799997945353;627;-0.28997802734375;1 A;
265.58987832945;-0.78826904296875;0.81509999794207;628;-0.290008544921875;1 A;
265.591178329447;-0.78826904296875;0.816399997938788;629;-0.289947509765625;1 A;
265.592478329443;-0.78857421875;0.817699997935506;630;-0.290008544921875;1 A;
265.59377832944;-0.78826904296875;0.818999997932224;631;-0.28997802734375;1 A;
265.595078329437;-0.78887939453125;0.820299997928942;632;-0.28997802734375;1 A;
265.596378329434;-0.78857421875;0.821599997925659;633;-0.2899169921875;1 A;
265.59767832943;-0.78887939453125;0.822899997922377;634;-0.290008544921875;1 A;
265.598978329427;-0.78887939453125;0.824199997919095;635;-0.28997802734375;1 A;
265.600278329424;-0.78887939453125;0.825499997915813;636;-0.2900390625;1 A;
265.60157832942;-0.78887939453125;0.826799997912531;637;-0.290008544921875;1 A;
265.602878329417;-0.78887939453125;0.828099997909248;638;-0.290008544921875;1 A;
265.604178329414;-0.78948974609375;0.829399997905966;639;-0.28997802734375;1 A;
265.605478329411;-0.7891845703125;0.830699997902684;640;-0.2899169921875;1 A;
265.606778329407;-0.7891845703125;0.831999997899402;641;-0.289947509765625;1 A;
265.608078329404;-0.78948974609375;0.83329999789612;642;-0.28997802734375;1 A;
265.609378329401;-0.789794921875;0.834599997892838;643;-0.2900390625;1 A;
265.610678329398;-0.7891845703125;0.835899997889555;644;-0.289947509765625;1 A;
265.611978329394;-0.789794921875;0.837199997886273;645;-0.289886474609375;1 A;
265.613278329391;-0.789794921875;0.838499997882991;646;-0.290008544921875;1 A;
265.614578329388;-0.789794921875;0.839799997879709;647;-0.289947509765625;1 A;
265.615878329384;-0.789794921875;0.841099997876427;648;-0.290008544921875;1 A;
265.617178329381;-0.79010009765625;0.842399997873144;649;-0.2900390625;1 A;
265.618478329378;-0.79010009765625;0.843699997869862;650;-0.289947509765625;1 A;
265.619778329375;-0.789794921875;0.84499999786658;651;-0.289947509765625;1 A;
265.621078329371;-0.79010009765625;0.846299997863298;652;-0.28997802734375;1 A;
265.622378329368;-0.7904052734375;0.847599997860016;653;-0.290008544921875;1 A;
265.623678329365;-0.7904052734375;0.848899997856734;654;-0.28997802734375;1 A;
265.624978329361;-0.7904052734375;0.850199997853451;655;-0.28997802734375;1 A;
265.626278329358;-0.79071044921875;0.851499997850169;656;-0.28997802734375;1 A;
265.627578329355;-0.791015625;0.852799997846887;657;-0.289947509765625;1 A;
265.628878329352;-0.79071044921875;0.854099997843605;658;-0.290008544921875;1 A;
265.630178329348;-0.79071044921875;0.855399997840323;659;-0.2899169921875;1 A;
265.631478329345;-0.7904052734375;0.85669999783704;660;-0.289947509765625;1 A;
265.632778329342;-0.79071044921875;0.857999997833758;661;-0.2899169921875;1 A;
265.634078329338;-0.791015625;0.859299997830476;662;-0.28997802734375;1 A;
265.635378329335;-0.791015625;0.860599997827194;663;-0.28997802734375;1 A;
265.636678329332;-0.79132080078125;0.861899997823912;664;-0.28997802734375;1 A;
265.637978329329;-0.7916259765625;0.86319999782063;665;-0.28997802734375;1 A;
265.639278329325;-0.79132080078125;0.864499997817347;666;-0.28997802734375;1 A;
265.640578329322;-0.79132080078125;0.865799997814065;667;-0.289947509765625;1 A;
265.641878329319;-0.7916259765625;0.867099997810783;668;-0.28997802734375;1 A;
265.643178329315;-0.7916259765625;0.868399997807501;669;-0.2900390625;1 A;
265.644478329312;-0.7916259765625;0.869699997804219;670;-0.289947509765625;1 A;
265.645778329309;-0.792236328125;0.870999997800936;671;-0.290008544921875;1 A;
265.647078329306;-0.79193115234375;0.872299997797654;672;-0.289947509765625;1 A;
265.648378329302;-0.79193115234375;0.873599997794372;673;-0.2900390625;1 A;
265.649678329299;-0.792236328125;0.87489999779109;674;-0.290008544921875;1 A;
265.650978329296;-0.79254150390625;0.876199997787808;675;-0.289947509765625;1 A;
265.652278329292;-0.79254150390625;0.877499997784525;676;-0.289947509765625;1 A;
265.653578329289;-0.79254150390625;0.878799997781243;677;-0.289947509765625;1 A;
265.654878329286;-0.79254150390625;0.880099997777961;678;-0.28997802734375;1 A;
265.656178329283;-0.79254150390625;0.881399997774679;679;-0.289947509765625;1 A;
265.657478329279;-0.79254150390625;0.882699997771397;680;-0.2899169921875;1 A;
265.658778329276;-0.7928466796875;0.883999997768115;681;-0.2900390625;1 A;
265.660078329273;-0.7928466796875;0.885299997764832;682;-0.2899169921875;1 A;
265.661378329269;-0.7928466796875;0.88659999776155;683;-0.28997802734375;1 A;
265.662678329266;-0.79315185546875;0.887899997758268;684;-0.2900390625;1 A;
265.663978329263;-0.79315185546875;0.889199997754986;685;-0.290008544921875;1 A;
265.66527832926;-0.7928466796875;0.890499997751704;686;-0.2900390625;1 A;
265.666578329256;-0.7928466796875;0.891799997748421;687;-0.28997802734375;1 A;
265.667878329253;-0.79345703125;0.893099997745139;688;-0.28997802734375;1 A;
265.66917832925;-0.79345703125;0.894399997741857;689;-0.28997802734375;1 A;
265.670478329247;-0.79345703125;0.895699997738575;690;-0.290008544921875;1 A;
265.671778329243;-0.7940673828125;0.896999997735293;691;-0.28997802734375;1 A;
265.67307832924;-0.79345703125;0.898299997732011;692;-0.289947509765625;1 A;
265.674378329237;-0.79376220703125;0.899599997728728;693;-0.290008544921875;1 A;
265.675678329233;-0.79345703125;0.900899997725446;694;-0.289947509765625;1 A;
265.67697832923;-0.79376220703125;0.902199997722164;695;-0.28997802734375;1 A;
265.678278329227;-0.79437255859375;0.903499997718882;696;-0.289947509765625;1 A;
265.679578329224;-0.7940673828125;0.9047999977156;697;-0.28997802734375;1 A;
265.68087832922;-0.79437255859375;0.906099997712317;698;-0.289947509765625;1 A;
265.682178329217;-0.79437255859375;0.907399997709035;699;-0.289886474609375;1 A;
265.683478329214;-0.79437255859375;0.908699997705753;700;-0.28997802734375;1 A;
265.68477832921;-0.79437255859375;0.909999997702471;701;-0.289947509765625;1 A;
265.686078329207;-0.79437255859375;0.911299997699189;702;-0.28997802734375;1 A;
265.687378329204;-0.794677734375;0.912599997695906;703;-0.28997802734375;1 A;
265.688678329201;-0.79437255859375;0.913899997692624;704;-0.28997802734375;1 A;
265.689978329197;-0.79498291015625;0.915199997689342;705;-0.290008544921875;1 A;
265.691278329194;-0.79498291015625;0.91649999768606;706;-0.289947509765625;1 A;
265.692578329191;-0.79498291015625;0.917799997682778;707;-0.289947509765625;1 A;
265.693878329187;-0.79498291015625;0.919099997679496;708;-0.2900390625;1 A;
265.695178329184;-0.7952880859375;0.920399997676213;709;-0.289947509765625;1 A;
265.696478329181;-0.79559326171875;0.921699997672931;710;-0.289947509765625;1 A;
265.697778329178;-0.79559326171875;0.922999997669649;711;-0.28997802734375;1 A;
265.699078329174;-0.7952880859375;0.924299997666367;712;-0.28997802734375;1 A;
265.700378329171;-0.79559326171875;0.925599997663085;713;-0.289947509765625;1 A;
265.701678329168;-0.7958984375;0.926899997659802;714;-0.28997802734375;1 A;
265.702978329164;-0.7958984375;0.92819999765652;715;-0.290008544921875;1 A;
265.704278329161;-0.7958984375;0.929499997653238;716;-0.289947509765625;1 A;
265.705578329158;-0.7958984375;0.930799997649956;717;-0.290008544921875;1 A;
265.706878329155;-0.79620361328125;0.932099997646674;718;-0.289947509765625;1 A;
265.708178329151;-0.79620361328125;0.933399997643392;719;-0.28997802734375;1 A;
265.709478329148;-0.79620361328125;0.934699997640109;720;-0.289947509765625;1 A;
265.710778329145;-0.79681396484375;0.935999997636827;721;-0.290008544921875;1 A;
265.712078329141;-0.7965087890625;0.937299997633545;722;-0.290008544921875;1 A;
265.713378329138;-0.79681396484375;0.938599997630263;723;-0.28997802734375;1 A;
265.714678329135;-0.7965087890625;0.939899997626981;724;-0.28997802734375;1 A;
265.715978329132;-0.79681396484375;0.941199997623698;725;-0.28997802734375;1 A;
265.717278329128;-0.79681396484375;0.942499997620416;726;-0.290008544921875;1 A;
265.718578329125;-0.797119140625;0.943799997617134;727;-0.28997802734375;1 A;
265.719878329122;-0.797119140625;0.945099997613852;728;-0.290008544921875;1 A;
265.721178329119;-0.79742431640625;0.94639999761057;729;-0.28997802734375;1 A;
265.722478329115;-0.79742431640625;0.947699997607288;730;-0.290008544921875;1 A;
265.723778329112;-0.79742431640625;0.948999997604005;731;-0.290008544921875;1 A;
265.725078329109;-0.79742431640625;0.950299997600723;732;-0.28997802734375;1 A;
265.726378329105;-0.79742431640625;0.951599997597441;733;-0.289947509765625;1 A;
265.727678329102;-0.7977294921875;0.952899997594159;734;-0.289947509765625;1 A;
265.728978329099;-0.79803466796875;0.954199997590877;735;-0.290008544921875;1 A;
265.730278329096;-0.7977294921875;0.955499997587594;736;-0.28997802734375;1 A;
265.731578329092;-0.7977294921875;0.956799997584312;737;-0.289947509765625;1 A;
265.732878329089;-0.79803466796875;0.95809999758103;738;-0.28997802734375;1 A;
265.734178329086;-0.79833984375;0.959399997577748;739;-0.289947509765625;1 A;
265.735478329082;-0.79833984375;0.960699997574466;740;-0.289947509765625;1 A;
265.736778329079;-0.79833984375;0.961999997571183;741;-0.290008544921875;1 A;
265.738078329076;-0.79864501953125;0.963299997567901;742;-0.289947509765625;1 A;
265.739378329073;-0.79864501953125;0.964599997564619;743;-0.289947509765625;1 A;
265.740678329069;-0.79864501953125;0.965899997561337;744;-0.290008544921875;1 A;
265.741978329066;-0.7989501953125;0.967199997558055;745;-0.289947509765625;1 A;
265.743278329063;-0.7989501953125;0.968499997554773;746;-0.290008544921875;1 A;
265.744578329059;-0.7989501953125;0.96979999755149;747;-0.289947509765625;1 A;
265.745878329056;-0.7989501953125;0.971099997548208;748;-0.28997802734375;1 A;
265.747178329053;-0.79925537109375;0.972399997544926;749;-0.2899169921875;1 A;
265.74847832905;-0.799560546875;0.973699997541644;750;-0.2899169921875;1 A;
265.749778329046;-0.799560546875;0.974999997538362;751;-0.28997802734375;1 A;
265.751078329043;-0.799560546875;0.976299997535079;752;-0.289947509765625;1 A;
265.75237832904;-0.799560546875;0.977599997531797;753;-0.28997802734375;1 A;
265.753678329036;-0.799560546875;0.978899997528515;754;-0.289947509765625;1 A;
265.754978329033;-0.79986572265625;0.980199997525233;755;-0.2899169921875;1 A;
265.75627832903;-0.79986572265625;0.981499997521951;756;-0.28997802734375;1 A;
265.757578329027;-0.79986572265625;0.982799997518669;757;-0.2899169921875;1 A;
265.758878329023;-0.8001708984375;0.984099997515386;758;-0.28997802734375;1 A;
265.76017832902;-0.80047607421875;0.985399997512104;759;-0.289947509765625;1 A;
265.761478329017;-0.80047607421875;0.986699997508822;760;-0.290008544921875;1 A;
265.762778329013;-0.80047607421875;0.98799999750554;761;-0.289947509765625;1 A;
265.76407832901;-0.80078125;0.989299997502258;762;-0.2900390625;1 A;
265.765378329007;-0.80078125;0.990599997498975;763;-0.290008544921875;1 A;
265.766678329004;-0.80108642578125;0.991899997495693;764;-0.28997802734375;1 A;
265.767978329;-0.80108642578125;0.993199997492411;765;-0.2899169921875;1 A;
265.769278328997;-0.8013916015625;0.994499997489129;766;-0.289947509765625;1 A;
265.770578328994;-0.8013916015625;0.995799997485847;767;-0.289947509765625;1 A;
265.771878328991;-0.8013916015625;0.997099997482565;768;-0.28997802734375;1 A;
265.773178328987;-0.8013916015625;0.998399997479282;769;-0.2900390625;1 A;
265.774478328984;-0.8013916015625;0.999699997476;770;-0.28997802734375;1 A;
265.775778328981;-0.80169677734375;1.00099999747272;771;-0.2899169921875;1 A;
265.777078328977;-0.80169677734375;1.00229999746944;772;-0.28997802734375;1 A;
265.778378328974;-0.802001953125;1.00359999746615;773;-0.289947509765625;1 A;
265.779678328971;-0.802001953125;1.00489999746287;774;-0.290008544921875;1 A;
265.780978328968;-0.8026123046875;1.00619999745959;775;-0.290008544921875;1 A;
265.782278328964;-0.80230712890625;1.00749999745631;776;-0.28997802734375;1 A;
265.783578328961;-0.8026123046875;1.00879999745302;777;-0.28997802734375;1 A;
265.784878328958;-0.80230712890625;1.01009999744974;778;-0.28997802734375;1 A;
265.786178328954;-0.8026123046875;1.01139999744646;779;-0.289886474609375;1 A;
265.787478328951;-0.8026123046875;1.01269999744318;780;-0.289947509765625;1 A;
265.788778328948;-0.80291748046875;1.0139999974399;781;-0.28997802734375;1 A;
265.790078328945;-0.80322265625;1.01529999743661;782;-0.28997802734375;1 A;
265.791378328941;-0.8026123046875;1.01659999743333;783;-0.290008544921875;1 A;
265.792678328938;-0.80352783203125;1.01789999743005;784;-0.290008544921875;1 A;
265.793978328935;-0.80322265625;1.01919999742677;785;-0.290008544921875;1 A;
265.795278328931;-0.80352783203125;1.02049999742349;786;-0.290008544921875;1 A;
265.796578328928;-0.80352783203125;1.0217999974202;787;-0.2899169921875;1 A;
265.797878328925;-0.8038330078125;1.02309999741692;788;-0.290008544921875;1 A;
265.799178328922;-0.80352783203125;1.02439999741364;789;-0.289947509765625;1 A;
265.800478328918;-0.8038330078125;1.02569999741036;790;-0.290008544921875;1 A;
265.801778328915;-0.80413818359375;1.02699999740707;791;-0.28997802734375;1 A;
265.803078328912;-0.8038330078125;1.02829999740379;792;-0.290069580078125;1 A;
265.804378328908;-0.80413818359375;1.02959999740051;793;-0.2899169921875;1 A;
265.805678328905;-0.80413818359375;1.03089999739723;794;-0.28997802734375;1 A;
265.806978328902;-0.804443359375;1.03219999739395;795;-0.289947509765625;1 A;
265.808278328899;-0.804443359375;1.03349999739066;796;-0.289947509765625;1 A;
265.809578328895;-0.80474853515625;1.03479999738738;797;-0.2899169921875;1 A;
265.810878328892;-0.80474853515625;1.0360999973841;798;-0.28997802734375;1 A;
265.812178328889;-0.8050537109375;1.03739999738082;799;-0.28997802734375;1 A;
265.813478328885;-0.80535888671875;1.03869999737753;800;-0.28997802734375;1 A;
265.814778328882;-0.8050537109375;1.03999999737425;801;-0.290008544921875;1 A;
265.816078328879;-0.8056640625;1.04129999737097;802;-0.289947509765625;1 A;
265.817378328876;-0.8056640625;1.04259999736769;803;-0.289947509765625;1 A;
265.818678328872;-0.80535888671875;1.04389999736441;804;-0.28997802734375;1 A;
265.819978328869;-0.80596923828125;1.04519999736112;805;-0.290008544921875;1 A;
265.821278328866;-0.8056640625;1.04649999735784;806;-0.28997802734375;1 A;
265.822578328863;-0.80596923828125;1.04779999735456;807;-0.28997802734375;1 A;
265.823878328859;-0.8062744140625;1.04909999735128;808;-0.289947509765625;1 A;
265.825178328856;-0.8062744140625;1.05039999734799;809;-0.28997802734375;1 A;
265.826478328853;-0.80657958984375;1.05169999734471;810;-0.290008544921875;1 A;
265.827778328849;-0.80657958984375;1.05299999734143;811;-0.289947509765625;1 A;
265.829078328846;-0.80657958984375;1.05429999733815;812;-0.28997802734375;1 A;
265.830378328843;-0.80718994140625;1.05559999733487;813;-0.290008544921875;1 A;
265.83167832884;-0.806884765625;1.05689999733158;814;-0.28997802734375;1 A;
265.832978328836;-0.806884765625;1.0581999973283;815;-0.289947509765625;1 A;
265.834278328833;-0.80718994140625;1.05949999732502;816;-0.2899169921875;1 A;
265.83557832883;-0.8074951171875;1.06079999732174;817;-0.28997802734375;1 A;
265.836878328826;-0.8074951171875;1.06209999731846;818;-0.290008544921875;1 A;
265.838178328823;-0.8074951171875;1.06339999731517;819;-0.2899169921875;1 A;
265.83947832882;-0.80780029296875;1.06469999731189;820;-0.289947509765625;1 A;
265.840778328817;-0.80780029296875;1.06599999730861;821;-0.28997802734375;1 A;
265.842078328813;-0.80810546875;1.06729999730533;822;-0.289947509765625;1 A;
265.84337832881;-0.80780029296875;1.06859999730204;823;-0.28997802734375;1 A;
265.844678328807;-0.80780029296875;1.06989999729876;824;-0.2899169921875;1 A;
265.845978328803;-0.80780029296875;1.07119999729548;825;-0.289886474609375;1 A;
265.8472783288;-0.80841064453125;1.0724999972922;826;-0.28997802734375;1 A;
265.848578328797;-0.8087158203125;1.07379999728892;827;-0.2899169921875;1 A;
265.849878328794;-0.80902099609375;1.07509999728563;828;-0.28997802734375;1 A;
265.85117832879;-0.8087158203125;1.07639999728235;829;-0.2899169921875;1 A;
265.852478328787;-0.80902099609375;1.07769999727907;830;-0.289947509765625;1 A;
265.853778328784;-0.80902099609375;1.07899999727579;831;-0.290008544921875;1 A;
265.85507832878;-0.809326171875;1.0802999972725;832;-0.290008544921875;1 A;
265.856378328777;-0.809326171875;1.08159999726922;833;-0.289947509765625;1 A;
265.857678328774;-0.8099365234375;1.08289999726594;834;-0.289947509765625;1 A;
265.858978328771;-0.8099365234375;1.08419999726266;835;-0.28997802734375;1 A;
265.860278328767;-0.8099365234375;1.08549999725938;836;-0.289947509765625;1 A;
265.861578328764;-0.8099365234375;1.08679999725609;837;-0.28997802734375;1 A;
265.862878328761;-0.8099365234375;1.08809999725281;838;-0.289947509765625;1 A;
265.864178328757;-0.81024169921875;1.08939999724953;839;-0.289886474609375;1 A;
265.865478328754;-0.810546875;1.09069999724625;840;-0.28997802734375;1 A;
265.866778328751;-0.81085205078125;1.09199999724297;841;-0.289947509765625;1 A;
265.868078328748;-0.81085205078125;1.09329999723968;842;-0.2899169921875;1 A;
265.869378328744;-0.81085205078125;1.0945999972364;843;-0.290008544921875;1 A;
265.870678328741;-0.81085205078125;1.09589999723312;844;-0.290008544921875;1 A;
265.871978328738;-0.8111572265625;1.09719999722984;845;-0.2899169921875;1 A;
265.873278328735;-0.81146240234375;1.09849999722655;846;-0.28997802734375;1 A;
265.874578328731;-0.811767578125;1.09979999722327;847;-0.289947509765625;1 A;
265.875878328728;-0.811767578125;1.10109999721999;848;-0.289947509765625;1 A;
265.877178328725;-0.81207275390625;1.10239999721671;849;-0.290008544921875;1 A;
265.878478328721;-0.81207275390625;1.10369999721343;850;-0.28997802734375;1 A;
265.879778328718;-0.81207275390625;1.10499999721014;851;-0.28997802734375;1 A;
265.881078328715;-0.81207275390625;1.10629999720686;852;-0.2899169921875;1 A;
265.882378328712;-0.8123779296875;1.10759999720358;853;-0.28997802734375;1 A;
265.883678328708;-0.8123779296875;1.1088999972003;854;-0.289947509765625;1 A;
265.884978328705;-0.81268310546875;1.11019999719701;855;-0.290008544921875;1 A;
265.886278328702;-0.81298828125;1.11149999719373;856;-0.28997802734375;1 A;
265.887578328698;-0.81298828125;1.11279999719045;857;-0.28997802734375;1 A;
265.888878328695;-0.81329345703125;1.11409999718717;858;-0.290008544921875;1 A;
265.890178328692;-0.81329345703125;1.11539999718389;859;-0.290008544921875;1 A;
265.891478328689;-0.81329345703125;1.1166999971806;860;-0.289947509765625;1 A;
265.892778328685;-0.8135986328125;1.11799999717732;861;-0.289947509765625;1 A;
265.894078328682;-0.8135986328125;1.11929999717404;862;-0.28997802734375;1 A;
265.895378328679;-0.81390380859375;1.12059999717076;863;-0.289947509765625;1 A;
265.896678328675;-0.81390380859375;1.12189999716747;864;-0.28997802734375;1 A;
265.897978328672;-0.814208984375;1.12319999716419;865;-0.2899169921875;1 A;
265.899278328669;-0.814208984375;1.12449999716091;866;-0.290008544921875;1 A;
265.900578328666;-0.81451416015625;1.12579999715763;867;-0.289947509765625;1 A;
265.901878328662;-0.8148193359375;1.12709999715435;868;-0.290008544921875;1 A;
265.903178328659;-0.8148193359375;1.12839999715106;869;-0.2899169921875;1 A;
265.904478328656;-0.81512451171875;1.12969999714778;870;-0.289947509765625;1 A;
265.905778328652;-0.81512451171875;1.1309999971445;871;-0.2900390625;1 A;
265.907078328649;-0.8154296875;1.13229999714122;872;-0.28997802734375;1 A;
265.908378328646;-0.8154296875;1.13359999713794;873;-0.28997802734375;1 A;
265.909678328643;-0.81573486328125;1.13489999713465;874;-0.289947509765625;1 A;
265.910978328639;-0.8160400390625;1.13619999713137;875;-0.2899169921875;1 A;
265.912278328636;-0.8160400390625;1.13749999712809;876;-0.28997802734375;1 A;
265.913578328633;-0.8160400390625;1.13879999712481;877;-0.28997802734375;1 A;
265.914878328629;-0.81634521484375;1.14009999712152;878;-0.28997802734375;1 A;
265.916178328626;-0.816650390625;1.14139999711824;879;-0.289947509765625;1 A;
265.917478328623;-0.81695556640625;1.14269999711496;880;-0.289947509765625;1 A;
265.91877832862;-0.81695556640625;1.14399999711168;881;-0.289947509765625;1 A;
265.920078328616;-0.81695556640625;1.1452999971084;882;-0.28997802734375;1 A;
265.921378328613;-0.8172607421875;1.14659999710511;883;-0.2899169921875;1 A;
265.92267832861;-0.81756591796875;1.14789999710183;884;-0.2899169921875;1 A;
265.923978328606;-0.81756591796875;1.14919999709855;885;-0.2899169921875;1 A;
265.925278328603;-0.81787109375;1.15049999709527;886;-0.28997802734375;1 A;
265.9265783286;-0.81787109375;1.15179999709198;887;-0.28997802734375;1 A;
265.927878328597;-0.81817626953125;1.1530999970887;888;-0.28997802734375;1 A;
265.929178328593;-0.8184814453125;1.15439999708542;889;-0.28997802734375;1 A;
265.93047832859;-0.8184814453125;1.15569999708214;890;-0.289947509765625;1 A;
265.931778328587;-0.81878662109375;1.15699999707886;891;-0.289947509765625;1 A;
265.933078328584;-0.819091796875;1.15829999707557;892;-0.28997802734375;1 A;
265.93437832858;-0.819091796875;1.15959999707229;893;-0.289947509765625;1 A;
265.935678328577;-0.819091796875;1.16089999706901;894;-0.28997802734375;1 A;
265.936978328574;-0.81939697265625;1.16219999706573;895;-0.28997802734375;1 A;
265.93827832857;-0.82000732421875;1.16349999706244;896;-0.28997802734375;1 A;
265.939578328567;-0.81939697265625;1.16479999705916;897;-0.28997802734375;1 A;
265.940878328564;-0.82000732421875;1.16609999705588;898;-0.289947509765625;1 A;
265.942178328561;-0.8203125;1.1673999970526;899;-0.290008544921875;1 A;
265.943478328557;-0.8203125;1.16869999704932;900;-0.289947509765625;1 A;
265.944778328554;-0.82061767578125;1.16999999704603;901;-0.2899169921875;1 A;
265.946078328551;-0.8209228515625;1.17129999704275;902;-0.28997802734375;1 A;
265.947378328547;-0.8209228515625;1.17259999703947;903;-0.28997802734375;1 A;
265.948678328544;-0.8209228515625;1.17389999703619;904;-0.28997802734375;1 A;
265.949978328541;-0.82122802734375;1.17519999703291;905;-0.28997802734375;1 A;
265.951278328538;-0.82122802734375;1.17649999702962;906;-0.289947509765625;1 A;
265.952578328534;-0.8221435546875;1.17779999702634;907;-0.289947509765625;1 A;
265.953878328531;-0.82183837890625;1.17909999702306;908;-0.290008544921875;1 A;
265.955178328528;-0.82183837890625;1.18039999701978;909;-0.28997802734375;1 A;
265.956478328524;-0.82244873046875;1.18169999701649;910;-0.289947509765625;1 A;
265.957778328521;-0.82244873046875;1.18299999701321;911;-0.28997802734375;1 A;
265.959078328518;-0.82244873046875;1.18429999700993;912;-0.290008544921875;1 A;
265.960378328515;-0.82275390625;1.18559999700665;913;-0.2899169921875;1 A;
265.961678328511;-0.82305908203125;1.18689999700337;914;-0.2899169921875;1 A;
265.962978328508;-0.8233642578125;1.18819999700008;915;-0.2900390625;1 A;
265.964278328505;-0.8233642578125;1.1894999969968;916;-0.289947509765625;1 A;
265.965578328501;-0.823974609375;1.19079999699352;917;-0.289947509765625;1 A;
265.966878328498;-0.823974609375;1.19209999699024;918;-0.290008544921875;1 A;
265.968178328495;-0.823974609375;1.19339999698695;919;-0.28997802734375;1 A;
265.969478328492;-0.823974609375;1.19469999698367;920;-0.289947509765625;1 A;
265.970778328488;-0.8245849609375;1.19599999698039;921;-0.289947509765625;1 A;
265.972078328485;-0.8245849609375;1.19729999697711;922;-0.289947509765625;1 A;
265.973378328482;-0.82489013671875;1.19859999697383;923;-0.289947509765625;1 A;
265.974678328478;-0.8251953125;1.19989999697054;924;-0.289947509765625;1 A;
265.975978328475;-0.8258056640625;1.20119999696726;925;-0.2899169921875;1 A;
265.977278328472;-0.8258056640625;1.20249999696398;926;-0.28997802734375;1 A;
265.978578328469;-0.82611083984375;1.2037999969607;927;-0.2899169921875;1 A;
265.979878328465;-0.8258056640625;1.20509999695741;928;-0.289947509765625;1 A;
265.981178328462;-0.826416015625;1.20639999695413;929;-0.28997802734375;1 A;
265.982478328459;-0.82672119140625;1.20769999695085;930;-0.289947509765625;1 A;
265.983778328456;-0.8270263671875;1.20899999694757;931;-0.290008544921875;1 A;
265.985078328452;-0.8270263671875;1.21029999694429;932;-0.290008544921875;1 A;
265.986378328449;-0.8270263671875;1.211599996941;933;-0.289947509765625;1 A;
265.987678328446;-0.82763671875;1.21289999693772;934;-0.289947509765625;1 A;
265.988978328442;-0.82763671875;1.21419999693444;935;-0.290008544921875;1 A;
265.990278328439;-0.82794189453125;1.21549999693116;936;-0.28997802734375;1 A;
265.991578328436;-0.8282470703125;1.21679999692788;937;-0.2899169921875;1 A;
265.992878328433;-0.8282470703125;1.21809999692459;938;-0.289947509765625;1 A;
265.994178328429;-0.82855224609375;1.21939999692131;939;-0.2899169921875;1 A;
265.995478328426;-0.82916259765625;1.22069999691803;940;-0.2899169921875;1 A;
265.996778328423;-0.828857421875;1.22199999691475;941;-0.28997802734375;1 A;
265.998078328419;-0.82916259765625;1.22329999691146;942;-0.2899169921875;1 A;
265.999378328416;-0.8294677734375;1.22459999690818;943;-0.28997802734375;1 A;
266.000678328413;-0.82977294921875;1.2258999969049;944;-0.289947509765625;1 A;
266.00197832841;-0.830078125;1.22719999690162;945;-0.28997802734375;1 A;
266.003278328406;-0.83038330078125;1.22849999689834;946;-0.28997802734375;1 A;
266.004578328403;-0.8306884765625;1.22979999689505;947;-0.28997802734375;1 A;
266.0058783284;-0.8306884765625;1.23109999689177;948;-0.290008544921875;1 A;
266.007178328396;-0.83099365234375;1.23239999688849;949;-0.28997802734375;1 A;
266.008478328393;-0.831298828125;1.23369999688521;950;-0.28997802734375;1 A;
266.00977832839;-0.831298828125;1.23499999688192;951;-0.289947509765625;1 A;
266.011078328387;-0.8319091796875;1.23629999687864;952;-0.290008544921875;1 A;
266.012378328383;-0.8319091796875;1.23759999687536;953;-0.289947509765625;1 A;
266.01367832838;-0.83221435546875;1.23889999687208;954;-0.290008544921875;1 A;
266.014978328377;-0.83251953125;1.2401999968688;955;-0.2899169921875;1 A;
266.016278328373;-0.8331298828125;1.24149999686551;956;-0.2899169921875;1 A;
266.01757832837;-0.8331298828125;1.24279999686223;957;-0.289947509765625;1 A;
266.018878328367;-0.83343505859375;1.24409999685895;958;-0.28997802734375;1 A;
266.020178328364;-0.83343505859375;1.24539999685567;959;-0.28997802734375;1 A;
266.02147832836;-0.833740234375;1.24669999685239;960;-0.290008544921875;1 A;
266.022778328357;-0.83404541015625;1.2479999968491;961;-0.289947509765625;1 A;
266.024078328354;-0.8343505859375;1.24929999684582;962;-0.289947509765625;1 A;
266.02537832835;-0.83465576171875;1.25059999684254;963;-0.289947509765625;1 A;
266.026678328347;-0.8349609375;1.25189999683926;964;-0.289947509765625;1 A;
266.027978328344;-0.83526611328125;1.25319999683597;965;-0.289947509765625;1 A;
266.029278328341;-0.83587646484375;1.25449999683269;966;-0.289947509765625;1 A;
266.030578328337;-0.8355712890625;1.25579999682941;967;-0.28997802734375;1 A;
266.031878328334;-0.836181640625;1.25709999682613;968;-0.290008544921875;1 A;
266.033178328331;-0.83648681640625;1.25839999682285;969;-0.289947509765625;1 A;
266.034478328328;-0.8367919921875;1.25969999681956;970;-0.28997802734375;1 A;
266.035778328324;-0.83740234375;1.26099999681628;971;-0.28997802734375;1 A;
266.037078328321;-0.83740234375;1.262299996813;972;-0.28997802734375;1 A;
266.038378328318;-0.83740234375;1.26359999680972;973;-0.28997802734375;1 A;
266.039678328314;-0.8380126953125;1.26489999680643;974;-0.28997802734375;1 A;
266.040978328311;-0.83831787109375;1.26619999680315;975;-0.289947509765625;1 A;
266.042278328308;-0.83831787109375;1.26749999679987;976;-0.289947509765625;1 A;
266.043578328305;-0.83892822265625;1.26879999679659;977;-0.289947509765625;1 A;
266.044878328301;-0.8392333984375;1.27009999679331;978;-0.289947509765625;1 A;
266.046178328298;-0.83953857421875;1.27139999679002;979;-0.2899169921875;1 A;
266.047478328295;-0.83984375;1.27269999678674;980;-0.289947509765625;1 A;
266.048778328291;-0.8404541015625;1.27399999678346;981;-0.289947509765625;1 A;
266.050078328288;-0.84075927734375;1.27529999678018;982;-0.289947509765625;1 A;
266.051378328285;-0.84075927734375;1.27659999677689;983;-0.28997802734375;1 A;
266.052678328282;-0.84136962890625;1.27789999677361;984;-0.289947509765625;1 A;
266.053978328278;-0.8416748046875;1.27919999677033;985;-0.28997802734375;1 A;
266.055278328275;-0.8416748046875;1.28049999676705;986;-0.290008544921875;1 A;
266.056578328272;-0.84197998046875;1.28179999676377;987;-0.289947509765625;1 A;
266.057878328268;-0.8428955078125;1.28309999676048;988;-0.28997802734375;1 A;
266.059178328265;-0.8428955078125;1.2843999967572;989;-0.290008544921875;1 A;
266.060478328262;-0.843505859375;1.28569999675392;990;-0.289947509765625;1 A;
266.061778328259;-0.843505859375;1.28699999675064;991;-0.28997802734375;1 A;
266.063078328255;-0.8441162109375;1.28829999674736;992;-0.28997802734375;1 A;
266.064378328252;-0.8441162109375;1.28959999674407;993;-0.28997802734375;1 A;
266.065678328249;-0.8447265625;1.29089999674079;994;-0.290008544921875;1 A;
266.066978328245;-0.8453369140625;1.29219999673751;995;-0.289947509765625;1 A;
266.068278328242;-0.84564208984375;1.29349999673423;996;-0.290008544921875;1 A;
266.069578328239;-0.84564208984375;1.29479999673094;997;-0.28997802734375;1 A;
266.070878328236;-0.8465576171875;1.29609999672766;998;-0.289947509765625;1 A;
266.072178328232;-0.8465576171875;1.29739999672438;999;-0.289947509765625;1 A;
266.073478328229;-0.84686279296875;1.2986999967211;1000;-0.289947509765625;1 A;
266.074778328226;-0.84747314453125;1.29999999671782;1001;-0.289947509765625;1 A;
266.076078328222;-0.8477783203125;1.30129999671453;1002;-0.28997802734375;1 A;
266.077378328219;-0.84808349609375;1.30259999671125;1003;-0.289947509765625;1 A;
266.078678328216;-0.8489990234375;1.30389999670797;1004;-0.28997802734375;1 A;
266.079978328213;-0.8489990234375;1.30519999670469;1005;-0.290008544921875;1 A;
266.081278328209;-0.849609375;1.3064999967014;1006;-0.289947509765625;1 A;
266.082578328206;-0.849609375;1.30779999669812;1007;-0.28997802734375;1 A;
266.083878328203;-0.8502197265625;1.30909999669484;1008;-0.2899169921875;1 A;
266.0851783282;-0.850830078125;1.31039999669156;1009;-0.28997802734375;1 A;
266.086478328196;-0.8514404296875;1.31169999668828;1010;-0.28997802734375;1 A;
266.087778328193;-0.85174560546875;1.31299999668499;1011;-0.289947509765625;1 A;
266.08907832819;-0.85205078125;1.31429999668171;1012;-0.289947509765625;1 A;
266.090378328186;-0.85235595703125;1.31559999667843;1013;-0.290008544921875;1 A;
266.091678328183;-0.85296630859375;1.31689999667515;1014;-0.289947509765625;1 A;
266.09297832818;-0.85357666015625;1.31819999667186;1015;-0.28997802734375;1 A;
266.094278328177;-0.8538818359375;1.31949999666858;1016;-0.28997802734375;1 A;
266.095578328173;-0.85479736328125;1.3207999966653;1017;-0.290008544921875;1 A;
266.09687832817;-0.85479736328125;1.32209999666202;1018;-0.28997802734375;1 A;
266.098178328167;-0.85540771484375;1.32339999665874;1019;-0.290008544921875;1 A;
266.099478328163;-0.85601806640625;1.32469999665545;1020;-0.289947509765625;1 A;
266.10077832816;-0.8563232421875;1.32599999665217;1021;-0.28997802734375;1 A;
266.102078328157;-0.85723876953125;1.32729999664889;1022;-0.2900390625;1 A;
266.103378328154;-0.85723876953125;1.32859999664561;1023;-0.289947509765625;1 A;
266.10467832815;-0.858154296875;1.32989999664233;1024;-0.28997802734375;1 A;
266.105978328147;-0.85845947265625;1.33119999663904;1025;-0.289947509765625;1 A;
266.107278328144;-0.85906982421875;1.33249999663576;1026;-0.289947509765625;1 A;
266.10857832814;-0.85968017578125;1.33379999663248;1027;-0.2899169921875;1 A;
266.109878328137;-0.8599853515625;1.3350999966292;1028;-0.289947509765625;1 A;
266.111178328134;-0.860595703125;1.33639999662591;1029;-0.28997802734375;1 A;
266.112478328131;-0.8612060546875;1.33769999662263;1030;-0.28997802734375;1 A;
266.113778328127;-0.86212158203125;1.33899999661935;1031;-0.290008544921875;1 A;
266.115078328124;-0.8624267578125;1.34029999661607;1032;-0.289947509765625;1 A;
266.116378328121;-0.86334228515625;1.34159999661279;1033;-0.28997802734375;1 A;
266.117678328117;-0.8636474609375;1.3428999966095;1034;-0.289947509765625;1 A;
266.118978328114;-0.8642578125;1.34419999660622;1035;-0.289947509765625;1 A;
266.120278328111;-0.8648681640625;1.34549999660294;1036;-0.28997802734375;1 A;
266.121578328108;-0.865478515625;1.34679999659966;1037;-0.290008544921875;1 A;
266.122878328104;-0.8660888671875;1.34809999659637;1038;-0.2899169921875;1 A;
266.124178328101;-0.86669921875;1.34939999659309;1039;-0.28997802734375;1 A;
266.125478328098;-0.86761474609375;1.35069999658981;1040;-0.289947509765625;1 A;
266.126778328094;-0.867919921875;1.35199999658653;1041;-0.289947509765625;1 A;
266.128078328091;-0.86883544921875;1.35329999658325;1042;-0.2899169921875;1 A;
266.129378328088;-0.86944580078125;1.35459999657996;1043;-0.289947509765625;1 A;
266.130678328085;-0.87066650390625;1.35589999657668;1044;-0.28997802734375;1 A;
266.131978328081;-0.8709716796875;1.3571999965734;1045;-0.2899169921875;1 A;
266.133278328078;-0.87249755859375;1.35849999657012;1046;-0.28997802734375;1 A;
266.134578328075;-0.872802734375;1.35979999656684;1047;-0.28997802734375;1 A;
266.135878328071;-0.8734130859375;1.36109999656355;1048;-0.28997802734375;1 A;
266.137178328068;-0.8740234375;1.36239999656027;1049;-0.2899169921875;1 A;
266.138478328065;-0.87493896484375;1.36369999655699;1050;-0.28997802734375;1 A;
266.139778328062;-0.8758544921875;1.36499999655371;1051;-0.289947509765625;1 A;
266.141078328058;-0.87677001953125;1.36629999655042;1052;-0.28997802734375;1 A;
266.142378328055;-0.877685546875;1.36759999654714;1053;-0.289947509765625;1 A;
266.143678328052;-0.87860107421875;1.36889999654386;1054;-0.290008544921875;1 A;
266.144978328049;-0.8795166015625;1.37019999654058;1055;-0.28997802734375;1 A;
266.146278328045;-0.88043212890625;1.3714999965373;1056;-0.289947509765625;1 A;
266.147578328042;-0.88165283203125;1.37279999653401;1057;-0.28997802734375;1 A;
266.148878328039;-0.882568359375;1.37409999653073;1058;-0.2899169921875;1 A;
266.150178328035;-0.88348388671875;1.37539999652745;1059;-0.2899169921875;1 A;
266.151478328032;-0.8843994140625;1.37669999652417;1060;-0.289947509765625;1 A;
266.152778328029;-0.88531494140625;1.37799999652088;1061;-0.28997802734375;1 A;
266.154078328026;-0.88653564453125;1.3792999965176;1062;-0.289947509765625;1 A;
266.155378328022;-0.8880615234375;1.38059999651432;1063;-0.2899169921875;1 A;
266.156678328019;-0.88897705078125;1.38189999651104;1064;-0.28997802734375;1 A;
266.157978328016;-0.89019775390625;1.38319999650776;1065;-0.289947509765625;1 A;
266.159278328012;-0.8917236328125;1.38449999650447;1066;-0.28997802734375;1 A;
266.160578328009;-0.89263916015625;1.38579999650119;1067;-0.2899169921875;1 A;
266.161878328006;-0.8941650390625;1.38709999649791;1068;-0.289947509765625;1 A;
266.163178328003;-0.8953857421875;1.38839999649463;1069;-0.289947509765625;1 A;
266.164478327999;-0.8966064453125;1.38969999649134;1070;-0.289947509765625;1 A;
266.165778327996;-0.89813232421875;1.39099999648806;1071;-0.28997802734375;1 A;
266.167078327993;-0.89996337890625;1.39229999648478;1072;-0.2899169921875;1 A;
266.168378327989;-0.9014892578125;1.3935999964815;1073;-0.28997802734375;1 A;
266.169678327986;-0.90301513671875;1.39489999647822;1074;-0.2899169921875;1 A;
266.170978327983;-0.90484619140625;1.39619999647493;1075;-0.289947509765625;1 A;
266.17227832798;-0.9063720703125;1.39749999647165;1076;-0.28997802734375;1 A;
266.173578327976;-0.908203125;1.39879999646837;1077;-0.289947509765625;1 A;
266.174878327973;-0.91033935546875;1.40009999646509;1078;-0.289947509765625;1 A;
266.17617832797;-0.91217041015625;1.40139999646181;1079;-0.289947509765625;1 A;
266.177478327966;-0.914306640625;1.40269999645852;1080;-0.2899169921875;1 A;
266.178778327963;-0.91644287109375;1.40399999645524;1081;-0.289886474609375;1 A;
266.18007832796;-0.9185791015625;1.40529999645196;1082;-0.289947509765625;1 A;
266.181378327957;-0.92132568359375;1.40659999644868;1083;-0.28997802734375;1 A;
266.182678327953;-0.9234619140625;1.40789999644539;1084;-0.28997802734375;1 A;
266.18397832795;-0.9259033203125;1.40919999644211;1085;-0.289947509765625;1 A;
266.185278327947;-0.92864990234375;1.41049999643883;1086;-0.28997802734375;1 A;
266.186578327943;-0.93170166015625;1.41179999643555;1087;-0.2899169921875;1 A;
266.18787832794;-0.9344482421875;1.41309999643227;1088;-0.2899169921875;1 A;
266.189178327937;-0.9375;1.41439999642898;1089;-0.2899169921875;1 A;
266.190478327934;-0.941162109375;1.4156999964257;1090;-0.289886474609375;1 A;
266.19177832793;-0.94451904296875;1.41699999642242;1091;-0.28985595703125;1 A;
266.193078327927;-0.948486328125;1.41829999641914;1092;-0.289886474609375;1 A;
266.194378327924;-0.95245361328125;1.41959999641585;1093;-0.2899169921875;1 A;
266.195678327921;-0.95672607421875;1.42089999641257;1094;-0.289947509765625;1 A;
266.196978327917;-0.96099853515625;1.42219999640929;1095;-0.289886474609375;1 A;
266.198278327914;-0.965576171875;1.42349999640601;1096;-0.289886474609375;1 A;
266.199578327911;-0.9710693359375;1.42479999640273;1097;-0.289947509765625;1 A;
266.200878327907;-0.97625732421875;1.42609999639944;1098;-0.28985595703125;1 A;
266.202178327904;-0.9820556640625;1.42739999639616;1099;-0.289947509765625;1 A;
266.203478327901;-0.9881591796875;1.42869999639288;1100;-0.289886474609375;1 A;
266.204778327898;-0.99456787109375;1.4299999963896;1101;-0.289886474609375;1 A;
266.206078327894;-1.00128173828125;1.43129999638631;1102;-0.2899169921875;1 A;
266.207378327891;-1.00830078125;1.43259999638303;1103;-0.289825439453125;1 A;
266.208678327888;-1.015625;1.43389999637975;1104;-0.289886474609375;1 A;
266.209978327884;-1.0235595703125;1.43519999637647;1105;-0.28985595703125;1 A;
266.211278327881;-1.03118896484375;1.43649999637319;1106;-0.289886474609375;1 A;
266.212578327878;-1.03912353515625;1.4377999963699;1107;-0.28985595703125;1 A;
266.213878327875;-1.04705810546875;1.43909999636662;1108;-0.289886474609375;1 A;
266.215178327871;-1.05560302734375;1.44039999636334;1109;-0.289886474609375;1 A;
266.216478327868;-1.06353759765625;1.44169999636006;1110;-0.28985595703125;1 A;
266.217778327865;-1.07177734375;1.44299999635678;1111;-0.289886474609375;1 A;
266.219078327861;-1.08001708984375;1.44429999635349;1112;-0.289886474609375;1 A;
266.220378327858;-1.0882568359375;1.44559999635021;1113;-0.289825439453125;1 A;
266.221678327855;-1.09649658203125;1.44689999634693;1114;-0.28985595703125;1 A;
266.222978327852;-1.10504150390625;1.44819999634365;1115;-0.28985595703125;1 A;
266.224278327848;-1.11297607421875;1.44949999634036;1116;-0.28985595703125;1 A;
266.225578327845;-1.1212158203125;1.45079999633708;1117;-0.289886474609375;1 A;
266.226878327842;-1.12945556640625;1.4520999963338;1118;-0.28985595703125;1 A;
266.228178327838;-1.1370849609375;1.45339999633052;1119;-0.28985595703125;1 A;
266.229478327835;-1.14471435546875;1.45469999632724;1120;-0.2899169921875;1 A;
266.230778327832;-1.15234375;1.45599999632395;1121;-0.28985595703125;1 A;
266.232078327829;-1.15966796875;1.45729999632067;1122;-0.289825439453125;1 A;
266.233378327825;-1.16668701171875;1.45859999631739;1123;-0.289886474609375;1 A;
266.234678327822;-1.173095703125;1.45989999631411;1124;-0.28985595703125;1 A;
266.235978327819;-1.180419921875;1.46119999631082;1125;-0.28985595703125;1 A;
266.237278327815;-1.18682861328125;1.46249999630754;1126;-0.289886474609375;1 A;
266.238578327812;-1.19384765625;1.46379999630426;1127;-0.289886474609375;1 A;
266.239878327809;-1.20025634765625;1.46509999630098;1128;-0.289825439453125;1 A;
266.241178327806;-1.20697021484375;1.4663999962977;1129;-0.28985595703125;1 A;
266.242478327802;-1.21337890625;1.46769999629441;1130;-0.28985595703125;1 A;
266.243778327799;-1.2200927734375;1.46899999629113;1131;-0.28985595703125;1 A;
266.245078327796;-1.22711181640625;1.47029999628785;1132;-0.289886474609375;1 A;
266.246378327793;-1.23321533203125;1.47159999628457;1133;-0.28985595703125;1 A;
266.247678327789;-1.2396240234375;1.47289999628128;1134;-0.28985595703125;1 A;
266.248978327786;-1.2457275390625;1.474199996278;1135;-0.289825439453125;1 A;
266.250278327783;-1.25213623046875;1.47549999627472;1136;-0.289886474609375;1 A;
266.251578327779;-1.2579345703125;1.47679999627144;1137;-0.289825439453125;1 A;
266.252878327776;-1.26373291015625;1.47809999626816;1138;-0.289825439453125;1 A;
266.254178327773;-1.2701416015625;1.47939999626487;1139;-0.289825439453125;1 A;
266.25547832777;-1.275634765625;1.48069999626159;1140;-0.289825439453125;1 A;
266.256778327766;-1.28082275390625;1.48199999625831;1141;-0.28985595703125;1 A;
266.258078327763;-1.28631591796875;1.48329999625503;1142;-0.289886474609375;1 A;
266.25937832776;-1.29180908203125;1.48459999625175;1143;-0.28985595703125;1 A;
266.260678327756;-1.2969970703125;1.48589999624846;1144;-0.28985595703125;1 A;
266.261978327753;-1.3018798828125;1.48719999624518;1145;-0.28985595703125;1 A;WE(1).Potential < -1.3 V
266.26327832775;-1.30706787109375;1.4884999962419;1146;-0.289825439453125;1 A;WE(1).Potential < -1.3 V
266.264578327747;-1.31256103515625;1.48979999623862;1147;-0.28985595703125;1 A;WE(1).Potential < -1.3 V
266.265878327743;-1.3177490234375;1.49109999623533;1148;-0.289886474609375;1 A;WE(1).Potential < -1.3 V
