Time (s);WE(1).Potential (V);Corrected time (s);Index;WE(1).Current (A);Current range;Cutoffs
326.267513176254;-0.478363037109375;0;1;-0.309478759765625;1 A;
326.26881317625;-0.53167724609375;0.00129999999671782;2;-0.3096923828125;1 A;
326.270113176247;-0.562896728515625;0.00259999999343563;3;-0.309844970703125;1 A;
326.271413176244;-0.584259033203125;0.00389999999015345;4;-0.309844970703125;1 A;
326.272713176241;-0.60150146484375;0.00519999998687126;5;-0.309844970703125;1 A;
326.274013176237;-0.6162109375;0.00649999998358908;6;-0.309844970703125;1 A;
326.275313176234;-0.628509521484375;0.00779999998030689;7;-0.309814453125;1 A;
326.276613176231;-0.639312744140625;0.00909999997702471;8;-0.30987548828125;1 A;
326.277913176227;-0.64996337890625;0.0103999999737425;9;-0.309906005859375;1 A;
326.279213176224;-0.660675048828125;0.0116999999704603;10;-0.309844970703125;1 A;
326.280513176221;-0.67120361328125;0.0129999999671782;11;-0.309844970703125;1 A;
326.281813176218;-0.681610107421875;0.014299999963896;12;-0.309906005859375;1 A;
326.283113176214;-0.692047119140625;0.0155999999606138;13;-0.3099365234375;1 A;
326.284413176211;-0.702392578125;0.0168999999573316;14;-0.309906005859375;1 A;
326.285713176208;-0.71246337890625;0.0181999999540494;15;-0.30987548828125;1 A;
326.287013176204;-0.722198486328125;0.0194999999507672;16;-0.309844970703125;1 A;
326.288313176201;-0.73138427734375;0.020799999947485;17;-0.30987548828125;1 A;
326.289613176198;-0.73992919921875;0.0220999999442029;18;-0.30987548828125;1 A;
326.290913176195;-0.747589111328125;0.0233999999409207;19;-0.3099365234375;1 A;
326.292213176191;-0.75439453125;0.0246999999376385;20;-0.309844970703125;1 A;
326.293513176188;-0.7598876953125;0.0259999999343563;21;-0.30987548828125;1 A;
326.294813176185;-0.7647705078125;0.0272999999310741;22;-0.309967041015625;1 A;
326.296113176182;-0.76751708984375;0.0285999999277919;23;-0.309967041015625;1 A;
326.297413176178;-0.76751708984375;0.0298999999245098;24;-0.309906005859375;1 A;
326.298713176175;-0.7659912109375;0.0311999999212276;25;-0.30999755859375;1 A;
326.300013176172;-0.76446533203125;0.0324999999179454;26;-0.309967041015625;1 A;
326.301313176168;-0.76324462890625;0.0337999999146632;27;-0.309967041015625;1 A;
326.302613176165;-0.762939453125;0.035099999911381;28;-0.309967041015625;1 A;
326.303913176162;-0.7623291015625;0.0363999999080988;29;-0.3099365234375;1 A;
326.305213176159;-0.7623291015625;0.0376999999048167;30;-0.3099365234375;1 A;
326.306513176155;-0.76171875;0.0389999999015345;31;-0.30999755859375;1 A;
326.307813176152;-0.76171875;0.0402999998982523;32;-0.3099365234375;1 A;
326.309113176149;-0.76171875;0.0415999998949701;33;-0.3099365234375;1 A;
326.310413176145;-0.76171875;0.0428999998916879;34;-0.309967041015625;1 A;
326.311713176142;-0.7611083984375;0.0441999998884057;35;-0.30999755859375;1 A;
326.313013176139;-0.7611083984375;0.0454999998851235;36;-0.309967041015625;1 A;
326.314313176136;-0.76141357421875;0.0467999998818414;37;-0.309967041015625;1 A;
326.315613176132;-0.76080322265625;0.0480999998785592;38;-0.3099365234375;1 A;
326.316913176129;-0.7611083984375;0.049399999875277;39;-0.309967041015625;1 A;
326.318213176126;-0.76080322265625;0.0506999998719948;40;-0.30999755859375;1 A;
326.319513176122;-0.7611083984375;0.0519999998687126;41;-0.3099365234375;1 A;
326.320813176119;-0.7611083984375;0.0532999998654304;42;-0.309967041015625;1 A;
326.322113176116;-0.7611083984375;0.0545999998621483;43;-0.3099365234375;1 A;
326.323413176113;-0.7611083984375;0.0558999998588661;44;-0.30999755859375;1 A;
326.324713176109;-0.76080322265625;0.0571999998555839;45;-0.309967041015625;1 A;
326.326013176106;-0.7611083984375;0.0584999998523017;46;-0.30999755859375;1 A;
326.327313176103;-0.7611083984375;0.0597999998490195;47;-0.3099365234375;1 A;
326.328613176099;-0.76080322265625;0.0610999998457373;48;-0.310028076171875;1 A;
326.329913176096;-0.76080322265625;0.0623999998424551;49;-0.30987548828125;1 A;
326.331213176093;-0.76080322265625;0.063699999839173;50;-0.30999755859375;1 A;
326.33251317609;-0.76080322265625;0.0649999998358908;51;-0.309967041015625;1 A;
326.333813176086;-0.76080322265625;0.0662999998326086;52;-0.3099365234375;1 A;
326.335113176083;-0.76080322265625;0.0675999998293264;53;-0.309967041015625;1 A;
326.33641317608;-0.7611083984375;0.0688999998260442;54;-0.30999755859375;1 A;
326.337713176076;-0.76080322265625;0.070199999822762;55;-0.31005859375;1 A;
326.339013176073;-0.76080322265625;0.0714999998194799;56;-0.309967041015625;1 A;
326.34031317607;-0.7611083984375;0.0727999998161977;57;-0.309906005859375;1 A;
326.341613176067;-0.76080322265625;0.0740999998129155;58;-0.3099365234375;1 A;
326.342913176063;-0.76080322265625;0.0753999998096333;59;-0.309967041015625;1 A;
326.34421317606;-0.76080322265625;0.0766999998063511;60;-0.30999755859375;1 A;
326.345513176057;-0.76080322265625;0.0779999998030689;61;-0.309967041015625;1 A;
326.346813176054;-0.76080322265625;0.0792999997997867;62;-0.3099365234375;1 A;
326.34811317605;-0.76080322265625;0.0805999997965046;63;-0.310028076171875;1 A;
326.349413176047;-0.76080322265625;0.0818999997932224;64;-0.3099365234375;1 A;
326.350713176044;-0.7611083984375;0.0831999997899402;65;-0.309967041015625;1 A;
326.35201317604;-0.7611083984375;0.084499999786658;66;-0.3099365234375;1 A;
326.353313176037;-0.76080322265625;0.0857999997833758;67;-0.309967041015625;1 A;
326.354613176034;-0.76080322265625;0.0870999997800936;68;-0.3099365234375;1 A;
326.355913176031;-0.76080322265625;0.0883999997768115;69;-0.309967041015625;1 A;
326.357213176027;-0.76080322265625;0.0896999997735293;70;-0.30999755859375;1 A;
326.358513176024;-0.760498046875;0.0909999997702471;71;-0.3099365234375;1 A;
326.359813176021;-0.7611083984375;0.0922999997669649;72;-0.3099365234375;1 A;
326.361113176017;-0.76080322265625;0.0935999997636827;73;-0.309967041015625;1 A;
326.362413176014;-0.76080322265625;0.0948999997604005;74;-0.3099365234375;1 A;
326.363713176011;-0.76141357421875;0.0961999997571183;75;-0.309967041015625;1 A;
326.365013176008;-0.76080322265625;0.0974999997538362;76;-0.3099365234375;1 A;
326.366313176004;-0.7611083984375;0.098799999750554;77;-0.309967041015625;1 A;
326.367613176001;-0.76080322265625;0.100099999747272;78;-0.3099365234375;1 A;
326.368913175998;-0.7611083984375;0.10139999974399;79;-0.30999755859375;1 A;
326.370213175994;-0.76080322265625;0.102699999740707;80;-0.309967041015625;1 A;
326.371513175991;-0.76080322265625;0.103999999737425;81;-0.3099365234375;1 A;
326.372813175988;-0.7611083984375;0.105299999734143;82;-0.3099365234375;1 A;
326.374113175985;-0.7611083984375;0.106599999730861;83;-0.3099365234375;1 A;
326.375413175981;-0.7611083984375;0.107899999727579;84;-0.309967041015625;1 A;
326.376713175978;-0.76080322265625;0.109199999724297;85;-0.309967041015625;1 A;
326.378013175975;-0.76141357421875;0.110499999721014;86;-0.3099365234375;1 A;
326.379313175971;-0.7611083984375;0.111799999717732;87;-0.309967041015625;1 A;
326.380613175968;-0.7611083984375;0.11309999971445;88;-0.309906005859375;1 A;
326.381913175965;-0.76080322265625;0.114399999711168;89;-0.309967041015625;1 A;
326.383213175962;-0.7611083984375;0.115699999707886;90;-0.309967041015625;1 A;
326.384513175958;-0.7611083984375;0.116999999704603;91;-0.3099365234375;1 A;
326.385813175955;-0.76080322265625;0.118299999701321;92;-0.310028076171875;1 A;
326.387113175952;-0.76141357421875;0.119599999698039;93;-0.3099365234375;1 A;
326.388413175948;-0.76141357421875;0.120899999694757;94;-0.309967041015625;1 A;
326.389713175945;-0.76141357421875;0.122199999691475;95;-0.3099365234375;1 A;
326.391013175942;-0.76141357421875;0.123499999688192;96;-0.310028076171875;1 A;
326.392313175939;-0.76141357421875;0.12479999968491;97;-0.309967041015625;1 A;
326.393613175935;-0.7611083984375;0.126099999681628;98;-0.309906005859375;1 A;
326.394913175932;-0.76141357421875;0.127399999678346;99;-0.309967041015625;1 A;
326.396213175929;-0.76141357421875;0.128699999675064;100;-0.30999755859375;1 A;
326.397513175925;-0.7611083984375;0.129999999671782;101;-0.310028076171875;1 A;
326.398813175922;-0.76141357421875;0.131299999668499;102;-0.3099365234375;1 A;
326.400113175919;-0.76141357421875;0.132599999665217;103;-0.3099365234375;1 A;
326.401413175916;-0.76171875;0.133899999661935;104;-0.309967041015625;1 A;
326.402713175912;-0.76141357421875;0.135199999658653;105;-0.3099365234375;1 A;
326.404013175909;-0.76171875;0.136499999655371;106;-0.30999755859375;1 A;
326.405313175906;-0.76171875;0.137799999652088;107;-0.309967041015625;1 A;
326.406613175903;-0.76171875;0.139099999648806;108;-0.3099365234375;1 A;
326.407913175899;-0.76171875;0.140399999645524;109;-0.309967041015625;1 A;
326.409213175896;-0.76171875;0.141699999642242;110;-0.3099365234375;1 A;
326.410513175893;-0.76171875;0.14299999963896;111;-0.30999755859375;1 A;
326.411813175889;-0.76202392578125;0.144299999635678;112;-0.3099365234375;1 A;
326.413113175886;-0.76202392578125;0.145599999632395;113;-0.309967041015625;1 A;
326.414413175883;-0.76202392578125;0.146899999629113;114;-0.30999755859375;1 A;
326.41571317588;-0.76171875;0.148199999625831;115;-0.309967041015625;1 A;
326.417013175876;-0.76202392578125;0.149499999622549;116;-0.309967041015625;1 A;
326.418313175873;-0.76202392578125;0.150799999619267;117;-0.30999755859375;1 A;
326.41961317587;-0.76202392578125;0.152099999615984;118;-0.3099365234375;1 A;
326.420913175866;-0.76202392578125;0.153399999612702;119;-0.30999755859375;1 A;
326.422213175863;-0.76202392578125;0.15469999960942;120;-0.310028076171875;1 A;
326.42351317586;-0.76171875;0.155999999606138;121;-0.30999755859375;1 A;
326.424813175857;-0.76202392578125;0.157299999602856;122;-0.309967041015625;1 A;
326.426113175853;-0.76202392578125;0.158599999599573;123;-0.309967041015625;1 A;
326.42741317585;-0.76202392578125;0.159899999596291;124;-0.3099365234375;1 A;
326.428713175847;-0.7623291015625;0.161199999593009;125;-0.309967041015625;1 A;
326.430013175843;-0.76171875;0.162499999589727;126;-0.3099365234375;1 A;
326.43131317584;-0.76263427734375;0.163799999586445;127;-0.309967041015625;1 A;
326.432613175837;-0.7623291015625;0.165099999583163;128;-0.3099365234375;1 A;
326.433913175834;-0.7623291015625;0.16639999957988;129;-0.3099365234375;1 A;
326.43521317583;-0.7623291015625;0.167699999576598;130;-0.309967041015625;1 A;
326.436513175827;-0.7623291015625;0.168999999573316;131;-0.309967041015625;1 A;
326.437813175824;-0.7623291015625;0.170299999570034;132;-0.309967041015625;1 A;
326.43911317582;-0.76202392578125;0.171599999566752;133;-0.309967041015625;1 A;
326.440413175817;-0.7623291015625;0.172899999563469;134;-0.3099365234375;1 A;
326.441713175814;-0.76263427734375;0.174199999560187;135;-0.3099365234375;1 A;
326.443013175811;-0.76263427734375;0.175499999556905;136;-0.309967041015625;1 A;
326.444313175807;-0.76263427734375;0.176799999553623;137;-0.309967041015625;1 A;
326.445613175804;-0.762939453125;0.178099999550341;138;-0.309967041015625;1 A;
326.446913175801;-0.76263427734375;0.179399999547059;139;-0.309967041015625;1 A;
326.448213175797;-0.76263427734375;0.180699999543776;140;-0.3099365234375;1 A;
326.449513175794;-0.76263427734375;0.181999999540494;141;-0.30999755859375;1 A;
326.450813175791;-0.76263427734375;0.183299999537212;142;-0.30999755859375;1 A;
326.452113175788;-0.762939453125;0.18459999953393;143;-0.309967041015625;1 A;
326.453413175784;-0.762939453125;0.185899999530648;144;-0.3099365234375;1 A;
326.454713175781;-0.76263427734375;0.187199999527365;145;-0.309967041015625;1 A;
326.456013175778;-0.76263427734375;0.188499999524083;146;-0.309906005859375;1 A;
326.457313175775;-0.76324462890625;0.189799999520801;147;-0.309967041015625;1 A;
326.458613175771;-0.76263427734375;0.191099999517519;148;-0.3099365234375;1 A;
326.459913175768;-0.762939453125;0.192399999514237;149;-0.3099365234375;1 A;
326.461213175765;-0.76324462890625;0.193699999510955;150;-0.309906005859375;1 A;
326.462513175761;-0.762939453125;0.194999999507672;151;-0.309967041015625;1 A;
326.463813175758;-0.762939453125;0.19629999950439;152;-0.309967041015625;1 A;
326.465113175755;-0.762939453125;0.197599999501108;153;-0.309967041015625;1 A;
326.466413175752;-0.762939453125;0.198899999497826;154;-0.30999755859375;1 A;
326.467713175748;-0.76324462890625;0.200199999494544;155;-0.30999755859375;1 A;
326.469013175745;-0.76324462890625;0.201499999491261;156;-0.30999755859375;1 A;
326.470313175742;-0.762939453125;0.202799999487979;157;-0.309967041015625;1 A;
326.471613175738;-0.7635498046875;0.204099999484697;158;-0.30999755859375;1 A;
326.472913175735;-0.762939453125;0.205399999481415;159;-0.3099365234375;1 A;
326.474213175732;-0.7635498046875;0.206699999478133;160;-0.309967041015625;1 A;
326.475513175729;-0.7635498046875;0.20799999947485;161;-0.3099365234375;1 A;
326.476813175725;-0.7635498046875;0.209299999471568;162;-0.309967041015625;1 A;
326.478113175722;-0.7635498046875;0.210599999468286;163;-0.309967041015625;1 A;
326.479413175719;-0.7635498046875;0.211899999465004;164;-0.30999755859375;1 A;
326.480713175715;-0.7635498046875;0.213199999461722;165;-0.309906005859375;1 A;
326.482013175712;-0.7635498046875;0.21449999945844;166;-0.30999755859375;1 A;
326.483313175709;-0.7635498046875;0.215799999455157;167;-0.309967041015625;1 A;
326.484613175706;-0.76385498046875;0.217099999451875;168;-0.30999755859375;1 A;
326.485913175702;-0.76385498046875;0.218399999448593;169;-0.30999755859375;1 A;
326.487213175699;-0.76385498046875;0.219699999445311;170;-0.309967041015625;1 A;
326.488513175696;-0.76385498046875;0.220999999442029;171;-0.309906005859375;1 A;
326.489813175692;-0.7635498046875;0.222299999438746;172;-0.30999755859375;1 A;
326.491113175689;-0.76385498046875;0.223599999435464;173;-0.310028076171875;1 A;
326.492413175686;-0.76385498046875;0.224899999432182;174;-0.3099365234375;1 A;
326.493713175683;-0.76416015625;0.2261999994289;175;-0.30999755859375;1 A;
326.495013175679;-0.76416015625;0.227499999425618;176;-0.30999755859375;1 A;
326.496313175676;-0.76416015625;0.228799999422336;177;-0.30999755859375;1 A;
326.497613175673;-0.76446533203125;0.230099999419053;178;-0.3099365234375;1 A;
326.498913175669;-0.76416015625;0.231399999415771;179;-0.309906005859375;1 A;
326.500213175666;-0.76416015625;0.232699999412489;180;-0.309967041015625;1 A;
326.501513175663;-0.76385498046875;0.233999999409207;181;-0.309967041015625;1 A;
326.50281317566;-0.76416015625;0.235299999405925;182;-0.309967041015625;1 A;
326.504113175656;-0.76446533203125;0.236599999402642;183;-0.30999755859375;1 A;
326.505413175653;-0.76446533203125;0.23789999939936;184;-0.3099365234375;1 A;
326.50671317565;-0.76446533203125;0.239199999396078;185;-0.3099365234375;1 A;
326.508013175647;-0.7647705078125;0.240499999392796;186;-0.3099365234375;1 A;
326.509313175643;-0.76446533203125;0.241799999389514;187;-0.309906005859375;1 A;
326.51061317564;-0.76446533203125;0.243099999386232;188;-0.309906005859375;1 A;
326.511913175637;-0.7647705078125;0.244399999382949;189;-0.3099365234375;1 A;
326.513213175633;-0.76446533203125;0.245699999379667;190;-0.309967041015625;1 A;
326.51451317563;-0.7647705078125;0.246999999376385;191;-0.309967041015625;1 A;
326.515813175627;-0.76507568359375;0.248299999373103;192;-0.3099365234375;1 A;
326.517113175624;-0.76446533203125;0.249599999369821;193;-0.30999755859375;1 A;
326.51841317562;-0.7647705078125;0.250899999366538;194;-0.309906005859375;1 A;
326.519713175617;-0.76446533203125;0.252199999363256;195;-0.309967041015625;1 A;
326.521013175614;-0.76507568359375;0.253499999359974;196;-0.309967041015625;1 A;
326.52231317561;-0.76507568359375;0.254799999356692;197;-0.3099365234375;1 A;
326.523613175607;-0.7647705078125;0.25609999935341;198;-0.30999755859375;1 A;
326.524913175604;-0.76507568359375;0.257399999350127;199;-0.309967041015625;1 A;
326.526213175601;-0.76507568359375;0.258699999346845;200;-0.309967041015625;1 A;
326.527513175597;-0.76507568359375;0.259999999343563;201;-0.30999755859375;1 A;
326.528813175594;-0.76507568359375;0.261299999340281;202;-0.309906005859375;1 A;
326.530113175591;-0.76507568359375;0.262599999336999;203;-0.3099365234375;1 A;
326.531413175587;-0.765380859375;0.263899999333717;204;-0.3099365234375;1 A;
326.532713175584;-0.765380859375;0.265199999330434;205;-0.309906005859375;1 A;
326.534013175581;-0.765380859375;0.266499999327152;206;-0.3099365234375;1 A;
326.535313175578;-0.765380859375;0.26779999932387;207;-0.309906005859375;1 A;
326.536613175574;-0.76568603515625;0.269099999320588;208;-0.309967041015625;1 A;
326.537913175571;-0.765380859375;0.270399999317306;209;-0.30999755859375;1 A;
326.539213175568;-0.765380859375;0.271699999314023;210;-0.309967041015625;1 A;
326.540513175564;-0.765380859375;0.272999999310741;211;-0.309967041015625;1 A;
326.541813175561;-0.765380859375;0.274299999307459;212;-0.309906005859375;1 A;
326.543113175558;-0.76568603515625;0.275599999304177;213;-0.309967041015625;1 A;
326.544413175555;-0.76568603515625;0.276899999300895;214;-0.3099365234375;1 A;
326.545713175551;-0.7659912109375;0.278199999297613;215;-0.3099365234375;1 A;
326.547013175548;-0.76568603515625;0.27949999929433;216;-0.3099365234375;1 A;
326.548313175545;-0.7659912109375;0.280799999291048;217;-0.309967041015625;1 A;
326.549613175541;-0.7659912109375;0.282099999287766;218;-0.309967041015625;1 A;
326.550913175538;-0.76629638671875;0.283399999284484;219;-0.30999755859375;1 A;
326.552213175535;-0.76568603515625;0.284699999281202;220;-0.3099365234375;1 A;
326.553513175532;-0.7659912109375;0.285999999277919;221;-0.3099365234375;1 A;
326.554813175528;-0.76568603515625;0.287299999274637;222;-0.30999755859375;1 A;
326.556113175525;-0.7659912109375;0.288599999271355;223;-0.3099365234375;1 A;
326.557413175522;-0.76629638671875;0.289899999268073;224;-0.3099365234375;1 A;
326.558713175519;-0.76629638671875;0.291199999264791;225;-0.310028076171875;1 A;
326.560013175515;-0.76629638671875;0.292499999261508;226;-0.309967041015625;1 A;
326.561313175512;-0.76629638671875;0.293799999258226;227;-0.309967041015625;1 A;
326.562613175509;-0.7659912109375;0.295099999254944;228;-0.309967041015625;1 A;
326.563913175505;-0.7666015625;0.296399999251662;229;-0.309967041015625;1 A;
326.565213175502;-0.7666015625;0.29769999924838;230;-0.3099365234375;1 A;
326.566513175499;-0.7666015625;0.298999999245098;231;-0.309967041015625;1 A;
326.567813175496;-0.7666015625;0.300299999241815;232;-0.30999755859375;1 A;
326.569113175492;-0.7666015625;0.301599999238533;233;-0.309967041015625;1 A;
326.570413175489;-0.76629638671875;0.302899999235251;234;-0.3099365234375;1 A;
326.571713175486;-0.7666015625;0.304199999231969;235;-0.30999755859375;1 A;
326.573013175482;-0.7666015625;0.305499999228687;236;-0.30999755859375;1 A;
326.574313175479;-0.76690673828125;0.306799999225404;237;-0.3099365234375;1 A;
326.575613175476;-0.7666015625;0.308099999222122;238;-0.309967041015625;1 A;
326.576913175473;-0.7666015625;0.30939999921884;239;-0.309967041015625;1 A;
326.578213175469;-0.7666015625;0.310699999215558;240;-0.309967041015625;1 A;
326.579513175466;-0.76751708984375;0.311999999212276;241;-0.3099365234375;1 A;
326.580813175463;-0.76690673828125;0.313299999208994;242;-0.309906005859375;1 A;
326.582113175459;-0.76690673828125;0.314599999205711;243;-0.30999755859375;1 A;
326.583413175456;-0.7672119140625;0.315899999202429;244;-0.30999755859375;1 A;
326.584713175453;-0.76690673828125;0.317199999199147;245;-0.309906005859375;1 A;
326.58601317545;-0.7672119140625;0.318499999195865;246;-0.3099365234375;1 A;
326.587313175446;-0.7672119140625;0.319799999192583;247;-0.30999755859375;1 A;
326.588613175443;-0.7672119140625;0.3210999991893;248;-0.30999755859375;1 A;
326.58991317544;-0.7672119140625;0.322399999186018;249;-0.309967041015625;1 A;
326.591213175436;-0.7672119140625;0.323699999182736;250;-0.309967041015625;1 A;
326.592513175433;-0.76751708984375;0.324999999179454;251;-0.3099365234375;1 A;
326.59381317543;-0.76751708984375;0.326299999176172;252;-0.3099365234375;1 A;
326.595113175427;-0.76751708984375;0.32759999917289;253;-0.30999755859375;1 A;
326.596413175423;-0.767822265625;0.328899999169607;254;-0.3099365234375;1 A;
326.59771317542;-0.76751708984375;0.330199999166325;255;-0.309967041015625;1 A;
326.599013175417;-0.767822265625;0.331499999163043;256;-0.30999755859375;1 A;
326.600313175413;-0.767822265625;0.332799999159761;257;-0.309967041015625;1 A;
326.60161317541;-0.76751708984375;0.334099999156479;258;-0.310028076171875;1 A;
326.602913175407;-0.76812744140625;0.335399999153196;259;-0.309967041015625;1 A;
326.604213175404;-0.767822265625;0.336699999149914;260;-0.30999755859375;1 A;
326.6055131754;-0.767822265625;0.337999999146632;261;-0.30999755859375;1 A;
326.606813175397;-0.767822265625;0.33929999914335;262;-0.3099365234375;1 A;
326.608113175394;-0.76812744140625;0.340599999140068;263;-0.309967041015625;1 A;
326.609413175391;-0.767822265625;0.341899999136785;264;-0.309967041015625;1 A;
326.610713175387;-0.76812744140625;0.343199999133503;265;-0.3099365234375;1 A;
326.612013175384;-0.76812744140625;0.344499999130221;266;-0.309967041015625;1 A;
326.613313175381;-0.7684326171875;0.345799999126939;267;-0.3099365234375;1 A;
326.614613175377;-0.76812744140625;0.347099999123657;268;-0.309967041015625;1 A;
326.615913175374;-0.76812744140625;0.348399999120375;269;-0.309967041015625;1 A;
326.617213175371;-0.76812744140625;0.349699999117092;270;-0.309967041015625;1 A;
326.618513175368;-0.7684326171875;0.35099999911381;271;-0.309967041015625;1 A;
326.619813175364;-0.7684326171875;0.352299999110528;272;-0.30999755859375;1 A;
326.621113175361;-0.76873779296875;0.353599999107246;273;-0.310028076171875;1 A;
326.622413175358;-0.76873779296875;0.354899999103964;274;-0.3099365234375;1 A;
326.623713175354;-0.7684326171875;0.356199999100681;275;-0.310028076171875;1 A;
326.625013175351;-0.7684326171875;0.357499999097399;276;-0.310028076171875;1 A;
326.626313175348;-0.76873779296875;0.358799999094117;277;-0.30999755859375;1 A;
326.627613175345;-0.76873779296875;0.360099999090835;278;-0.309967041015625;1 A;
326.628913175341;-0.76904296875;0.361399999087553;279;-0.309906005859375;1 A;
326.630213175338;-0.76873779296875;0.362699999084271;280;-0.309906005859375;1 A;
326.631513175335;-0.76873779296875;0.363999999080988;281;-0.3099365234375;1 A;
326.632813175331;-0.76873779296875;0.365299999077706;282;-0.309967041015625;1 A;
326.634113175328;-0.76873779296875;0.366599999074424;283;-0.309906005859375;1 A;
326.635413175325;-0.76904296875;0.367899999071142;284;-0.309967041015625;1 A;
326.636713175322;-0.76934814453125;0.36919999906786;285;-0.30999755859375;1 A;
326.638013175318;-0.76934814453125;0.370499999064577;286;-0.309967041015625;1 A;
326.639313175315;-0.76934814453125;0.371799999061295;287;-0.309967041015625;1 A;
326.640613175312;-0.76934814453125;0.373099999058013;288;-0.309967041015625;1 A;
326.641913175308;-0.76904296875;0.374399999054731;289;-0.30999755859375;1 A;
326.643213175305;-0.76934814453125;0.375699999051449;290;-0.3099365234375;1 A;
326.644513175302;-0.7696533203125;0.376999999048167;291;-0.309967041015625;1 A;
326.645813175299;-0.76934814453125;0.378299999044884;292;-0.309967041015625;1 A;
326.647113175295;-0.76934814453125;0.379599999041602;293;-0.309967041015625;1 A;
326.648413175292;-0.7696533203125;0.38089999903832;294;-0.3099365234375;1 A;
326.649713175289;-0.7696533203125;0.382199999035038;295;-0.309967041015625;1 A;
326.651013175285;-0.7696533203125;0.383499999031756;296;-0.309967041015625;1 A;
326.652313175282;-0.7696533203125;0.384799999028473;297;-0.309967041015625;1 A;
326.653613175279;-0.76995849609375;0.386099999025191;298;-0.309967041015625;1 A;
326.654913175276;-0.76995849609375;0.387399999021909;299;-0.309967041015625;1 A;
326.656213175272;-0.770263671875;0.388699999018627;300;-0.309967041015625;1 A;
326.657513175269;-0.770263671875;0.389999999015345;301;-0.3099365234375;1 A;
326.658813175266;-0.76995849609375;0.391299999012062;302;-0.3099365234375;1 A;
326.660113175262;-0.770263671875;0.39259999900878;303;-0.309967041015625;1 A;
326.661413175259;-0.770263671875;0.393899999005498;304;-0.309967041015625;1 A;
326.662713175256;-0.770263671875;0.395199999002216;305;-0.309967041015625;1 A;
326.664013175253;-0.77056884765625;0.396499998998934;306;-0.309967041015625;1 A;
326.665313175249;-0.770263671875;0.397799998995652;307;-0.30999755859375;1 A;
326.666613175246;-0.77056884765625;0.399099998992369;308;-0.309967041015625;1 A;
326.667913175243;-0.77056884765625;0.400399998989087;309;-0.309906005859375;1 A;
326.66921317524;-0.7708740234375;0.401699998985805;310;-0.310028076171875;1 A;
326.670513175236;-0.77056884765625;0.402999998982523;311;-0.310028076171875;1 A;
326.671813175233;-0.77056884765625;0.404299998979241;312;-0.309967041015625;1 A;
326.67311317523;-0.77056884765625;0.405599998975958;313;-0.30999755859375;1 A;
326.674413175226;-0.77056884765625;0.406899998972676;314;-0.309967041015625;1 A;
326.675713175223;-0.7708740234375;0.408199998969394;315;-0.30999755859375;1 A;
326.67701317522;-0.77117919921875;0.409499998966112;316;-0.309967041015625;1 A;
326.678313175217;-0.7708740234375;0.41079999896283;317;-0.3099365234375;1 A;
326.679613175213;-0.77117919921875;0.412099998959548;318;-0.3099365234375;1 A;
326.68091317521;-0.7708740234375;0.413399998956265;319;-0.30999755859375;1 A;
326.682213175207;-0.77117919921875;0.414699998952983;320;-0.30999755859375;1 A;
326.683513175203;-0.77117919921875;0.415999998949701;321;-0.3099365234375;1 A;
326.6848131752;-0.77117919921875;0.417299998946419;322;-0.3099365234375;1 A;
326.686113175197;-0.77117919921875;0.418599998943137;323;-0.3099365234375;1 A;
326.687413175194;-0.77117919921875;0.419899998939854;324;-0.3099365234375;1 A;
326.68871317519;-0.7708740234375;0.421199998936572;325;-0.30999755859375;1 A;
326.690013175187;-0.771484375;0.42249999893329;326;-0.3099365234375;1 A;
326.691313175184;-0.77117919921875;0.423799998930008;327;-0.3099365234375;1 A;
326.69261317518;-0.771484375;0.425099998926726;328;-0.309967041015625;1 A;
326.693913175177;-0.77178955078125;0.426399998923443;329;-0.309967041015625;1 A;
326.695213175174;-0.77178955078125;0.427699998920161;330;-0.309967041015625;1 A;
326.696513175171;-0.77178955078125;0.428999998916879;331;-0.30999755859375;1 A;
326.697813175167;-0.77178955078125;0.430299998913597;332;-0.30999755859375;1 A;
326.699113175164;-0.77178955078125;0.431599998910315;333;-0.309967041015625;1 A;
326.700413175161;-0.77178955078125;0.432899998907033;334;-0.30999755859375;1 A;
326.701713175157;-0.7720947265625;0.43419999890375;335;-0.309967041015625;1 A;
326.703013175154;-0.7720947265625;0.435499998900468;336;-0.3099365234375;1 A;
326.704313175151;-0.7720947265625;0.436799998897186;337;-0.309967041015625;1 A;
326.705613175148;-0.7720947265625;0.438099998893904;338;-0.3099365234375;1 A;
326.706913175144;-0.7720947265625;0.439399998890622;339;-0.309967041015625;1 A;
326.708213175141;-0.77239990234375;0.440699998887339;340;-0.30987548828125;1 A;
326.709513175138;-0.77239990234375;0.441999998884057;341;-0.30999755859375;1 A;
326.710813175134;-0.772705078125;0.443299998880775;342;-0.3099365234375;1 A;
326.712113175131;-0.77239990234375;0.444599998877493;343;-0.309967041015625;1 A;
326.713413175128;-0.77239990234375;0.445899998874211;344;-0.30999755859375;1 A;
326.714713175125;-0.772705078125;0.447199998870929;345;-0.309906005859375;1 A;
326.716013175121;-0.77239990234375;0.448499998867646;346;-0.3099365234375;1 A;
326.717313175118;-0.77239990234375;0.449799998864364;347;-0.3099365234375;1 A;
326.718613175115;-0.77301025390625;0.451099998861082;348;-0.3099365234375;1 A;
326.719913175112;-0.772705078125;0.4523999988578;349;-0.3099365234375;1 A;
326.721213175108;-0.772705078125;0.453699998854518;350;-0.3099365234375;1 A;
326.722513175105;-0.77301025390625;0.454999998851235;351;-0.309967041015625;1 A;
326.723813175102;-0.77301025390625;0.456299998847953;352;-0.309967041015625;1 A;
326.725113175098;-0.7733154296875;0.457599998844671;353;-0.309967041015625;1 A;
326.726413175095;-0.77301025390625;0.458899998841389;354;-0.3099365234375;1 A;
326.727713175092;-0.772705078125;0.460199998838107;355;-0.309967041015625;1 A;
326.729013175089;-0.77301025390625;0.461499998834825;356;-0.309967041015625;1 A;
326.730313175085;-0.7733154296875;0.462799998831542;357;-0.309967041015625;1 A;
326.731613175082;-0.7733154296875;0.46409999882826;358;-0.3099365234375;1 A;
326.732913175079;-0.77301025390625;0.465399998824978;359;-0.309906005859375;1 A;
326.734213175075;-0.77362060546875;0.466699998821696;360;-0.309967041015625;1 A;
326.735513175072;-0.7733154296875;0.467999998818414;361;-0.3099365234375;1 A;
326.736813175069;-0.77362060546875;0.469299998815131;362;-0.309967041015625;1 A;
326.738113175066;-0.77362060546875;0.470599998811849;363;-0.30999755859375;1 A;
326.739413175062;-0.77362060546875;0.471899998808567;364;-0.30999755859375;1 A;
326.740713175059;-0.77362060546875;0.473199998805285;365;-0.309906005859375;1 A;
326.742013175056;-0.77392578125;0.474499998802003;366;-0.309967041015625;1 A;
326.743313175052;-0.77362060546875;0.47579999879872;367;-0.3099365234375;1 A;
326.744613175049;-0.77392578125;0.477099998795438;368;-0.30999755859375;1 A;
326.745913175046;-0.77423095703125;0.478399998792156;369;-0.309967041015625;1 A;
326.747213175043;-0.77392578125;0.479699998788874;370;-0.3099365234375;1 A;
326.748513175039;-0.77423095703125;0.480999998785592;371;-0.309967041015625;1 A;
326.749813175036;-0.77423095703125;0.48229999878231;372;-0.309906005859375;1 A;
326.751113175033;-0.77392578125;0.483599998779027;373;-0.309906005859375;1 A;
326.752413175029;-0.77423095703125;0.484899998775745;374;-0.309967041015625;1 A;
326.753713175026;-0.7745361328125;0.486199998772463;375;-0.3099365234375;1 A;
326.755013175023;-0.77423095703125;0.487499998769181;376;-0.309967041015625;1 A;
326.75631317502;-0.7745361328125;0.488799998765899;377;-0.3099365234375;1 A;
326.757613175016;-0.7745361328125;0.490099998762616;378;-0.309967041015625;1 A;
326.758913175013;-0.77484130859375;0.491399998759334;379;-0.309967041015625;1 A;
326.76021317501;-0.7745361328125;0.492699998756052;380;-0.3099365234375;1 A;
326.761513175006;-0.77484130859375;0.49399999875277;381;-0.309967041015625;1 A;
326.762813175003;-0.77484130859375;0.495299998749488;382;-0.3099365234375;1 A;
326.764113175;-0.77484130859375;0.496599998746206;383;-0.3099365234375;1 A;
326.765413174997;-0.77484130859375;0.497899998742923;384;-0.3099365234375;1 A;
326.766713174993;-0.775146484375;0.499199998739641;385;-0.309967041015625;1 A;
326.76801317499;-0.775146484375;0.500499998736359;386;-0.3099365234375;1 A;
326.769313174987;-0.775146484375;0.501799998733077;387;-0.30999755859375;1 A;
326.770613174984;-0.775146484375;0.503099998729795;388;-0.30999755859375;1 A;
326.77191317498;-0.77545166015625;0.504399998726512;389;-0.309967041015625;1 A;
326.773213174977;-0.775146484375;0.50569999872323;390;-0.3099365234375;1 A;
326.774513174974;-0.775146484375;0.506999998719948;391;-0.309967041015625;1 A;
326.77581317497;-0.77545166015625;0.508299998716666;392;-0.3099365234375;1 A;
326.777113174967;-0.77545166015625;0.509599998713384;393;-0.30999755859375;1 A;
326.778413174964;-0.7757568359375;0.510899998710101;394;-0.30987548828125;1 A;
326.779713174961;-0.77606201171875;0.512199998706819;395;-0.309967041015625;1 A;
326.781013174957;-0.77545166015625;0.513499998703537;396;-0.309967041015625;1 A;
326.782313174954;-0.7757568359375;0.514799998700255;397;-0.309967041015625;1 A;
326.783613174951;-0.7757568359375;0.516099998696973;398;-0.309967041015625;1 A;
326.784913174947;-0.7757568359375;0.517399998693691;399;-0.309967041015625;1 A;
326.786213174944;-0.77606201171875;0.518699998690408;400;-0.309967041015625;1 A;
326.787513174941;-0.7763671875;0.519999998687126;401;-0.309967041015625;1 A;
326.788813174938;-0.77606201171875;0.521299998683844;402;-0.30999755859375;1 A;
326.790113174934;-0.7757568359375;0.522599998680562;403;-0.3099365234375;1 A;
326.791413174931;-0.77606201171875;0.52389999867728;404;-0.30999755859375;1 A;
326.792713174928;-0.7763671875;0.525199998673997;405;-0.30999755859375;1 A;
326.794013174924;-0.77606201171875;0.526499998670715;406;-0.309967041015625;1 A;
326.795313174921;-0.7763671875;0.527799998667433;407;-0.309967041015625;1 A;
326.796613174918;-0.77667236328125;0.529099998664151;408;-0.309967041015625;1 A;
326.797913174915;-0.77667236328125;0.530399998660869;409;-0.3099365234375;1 A;
326.799213174911;-0.77667236328125;0.531699998657587;410;-0.30999755859375;1 A;
326.800513174908;-0.77667236328125;0.532999998654304;411;-0.309967041015625;1 A;
326.801813174905;-0.7769775390625;0.534299998651022;412;-0.309967041015625;1 A;
326.803113174901;-0.7769775390625;0.53559999864774;413;-0.3099365234375;1 A;
326.804413174898;-0.7763671875;0.536899998644458;414;-0.309967041015625;1 A;
326.805713174895;-0.7769775390625;0.538199998641176;415;-0.30999755859375;1 A;
326.807013174892;-0.7769775390625;0.539499998637893;416;-0.3099365234375;1 A;
326.808313174888;-0.77728271484375;0.540799998634611;417;-0.30999755859375;1 A;
326.809613174885;-0.7769775390625;0.542099998631329;418;-0.309967041015625;1 A;
326.810913174882;-0.77728271484375;0.543399998628047;419;-0.30999755859375;1 A;
326.812213174878;-0.77728271484375;0.544699998624765;420;-0.3099365234375;1 A;
326.813513174875;-0.77728271484375;0.545999998621483;421;-0.3099365234375;1 A;
326.814813174872;-0.777587890625;0.5472999986182;422;-0.3099365234375;1 A;
326.816113174869;-0.777587890625;0.548599998614918;423;-0.309967041015625;1 A;
326.817413174865;-0.777587890625;0.549899998611636;424;-0.3099365234375;1 A;
326.818713174862;-0.77728271484375;0.551199998608354;425;-0.30999755859375;1 A;
326.820013174859;-0.777587890625;0.552499998605072;426;-0.309967041015625;1 A;
326.821313174856;-0.7781982421875;0.553799998601789;427;-0.309906005859375;1 A;
326.822613174852;-0.7781982421875;0.555099998598507;428;-0.30999755859375;1 A;
326.823913174849;-0.77789306640625;0.556399998595225;429;-0.309967041015625;1 A;
326.825213174846;-0.7781982421875;0.557699998591943;430;-0.309967041015625;1 A;
326.826513174842;-0.777587890625;0.558999998588661;431;-0.30999755859375;1 A;
326.827813174839;-0.7781982421875;0.560299998585378;432;-0.30999755859375;1 A;
326.829113174836;-0.7781982421875;0.561599998582096;433;-0.3099365234375;1 A;
326.830413174833;-0.77850341796875;0.562899998578814;434;-0.30999755859375;1 A;
326.831713174829;-0.77789306640625;0.564199998575532;435;-0.3099365234375;1 A;
326.833013174826;-0.77850341796875;0.56549999857225;436;-0.3099365234375;1 A;
326.834313174823;-0.77880859375;0.566799998568968;437;-0.30999755859375;1 A;
326.835613174819;-0.77850341796875;0.568099998565685;438;-0.30999755859375;1 A;
326.836913174816;-0.77850341796875;0.569399998562403;439;-0.30999755859375;1 A;
326.838213174813;-0.77880859375;0.570699998559121;440;-0.30999755859375;1 A;
326.83951317481;-0.77880859375;0.571999998555839;441;-0.309906005859375;1 A;
326.840813174806;-0.77880859375;0.573299998552557;442;-0.3099365234375;1 A;
326.842113174803;-0.77911376953125;0.574599998549274;443;-0.3099365234375;1 A;
326.8434131748;-0.77911376953125;0.575899998545992;444;-0.310028076171875;1 A;
326.844713174796;-0.77880859375;0.57719999854271;445;-0.309967041015625;1 A;
326.846013174793;-0.77880859375;0.578499998539428;446;-0.3099365234375;1 A;
326.84731317479;-0.7794189453125;0.579799998536146;447;-0.309967041015625;1 A;
326.848613174787;-0.77880859375;0.581099998532864;448;-0.309967041015625;1 A;
326.849913174783;-0.77911376953125;0.582399998529581;449;-0.3099365234375;1 A;
326.85121317478;-0.7794189453125;0.583699998526299;450;-0.309967041015625;1 A;
326.852513174777;-0.7794189453125;0.584999998523017;451;-0.3099365234375;1 A;
326.853813174773;-0.7794189453125;0.586299998519735;452;-0.309967041015625;1 A;
326.85511317477;-0.7794189453125;0.587599998516453;453;-0.309967041015625;1 A;
326.856413174767;-0.77972412109375;0.58889999851317;454;-0.30999755859375;1 A;
326.857713174764;-0.77972412109375;0.590199998509888;455;-0.3099365234375;1 A;
326.85901317476;-0.780029296875;0.591499998506606;456;-0.309967041015625;1 A;
326.860313174757;-0.77972412109375;0.592799998503324;457;-0.30999755859375;1 A;
326.861613174754;-0.780029296875;0.594099998500042;458;-0.309967041015625;1 A;
326.86291317475;-0.780029296875;0.59539999849676;459;-0.309967041015625;1 A;
326.864213174747;-0.780029296875;0.596699998493477;460;-0.309967041015625;1 A;
326.865513174744;-0.780029296875;0.597999998490195;461;-0.309967041015625;1 A;
326.866813174741;-0.780029296875;0.599299998486913;462;-0.309967041015625;1 A;
326.868113174737;-0.78033447265625;0.600599998483631;463;-0.3099365234375;1 A;
326.869413174734;-0.78033447265625;0.601899998480349;464;-0.3099365234375;1 A;
326.870713174731;-0.78033447265625;0.603199998477066;465;-0.309967041015625;1 A;
326.872013174727;-0.7806396484375;0.604499998473784;466;-0.309967041015625;1 A;
326.873313174724;-0.78033447265625;0.605799998470502;467;-0.309967041015625;1 A;
326.874613174721;-0.7806396484375;0.60709999846722;468;-0.30999755859375;1 A;
326.875913174718;-0.7806396484375;0.608399998463938;469;-0.309967041015625;1 A;
326.877213174714;-0.7806396484375;0.609699998460655;470;-0.3099365234375;1 A;
326.878513174711;-0.78094482421875;0.610999998457373;471;-0.30999755859375;1 A;
326.879813174708;-0.78094482421875;0.612299998454091;472;-0.309967041015625;1 A;
326.881113174705;-0.78094482421875;0.613599998450809;473;-0.3099365234375;1 A;
326.882413174701;-0.7806396484375;0.614899998447527;474;-0.309967041015625;1 A;
326.883713174698;-0.7806396484375;0.616199998444245;475;-0.30999755859375;1 A;
326.885013174695;-0.78125;0.617499998440962;476;-0.309967041015625;1 A;
326.886313174691;-0.78094482421875;0.61879999843768;477;-0.3099365234375;1 A;
326.887613174688;-0.78125;0.620099998434398;478;-0.309906005859375;1 A;
326.888913174685;-0.78094482421875;0.621399998431116;479;-0.3099365234375;1 A;
326.890213174682;-0.78125;0.622699998427834;480;-0.3099365234375;1 A;
326.891513174678;-0.78125;0.623999998424551;481;-0.309967041015625;1 A;
326.892813174675;-0.78155517578125;0.625299998421269;482;-0.3099365234375;1 A;
326.894113174672;-0.78155517578125;0.626599998417987;483;-0.30999755859375;1 A;
326.895413174668;-0.7818603515625;0.627899998414705;484;-0.30999755859375;1 A;
326.896713174665;-0.78216552734375;0.629199998411423;485;-0.3099365234375;1 A;
326.898013174662;-0.7818603515625;0.630499998408141;486;-0.3099365234375;1 A;
326.899313174659;-0.7818603515625;0.631799998404858;487;-0.3099365234375;1 A;
326.900613174655;-0.7818603515625;0.633099998401576;488;-0.309967041015625;1 A;
326.901913174652;-0.78216552734375;0.634399998398294;489;-0.30999755859375;1 A;
326.903213174649;-0.78216552734375;0.635699998395012;490;-0.309906005859375;1 A;
326.904513174645;-0.78216552734375;0.63699999839173;491;-0.30999755859375;1 A;
326.905813174642;-0.782470703125;0.638299998388447;492;-0.30987548828125;1 A;
326.907113174639;-0.78277587890625;0.639599998385165;493;-0.3099365234375;1 A;
326.908413174636;-0.78216552734375;0.640899998381883;494;-0.309967041015625;1 A;
326.909713174632;-0.782470703125;0.642199998378601;495;-0.309967041015625;1 A;
326.911013174629;-0.782470703125;0.643499998375319;496;-0.3099365234375;1 A;
326.912313174626;-0.78277587890625;0.644799998372036;497;-0.309967041015625;1 A;
326.913613174622;-0.78277587890625;0.646099998368754;498;-0.309906005859375;1 A;
326.914913174619;-0.78277587890625;0.647399998365472;499;-0.309967041015625;1 A;
326.916213174616;-0.7830810546875;0.64869999836219;500;-0.309967041015625;1 A;
326.917513174613;-0.7830810546875;0.649999998358908;501;-0.3099365234375;1 A;
326.918813174609;-0.7830810546875;0.651299998355626;502;-0.3099365234375;1 A;
326.920113174606;-0.78277587890625;0.652599998352343;503;-0.309967041015625;1 A;
326.921413174603;-0.7830810546875;0.653899998349061;504;-0.309967041015625;1 A;
326.922713174599;-0.78338623046875;0.655199998345779;505;-0.309967041015625;1 A;
326.924013174596;-0.78338623046875;0.656499998342497;506;-0.309906005859375;1 A;
326.925313174593;-0.78369140625;0.657799998339215;507;-0.30999755859375;1 A;
326.92661317459;-0.78369140625;0.659099998335932;508;-0.3099365234375;1 A;
326.927913174586;-0.78369140625;0.66039999833265;509;-0.309967041015625;1 A;
326.929213174583;-0.78369140625;0.661699998329368;510;-0.309906005859375;1 A;
326.93051317458;-0.78399658203125;0.662999998326086;511;-0.30999755859375;1 A;
326.931813174577;-0.78399658203125;0.664299998322804;512;-0.309967041015625;1 A;
326.933113174573;-0.78399658203125;0.665599998319522;513;-0.309967041015625;1 A;
326.93441317457;-0.78399658203125;0.666899998316239;514;-0.309967041015625;1 A;
326.935713174567;-0.78399658203125;0.668199998312957;515;-0.310028076171875;1 A;
326.937013174563;-0.7843017578125;0.669499998309675;516;-0.30999755859375;1 A;
326.93831317456;-0.7843017578125;0.670799998306393;517;-0.309967041015625;1 A;
326.939613174557;-0.7843017578125;0.672099998303111;518;-0.309967041015625;1 A;
326.940913174554;-0.78460693359375;0.673399998299828;519;-0.310028076171875;1 A;
326.94221317455;-0.7843017578125;0.674699998296546;520;-0.309967041015625;1 A;
326.943513174547;-0.7843017578125;0.675999998293264;521;-0.3099365234375;1 A;
326.944813174544;-0.784912109375;0.677299998289982;522;-0.309967041015625;1 A;
326.94611317454;-0.78460693359375;0.6785999982867;523;-0.3099365234375;1 A;
326.947413174537;-0.784912109375;0.679899998283418;524;-0.3099365234375;1 A;
326.948713174534;-0.78521728515625;0.681199998280135;525;-0.309967041015625;1 A;
326.950013174531;-0.784912109375;0.682499998276853;526;-0.3099365234375;1 A;
326.951313174527;-0.78521728515625;0.683799998273571;527;-0.309967041015625;1 A;
326.952613174524;-0.78521728515625;0.685099998270289;528;-0.309967041015625;1 A;
326.953913174521;-0.78521728515625;0.686399998267007;529;-0.30999755859375;1 A;
326.955213174517;-0.7855224609375;0.687699998263724;530;-0.30999755859375;1 A;
326.956513174514;-0.78582763671875;0.688999998260442;531;-0.309967041015625;1 A;
326.957813174511;-0.7855224609375;0.69029999825716;532;-0.30999755859375;1 A;
326.959113174508;-0.7855224609375;0.691599998253878;533;-0.3099365234375;1 A;
326.960413174504;-0.78582763671875;0.692899998250596;534;-0.30999755859375;1 A;
326.961713174501;-0.78582763671875;0.694199998247313;535;-0.30999755859375;1 A;
326.963013174498;-0.78582763671875;0.695499998244031;536;-0.3099365234375;1 A;
326.964313174494;-0.78582763671875;0.696799998240749;537;-0.3099365234375;1 A;
326.965613174491;-0.7861328125;0.698099998237467;538;-0.309967041015625;1 A;
326.966913174488;-0.78643798828125;0.699399998234185;539;-0.3099365234375;1 A;
326.968213174485;-0.7861328125;0.700699998230903;540;-0.3099365234375;1 A;
326.969513174481;-0.78643798828125;0.70199999822762;541;-0.309967041015625;1 A;
326.970813174478;-0.78643798828125;0.703299998224338;542;-0.30999755859375;1 A;
326.972113174475;-0.7867431640625;0.704599998221056;543;-0.30999755859375;1 A;
326.973413174471;-0.78643798828125;0.705899998217774;544;-0.3099365234375;1 A;
326.974713174468;-0.7867431640625;0.707199998214492;545;-0.309967041015625;1 A;
326.976013174465;-0.7867431640625;0.708499998211209;546;-0.310028076171875;1 A;
326.977313174462;-0.7867431640625;0.709799998207927;547;-0.309906005859375;1 A;
326.978613174458;-0.78704833984375;0.711099998204645;548;-0.309967041015625;1 A;
326.979913174455;-0.78704833984375;0.712399998201363;549;-0.309967041015625;1 A;
326.981213174452;-0.78704833984375;0.713699998198081;550;-0.3099365234375;1 A;
326.982513174449;-0.787353515625;0.714999998194799;551;-0.309967041015625;1 A;
326.983813174445;-0.787353515625;0.716299998191516;552;-0.3099365234375;1 A;
326.985113174442;-0.78765869140625;0.717599998188234;553;-0.309967041015625;1 A;
326.986413174439;-0.78765869140625;0.718899998184952;554;-0.3099365234375;1 A;
326.987713174435;-0.78765869140625;0.72019999818167;555;-0.309967041015625;1 A;
326.989013174432;-0.78765869140625;0.721499998178388;556;-0.30999755859375;1 A;
326.990313174429;-0.7879638671875;0.722799998175105;557;-0.30999755859375;1 A;
326.991613174426;-0.7879638671875;0.724099998171823;558;-0.309967041015625;1 A;
326.992913174422;-0.7879638671875;0.725399998168541;559;-0.30999755859375;1 A;
326.994213174419;-0.7879638671875;0.726699998165259;560;-0.3099365234375;1 A;
326.995513174416;-0.7879638671875;0.727999998161977;561;-0.309967041015625;1 A;
326.996813174412;-0.78826904296875;0.729299998158695;562;-0.310028076171875;1 A;
326.998113174409;-0.78826904296875;0.730599998155412;563;-0.3099365234375;1 A;
326.999413174406;-0.78826904296875;0.73189999815213;564;-0.30999755859375;1 A;
327.000713174403;-0.78857421875;0.733199998148848;565;-0.309967041015625;1 A;
327.002013174399;-0.78857421875;0.734499998145566;566;-0.3099365234375;1 A;
327.003313174396;-0.78887939453125;0.735799998142284;567;-0.3099365234375;1 A;
327.004613174393;-0.78887939453125;0.737099998139001;568;-0.309967041015625;1 A;
327.005913174389;-0.78857421875;0.738399998135719;569;-0.30999755859375;1 A;
327.007213174386;-0.78887939453125;0.739699998132437;570;-0.309967041015625;1 A;
327.008513174383;-0.7891845703125;0.740999998129155;571;-0.309967041015625;1 A;
327.00981317438;-0.7891845703125;0.742299998125873;572;-0.309967041015625;1 A;
327.011113174376;-0.7891845703125;0.74359999812259;573;-0.30999755859375;1 A;
327.012413174373;-0.7891845703125;0.744899998119308;574;-0.309967041015625;1 A;
327.01371317437;-0.78948974609375;0.746199998116026;575;-0.310028076171875;1 A;
327.015013174366;-0.78948974609375;0.747499998112744;576;-0.309967041015625;1 A;
327.016313174363;-0.78948974609375;0.748799998109462;577;-0.3099365234375;1 A;
327.01761317436;-0.78948974609375;0.75009999810618;578;-0.3099365234375;1 A;
327.018913174357;-0.78948974609375;0.751399998102897;579;-0.309967041015625;1 A;
327.020213174353;-0.79010009765625;0.752699998099615;580;-0.309967041015625;1 A;
327.02151317435;-0.79010009765625;0.753999998096333;581;-0.309967041015625;1 A;
327.022813174347;-0.79010009765625;0.755299998093051;582;-0.3099365234375;1 A;
327.024113174343;-0.79010009765625;0.756599998089769;583;-0.30999755859375;1 A;
327.02541317434;-0.79010009765625;0.757899998086486;584;-0.3099365234375;1 A;
327.026713174337;-0.7904052734375;0.759199998083204;585;-0.3099365234375;1 A;
327.028013174334;-0.79071044921875;0.760499998079922;586;-0.309967041015625;1 A;
327.02931317433;-0.791015625;0.76179999807664;587;-0.309906005859375;1 A;
327.030613174327;-0.7904052734375;0.763099998073358;588;-0.309967041015625;1 A;
327.031913174324;-0.79071044921875;0.764399998070076;589;-0.30999755859375;1 A;
327.033213174321;-0.791015625;0.765699998066793;590;-0.3099365234375;1 A;
327.034513174317;-0.791015625;0.766999998063511;591;-0.3099365234375;1 A;
327.035813174314;-0.791015625;0.768299998060229;592;-0.309967041015625;1 A;
327.037113174311;-0.79132080078125;0.769599998056947;593;-0.309967041015625;1 A;
327.038413174307;-0.7916259765625;0.770899998053665;594;-0.310028076171875;1 A;
327.039713174304;-0.79132080078125;0.772199998050382;595;-0.309967041015625;1 A;
327.041013174301;-0.79132080078125;0.7734999980471;596;-0.309906005859375;1 A;
327.042313174298;-0.7916259765625;0.774799998043818;597;-0.309967041015625;1 A;
327.043613174294;-0.79193115234375;0.776099998040536;598;-0.3099365234375;1 A;
327.044913174291;-0.7916259765625;0.777399998037254;599;-0.309967041015625;1 A;
327.046213174288;-0.792236328125;0.778699998033971;600;-0.309967041015625;1 A;
327.047513174284;-0.79193115234375;0.779999998030689;601;-0.3099365234375;1 A;
327.048813174281;-0.792236328125;0.781299998027407;602;-0.3099365234375;1 A;
327.050113174278;-0.792236328125;0.782599998024125;603;-0.309967041015625;1 A;
327.051413174275;-0.792236328125;0.783899998020843;604;-0.3099365234375;1 A;
327.052713174271;-0.792236328125;0.785199998017561;605;-0.309967041015625;1 A;
327.054013174268;-0.79254150390625;0.786499998014278;606;-0.309967041015625;1 A;
327.055313174265;-0.79254150390625;0.787799998010996;607;-0.309967041015625;1 A;
327.056613174261;-0.79254150390625;0.789099998007714;608;-0.30999755859375;1 A;
327.057913174258;-0.79315185546875;0.790399998004432;609;-0.309967041015625;1 A;
327.059213174255;-0.79315185546875;0.79169999800115;610;-0.30999755859375;1 A;
327.060513174252;-0.79315185546875;0.792999997997867;611;-0.309967041015625;1 A;
327.061813174248;-0.79315185546875;0.794299997994585;612;-0.3099365234375;1 A;
327.063113174245;-0.79345703125;0.795599997991303;613;-0.3099365234375;1 A;
327.064413174242;-0.79345703125;0.796899997988021;614;-0.309967041015625;1 A;
327.065713174238;-0.79345703125;0.798199997984739;615;-0.3099365234375;1 A;
327.067013174235;-0.79376220703125;0.799499997981457;616;-0.309906005859375;1 A;
327.068313174232;-0.79376220703125;0.800799997978174;617;-0.309906005859375;1 A;
327.069613174229;-0.79376220703125;0.802099997974892;618;-0.309967041015625;1 A;
327.070913174225;-0.79376220703125;0.80339999797161;619;-0.309906005859375;1 A;
327.072213174222;-0.79437255859375;0.804699997968328;620;-0.309967041015625;1 A;
327.073513174219;-0.79437255859375;0.805999997965046;621;-0.309967041015625;1 A;
327.074813174215;-0.79437255859375;0.807299997961763;622;-0.309906005859375;1 A;
327.076113174212;-0.7940673828125;0.808599997958481;623;-0.3099365234375;1 A;
327.077413174209;-0.79437255859375;0.809899997955199;624;-0.3099365234375;1 A;
327.078713174206;-0.79437255859375;0.811199997951917;625;-0.3099365234375;1 A;
327.080013174202;-0.794677734375;0.812499997948635;626;-0.309906005859375;1 A;
327.081313174199;-0.794677734375;0.813799997945353;627;-0.3099365234375;1 A;
327.082613174196;-0.79498291015625;0.81509999794207;628;-0.3099365234375;1 A;
327.083913174193;-0.79498291015625;0.816399997938788;629;-0.30987548828125;1 A;
327.085213174189;-0.7952880859375;0.817699997935506;630;-0.309967041015625;1 A;
327.086513174186;-0.7952880859375;0.818999997932224;631;-0.309967041015625;1 A;
327.087813174183;-0.7952880859375;0.820299997928942;632;-0.309967041015625;1 A;
327.089113174179;-0.79559326171875;0.821599997925659;633;-0.309967041015625;1 A;
327.090413174176;-0.7958984375;0.822899997922377;634;-0.3099365234375;1 A;
327.091713174173;-0.79559326171875;0.824199997919095;635;-0.309967041015625;1 A;
327.09301317417;-0.7958984375;0.825499997915813;636;-0.309967041015625;1 A;
327.094313174166;-0.7958984375;0.826799997912531;637;-0.309967041015625;1 A;
327.095613174163;-0.79559326171875;0.828099997909248;638;-0.309967041015625;1 A;
327.09691317416;-0.7965087890625;0.829399997905966;639;-0.309906005859375;1 A;
327.098213174156;-0.7965087890625;0.830699997902684;640;-0.309967041015625;1 A;
327.099513174153;-0.79681396484375;0.831999997899402;641;-0.30999755859375;1 A;
327.10081317415;-0.7965087890625;0.83329999789612;642;-0.3099365234375;1 A;
327.102113174147;-0.7965087890625;0.834599997892838;643;-0.309906005859375;1 A;
327.103413174143;-0.79681396484375;0.835899997889555;644;-0.3099365234375;1 A;
327.10471317414;-0.79681396484375;0.837199997886273;645;-0.309967041015625;1 A;
327.106013174137;-0.79681396484375;0.838499997882991;646;-0.3099365234375;1 A;
327.107313174133;-0.797119140625;0.839799997879709;647;-0.309967041015625;1 A;
327.10861317413;-0.797119140625;0.841099997876427;648;-0.3099365234375;1 A;
327.109913174127;-0.79742431640625;0.842399997873144;649;-0.309967041015625;1 A;
327.111213174124;-0.7977294921875;0.843699997869862;650;-0.3099365234375;1 A;
327.11251317412;-0.7977294921875;0.84499999786658;651;-0.30999755859375;1 A;
327.113813174117;-0.7977294921875;0.846299997863298;652;-0.309906005859375;1 A;
327.115113174114;-0.79803466796875;0.847599997860016;653;-0.309967041015625;1 A;
327.11641317411;-0.79803466796875;0.848899997856734;654;-0.3099365234375;1 A;
327.117713174107;-0.79803466796875;0.850199997853451;655;-0.309967041015625;1 A;
327.119013174104;-0.79833984375;0.851499997850169;656;-0.30999755859375;1 A;
327.120313174101;-0.79803466796875;0.852799997846887;657;-0.30999755859375;1 A;
327.121613174097;-0.79864501953125;0.854099997843605;658;-0.3099365234375;1 A;
327.122913174094;-0.79864501953125;0.855399997840323;659;-0.309967041015625;1 A;
327.124213174091;-0.79864501953125;0.85669999783704;660;-0.309967041015625;1 A;
327.125513174087;-0.79864501953125;0.857999997833758;661;-0.309967041015625;1 A;
327.126813174084;-0.7989501953125;0.859299997830476;662;-0.309967041015625;1 A;
327.128113174081;-0.7989501953125;0.860599997827194;663;-0.310028076171875;1 A;
327.129413174078;-0.799560546875;0.861899997823912;664;-0.3099365234375;1 A;
327.130713174074;-0.79925537109375;0.86319999782063;665;-0.309967041015625;1 A;
327.132013174071;-0.799560546875;0.864499997817347;666;-0.309967041015625;1 A;
327.133313174068;-0.79925537109375;0.865799997814065;667;-0.309967041015625;1 A;
327.134613174064;-0.799560546875;0.867099997810783;668;-0.3099365234375;1 A;
327.135913174061;-0.8001708984375;0.868399997807501;669;-0.30999755859375;1 A;
327.137213174058;-0.8001708984375;0.869699997804219;670;-0.3099365234375;1 A;
327.138513174055;-0.8001708984375;0.870999997800936;671;-0.309967041015625;1 A;
327.139813174051;-0.8001708984375;0.872299997797654;672;-0.30987548828125;1 A;
327.141113174048;-0.80047607421875;0.873599997794372;673;-0.309906005859375;1 A;
327.142413174045;-0.80047607421875;0.87489999779109;674;-0.30999755859375;1 A;
327.143713174042;-0.80078125;0.876199997787808;675;-0.310028076171875;1 A;
327.145013174038;-0.80108642578125;0.877499997784525;676;-0.309906005859375;1 A;
327.146313174035;-0.80108642578125;0.878799997781243;677;-0.30999755859375;1 A;
327.147613174032;-0.8013916015625;0.880099997777961;678;-0.30999755859375;1 A;
327.148913174028;-0.80108642578125;0.881399997774679;679;-0.30999755859375;1 A;
327.150213174025;-0.8013916015625;0.882699997771397;680;-0.309967041015625;1 A;
327.151513174022;-0.8013916015625;0.883999997768115;681;-0.309967041015625;1 A;
327.152813174019;-0.80169677734375;0.885299997764832;682;-0.3099365234375;1 A;
327.154113174015;-0.80169677734375;0.88659999776155;683;-0.309967041015625;1 A;
327.155413174012;-0.80169677734375;0.887899997758268;684;-0.309967041015625;1 A;
327.156713174009;-0.802001953125;0.889199997754986;685;-0.3099365234375;1 A;
327.158013174005;-0.802001953125;0.890499997751704;686;-0.309967041015625;1 A;
327.159313174002;-0.80230712890625;0.891799997748421;687;-0.3099365234375;1 A;
327.160613173999;-0.80230712890625;0.893099997745139;688;-0.309967041015625;1 A;
327.161913173996;-0.8026123046875;0.894399997741857;689;-0.3099365234375;1 A;
327.163213173992;-0.8026123046875;0.895699997738575;690;-0.30987548828125;1 A;
327.164513173989;-0.80291748046875;0.896999997735293;691;-0.30987548828125;1 A;
327.165813173986;-0.80291748046875;0.898299997732011;692;-0.309967041015625;1 A;
327.167113173982;-0.80291748046875;0.899599997728728;693;-0.3099365234375;1 A;
327.168413173979;-0.80352783203125;0.900899997725446;694;-0.3099365234375;1 A;
327.169713173976;-0.80352783203125;0.902199997722164;695;-0.3099365234375;1 A;
327.171013173973;-0.8038330078125;0.903499997718882;696;-0.309967041015625;1 A;
327.172313173969;-0.8038330078125;0.9047999977156;697;-0.30999755859375;1 A;
327.173613173966;-0.8038330078125;0.906099997712317;698;-0.3099365234375;1 A;
327.174913173963;-0.8038330078125;0.907399997709035;699;-0.30999755859375;1 A;
327.176213173959;-0.80413818359375;0.908699997705753;700;-0.309906005859375;1 A;
327.177513173956;-0.80413818359375;0.909999997702471;701;-0.309967041015625;1 A;
327.178813173953;-0.80413818359375;0.911299997699189;702;-0.30999755859375;1 A;
327.18011317395;-0.80474853515625;0.912599997695906;703;-0.3099365234375;1 A;
327.181413173946;-0.804443359375;0.913899997692624;704;-0.309967041015625;1 A;
327.182713173943;-0.80474853515625;0.915199997689342;705;-0.309967041015625;1 A;
327.18401317394;-0.80474853515625;0.91649999768606;706;-0.310028076171875;1 A;
327.185313173936;-0.8050537109375;0.917799997682778;707;-0.309906005859375;1 A;
327.186613173933;-0.8056640625;0.919099997679496;708;-0.309967041015625;1 A;
327.18791317393;-0.80535888671875;0.920399997676213;709;-0.309906005859375;1 A;
327.189213173927;-0.8056640625;0.921699997672931;710;-0.309967041015625;1 A;
327.190513173923;-0.8056640625;0.922999997669649;711;-0.3099365234375;1 A;
327.19181317392;-0.8056640625;0.924299997666367;712;-0.309906005859375;1 A;
327.193113173917;-0.80596923828125;0.925599997663085;713;-0.30999755859375;1 A;
327.194413173914;-0.80596923828125;0.926899997659802;714;-0.3099365234375;1 A;
327.19571317391;-0.8062744140625;0.92819999765652;715;-0.30999755859375;1 A;
327.197013173907;-0.80657958984375;0.929499997653238;716;-0.309967041015625;1 A;
327.198313173904;-0.806884765625;0.930799997649956;717;-0.309967041015625;1 A;
327.1996131739;-0.806884765625;0.932099997646674;718;-0.30999755859375;1 A;
327.200913173897;-0.806884765625;0.933399997643392;719;-0.309906005859375;1 A;
327.202213173894;-0.80718994140625;0.934699997640109;720;-0.30999755859375;1 A;
327.203513173891;-0.8074951171875;0.935999997636827;721;-0.30999755859375;1 A;
327.204813173887;-0.8074951171875;0.937299997633545;722;-0.3099365234375;1 A;
327.206113173884;-0.80780029296875;0.938599997630263;723;-0.31005859375;1 A;
327.207413173881;-0.80780029296875;0.939899997626981;724;-0.309906005859375;1 A;
327.208713173877;-0.8074951171875;0.941199997623698;725;-0.30999755859375;1 A;
327.210013173874;-0.80780029296875;0.942499997620416;726;-0.310028076171875;1 A;
327.211313173871;-0.80810546875;0.943799997617134;727;-0.3099365234375;1 A;
327.212613173868;-0.80841064453125;0.945099997613852;728;-0.309967041015625;1 A;
327.213913173864;-0.80841064453125;0.94639999761057;729;-0.30999755859375;1 A;
327.215213173861;-0.8087158203125;0.947699997607288;730;-0.3099365234375;1 A;
327.216513173858;-0.80902099609375;0.948999997604005;731;-0.3099365234375;1 A;
327.217813173854;-0.80902099609375;0.950299997600723;732;-0.309967041015625;1 A;
327.219113173851;-0.80902099609375;0.951599997597441;733;-0.309967041015625;1 A;
327.220413173848;-0.80963134765625;0.952899997594159;734;-0.30999755859375;1 A;
327.221713173845;-0.809326171875;0.954199997590877;735;-0.30999755859375;1 A;
327.223013173841;-0.809326171875;0.955499997587594;736;-0.309967041015625;1 A;
327.224313173838;-0.8099365234375;0.956799997584312;737;-0.3099365234375;1 A;
327.225613173835;-0.8099365234375;0.95809999758103;738;-0.30999755859375;1 A;
327.226913173831;-0.81024169921875;0.959399997577748;739;-0.30999755859375;1 A;
327.228213173828;-0.81024169921875;0.960699997574466;740;-0.3099365234375;1 A;
327.229513173825;-0.810546875;0.961999997571183;741;-0.309967041015625;1 A;
327.230813173822;-0.810546875;0.963299997567901;742;-0.3099365234375;1 A;
327.232113173818;-0.81085205078125;0.964599997564619;743;-0.309967041015625;1 A;
327.233413173815;-0.8111572265625;0.965899997561337;744;-0.309967041015625;1 A;
327.234713173812;-0.81146240234375;0.967199997558055;745;-0.309967041015625;1 A;
327.236013173808;-0.8111572265625;0.968499997554773;746;-0.309906005859375;1 A;
327.237313173805;-0.811767578125;0.96979999755149;747;-0.309967041015625;1 A;
327.238613173802;-0.81207275390625;0.971099997548208;748;-0.309967041015625;1 A;
327.239913173799;-0.81207275390625;0.972399997544926;749;-0.3099365234375;1 A;
327.241213173795;-0.81207275390625;0.973699997541644;750;-0.309967041015625;1 A;
327.242513173792;-0.8123779296875;0.974999997538362;751;-0.310028076171875;1 A;
327.243813173789;-0.81268310546875;0.976299997535079;752;-0.3099365234375;1 A;
327.245113173786;-0.81298828125;0.977599997531797;753;-0.309967041015625;1 A;
327.246413173782;-0.81298828125;0.978899997528515;754;-0.309967041015625;1 A;
327.247713173779;-0.81329345703125;0.980199997525233;755;-0.3099365234375;1 A;
327.249013173776;-0.81298828125;0.981499997521951;756;-0.30999755859375;1 A;
327.250313173772;-0.8135986328125;0.982799997518669;757;-0.309967041015625;1 A;
327.251613173769;-0.81329345703125;0.984099997515386;758;-0.3099365234375;1 A;
327.252913173766;-0.8135986328125;0.985399997512104;759;-0.3099365234375;1 A;
327.254213173763;-0.81390380859375;0.986699997508822;760;-0.309967041015625;1 A;
327.255513173759;-0.814208984375;0.98799999750554;761;-0.3099365234375;1 A;
327.256813173756;-0.81451416015625;0.989299997502258;762;-0.30999755859375;1 A;
327.258113173753;-0.814208984375;0.990599997498975;763;-0.309967041015625;1 A;
327.259413173749;-0.8148193359375;0.991899997495693;764;-0.3099365234375;1 A;
327.260713173746;-0.8148193359375;0.993199997492411;765;-0.309967041015625;1 A;
327.262013173743;-0.8154296875;0.994499997489129;766;-0.309906005859375;1 A;
327.26331317374;-0.8154296875;0.995799997485847;767;-0.309967041015625;1 A;
327.264613173736;-0.81512451171875;0.997099997482565;768;-0.309967041015625;1 A;
327.265913173733;-0.81573486328125;0.998399997479282;769;-0.309906005859375;1 A;
327.26721317373;-0.8160400390625;0.999699997476;770;-0.3099365234375;1 A;
327.268513173726;-0.8160400390625;1.00099999747272;771;-0.309967041015625;1 A;
327.269813173723;-0.81634521484375;1.00229999746944;772;-0.309967041015625;1 A;
327.27111317372;-0.81634521484375;1.00359999746615;773;-0.309906005859375;1 A;
327.272413173717;-0.81634521484375;1.00489999746287;774;-0.30999755859375;1 A;
327.273713173713;-0.8172607421875;1.00619999745959;775;-0.3099365234375;1 A;
327.27501317371;-0.81695556640625;1.00749999745631;776;-0.309967041015625;1 A;
327.276313173707;-0.81756591796875;1.00879999745302;777;-0.3099365234375;1 A;
327.277613173703;-0.81756591796875;1.01009999744974;778;-0.309906005859375;1 A;
327.2789131737;-0.81756591796875;1.01139999744646;779;-0.309967041015625;1 A;
327.280213173697;-0.81817626953125;1.01269999744318;780;-0.309906005859375;1 A;
327.281513173694;-0.81817626953125;1.0139999974399;781;-0.309967041015625;1 A;
327.28281317369;-0.81817626953125;1.01529999743661;782;-0.309906005859375;1 A;
327.284113173687;-0.81878662109375;1.01659999743333;783;-0.309906005859375;1 A;
327.285413173684;-0.8184814453125;1.01789999743005;784;-0.30999755859375;1 A;
327.28671317368;-0.819091796875;1.01919999742677;785;-0.30999755859375;1 A;
327.288013173677;-0.81939697265625;1.02049999742349;786;-0.3099365234375;1 A;
327.289313173674;-0.8197021484375;1.0217999974202;787;-0.30999755859375;1 A;
327.290613173671;-0.81939697265625;1.02309999741692;788;-0.30999755859375;1 A;
327.291913173667;-0.8197021484375;1.02439999741364;789;-0.309967041015625;1 A;
327.293213173664;-0.82000732421875;1.02569999741036;790;-0.309967041015625;1 A;
327.294513173661;-0.8203125;1.02699999740707;791;-0.3099365234375;1 A;
327.295813173658;-0.8203125;1.02829999740379;792;-0.3099365234375;1 A;
327.297113173654;-0.8209228515625;1.02959999740051;793;-0.3099365234375;1 A;
327.298413173651;-0.8209228515625;1.03089999739723;794;-0.30999755859375;1 A;
327.299713173648;-0.82122802734375;1.03219999739395;795;-0.309967041015625;1 A;
327.301013173644;-0.821533203125;1.03349999739066;796;-0.30999755859375;1 A;
327.302313173641;-0.82183837890625;1.03479999738738;797;-0.30999755859375;1 A;
327.303613173638;-0.82183837890625;1.0360999973841;798;-0.3099365234375;1 A;
327.304913173635;-0.82183837890625;1.03739999738082;799;-0.309967041015625;1 A;
327.306213173631;-0.82244873046875;1.03869999737753;800;-0.309967041015625;1 A;
327.307513173628;-0.82244873046875;1.03999999737425;801;-0.309967041015625;1 A;
327.308813173625;-0.82275390625;1.04129999737097;802;-0.309967041015625;1 A;
327.310113173621;-0.8233642578125;1.04259999736769;803;-0.30999755859375;1 A;
327.311413173618;-0.8233642578125;1.04389999736441;804;-0.3099365234375;1 A;
327.312713173615;-0.82366943359375;1.04519999736112;805;-0.3099365234375;1 A;
327.314013173612;-0.823974609375;1.04649999735784;806;-0.309967041015625;1 A;
327.315313173608;-0.82427978515625;1.04779999735456;807;-0.30999755859375;1 A;
327.316613173605;-0.82427978515625;1.04909999735128;808;-0.3099365234375;1 A;
327.317913173602;-0.82489013671875;1.05039999734799;809;-0.309967041015625;1 A;
327.319213173598;-0.82489013671875;1.05169999734471;810;-0.30999755859375;1 A;
327.320513173595;-0.8251953125;1.05299999734143;811;-0.30999755859375;1 A;
327.321813173592;-0.82550048828125;1.05429999733815;812;-0.309967041015625;1 A;
327.323113173589;-0.82550048828125;1.05559999733487;813;-0.309967041015625;1 A;
327.324413173585;-0.82611083984375;1.05689999733158;814;-0.3099365234375;1 A;
327.325713173582;-0.82611083984375;1.0581999973283;815;-0.309967041015625;1 A;
327.327013173579;-0.826416015625;1.05949999732502;816;-0.309967041015625;1 A;
327.328313173575;-0.826416015625;1.06079999732174;817;-0.309906005859375;1 A;
327.329613173572;-0.8270263671875;1.06209999731846;818;-0.30999755859375;1 A;
327.330913173569;-0.82733154296875;1.06339999731517;819;-0.30999755859375;1 A;
327.332213173566;-0.82763671875;1.06469999731189;820;-0.309967041015625;1 A;
327.333513173562;-0.82763671875;1.06599999730861;821;-0.3099365234375;1 A;
327.334813173559;-0.82794189453125;1.06729999730533;822;-0.309906005859375;1 A;
327.336113173556;-0.82855224609375;1.06859999730204;823;-0.3099365234375;1 A;
327.337413173552;-0.82855224609375;1.06989999729876;824;-0.309967041015625;1 A;
327.338713173549;-0.82916259765625;1.07119999729548;825;-0.309906005859375;1 A;
327.340013173546;-0.8294677734375;1.0724999972922;826;-0.309906005859375;1 A;
327.341313173543;-0.8294677734375;1.07379999728892;827;-0.309967041015625;1 A;
327.342613173539;-0.82977294921875;1.07509999728563;828;-0.309967041015625;1 A;
327.343913173536;-0.830078125;1.07639999728235;829;-0.309967041015625;1 A;
327.345213173533;-0.830078125;1.07769999727907;830;-0.30999755859375;1 A;
327.34651317353;-0.8306884765625;1.07899999727579;831;-0.309967041015625;1 A;
327.347813173526;-0.83099365234375;1.0802999972725;832;-0.30999755859375;1 A;
327.349113173523;-0.831298828125;1.08159999726922;833;-0.309967041015625;1 A;
327.35041317352;-0.831298828125;1.08289999726594;834;-0.309967041015625;1 A;
327.351713173516;-0.83221435546875;1.08419999726266;835;-0.309906005859375;1 A;
327.353013173513;-0.83221435546875;1.08549999725938;836;-0.309967041015625;1 A;
327.35431317351;-0.83251953125;1.08679999725609;837;-0.309967041015625;1 A;
327.355613173507;-0.83251953125;1.08809999725281;838;-0.3099365234375;1 A;
327.356913173503;-0.83343505859375;1.08939999724953;839;-0.309967041015625;1 A;
327.3582131735;-0.83343505859375;1.09069999724625;840;-0.309906005859375;1 A;
327.359513173497;-0.833740234375;1.09199999724297;841;-0.309967041015625;1 A;
327.360813173493;-0.83404541015625;1.09329999723968;842;-0.309967041015625;1 A;
327.36211317349;-0.8343505859375;1.0945999972364;843;-0.30999755859375;1 A;
327.363413173487;-0.83465576171875;1.09589999723312;844;-0.3099365234375;1 A;
327.364713173484;-0.83526611328125;1.09719999722984;845;-0.309967041015625;1 A;
327.36601317348;-0.83526611328125;1.09849999722655;846;-0.30999755859375;1 A;
327.367313173477;-0.8355712890625;1.09979999722327;847;-0.309967041015625;1 A;
327.368613173474;-0.836181640625;1.10109999721999;848;-0.310028076171875;1 A;
327.36991317347;-0.83648681640625;1.10239999721671;849;-0.309967041015625;1 A;
327.371213173467;-0.83648681640625;1.10369999721343;850;-0.309967041015625;1 A;
327.372513173464;-0.83740234375;1.10499999721014;851;-0.30999755859375;1 A;
327.373813173461;-0.83740234375;1.10629999720686;852;-0.3099365234375;1 A;
327.375113173457;-0.8380126953125;1.10759999720358;853;-0.30999755859375;1 A;
327.376413173454;-0.83831787109375;1.1088999972003;854;-0.3099365234375;1 A;
327.377713173451;-0.838623046875;1.11019999719701;855;-0.30999755859375;1 A;
327.379013173447;-0.8392333984375;1.11149999719373;856;-0.3099365234375;1 A;
327.380313173444;-0.83953857421875;1.11279999719045;857;-0.3099365234375;1 A;
327.381613173441;-0.83953857421875;1.11409999718717;858;-0.309967041015625;1 A;
327.382913173438;-0.83984375;1.11539999718389;859;-0.30999755859375;1 A;
327.384213173434;-0.8404541015625;1.1166999971806;860;-0.309967041015625;1 A;
327.385513173431;-0.841064453125;1.11799999717732;861;-0.3099365234375;1 A;
327.386813173428;-0.841064453125;1.11929999717404;862;-0.3099365234375;1 A;
327.388113173424;-0.8416748046875;1.12059999717076;863;-0.309967041015625;1 A;
327.389413173421;-0.84197998046875;1.12189999716747;864;-0.309967041015625;1 A;
327.390713173418;-0.84259033203125;1.12319999716419;865;-0.309967041015625;1 A;
327.392013173415;-0.8428955078125;1.12449999716091;866;-0.309967041015625;1 A;
327.393313173411;-0.843505859375;1.12579999715763;867;-0.30999755859375;1 A;
327.394613173408;-0.8441162109375;1.12709999715435;868;-0.30999755859375;1 A;
327.395913173405;-0.84442138671875;1.12839999715106;869;-0.3099365234375;1 A;
327.397213173401;-0.84442138671875;1.12969999714778;870;-0.3099365234375;1 A;
327.398513173398;-0.8447265625;1.1309999971445;871;-0.309967041015625;1 A;
327.399813173395;-0.84564208984375;1.13229999714122;872;-0.309967041015625;1 A;
327.401113173392;-0.84564208984375;1.13359999713794;873;-0.309906005859375;1 A;
327.402413173388;-0.845947265625;1.13489999713465;874;-0.3099365234375;1 A;
327.403713173385;-0.84686279296875;1.13619999713137;875;-0.309967041015625;1 A;
327.405013173382;-0.84716796875;1.13749999712809;876;-0.30999755859375;1 A;
327.406313173379;-0.84747314453125;1.13879999712481;877;-0.3099365234375;1 A;
327.407613173375;-0.848388671875;1.14009999712152;878;-0.3099365234375;1 A;
327.408913173372;-0.8489990234375;1.14139999711824;879;-0.3099365234375;1 A;
327.410213173369;-0.84930419921875;1.14269999711496;880;-0.3099365234375;1 A;
327.411513173365;-0.849609375;1.14399999711168;881;-0.3099365234375;1 A;
327.412813173362;-0.85052490234375;1.1452999971084;882;-0.309967041015625;1 A;
327.414113173359;-0.850830078125;1.14659999710511;883;-0.3099365234375;1 A;
327.415413173356;-0.85113525390625;1.14789999710183;884;-0.309906005859375;1 A;
327.416713173352;-0.8514404296875;1.14919999709855;885;-0.309967041015625;1 A;
327.418013173349;-0.85174560546875;1.15049999709527;886;-0.30999755859375;1 A;
327.419313173346;-0.85296630859375;1.15179999709198;887;-0.3099365234375;1 A;
327.420613173342;-0.853271484375;1.1530999970887;888;-0.30999755859375;1 A;
327.421913173339;-0.85357666015625;1.15439999708542;889;-0.3099365234375;1 A;
327.423213173336;-0.85479736328125;1.15569999708214;890;-0.309967041015625;1 A;
327.424513173333;-0.8551025390625;1.15699999707886;891;-0.309906005859375;1 A;
327.425813173329;-0.855712890625;1.15829999707557;892;-0.3099365234375;1 A;
327.427113173326;-0.8563232421875;1.15959999707229;893;-0.309967041015625;1 A;
327.428413173323;-0.85693359375;1.16089999706901;894;-0.3099365234375;1 A;
327.429713173319;-0.85723876953125;1.16219999706573;895;-0.3099365234375;1 A;
327.431013173316;-0.85784912109375;1.16349999706244;896;-0.309967041015625;1 A;
327.432313173313;-0.85845947265625;1.16479999705916;897;-0.3099365234375;1 A;
327.43361317331;-0.85906982421875;1.16609999705588;898;-0.309906005859375;1 A;
327.434913173306;-0.85968017578125;1.1673999970526;899;-0.309967041015625;1 A;
327.436213173303;-0.860595703125;1.16869999704932;900;-0.309967041015625;1 A;
327.4375131733;-0.86090087890625;1.16999999704603;901;-0.3099365234375;1 A;
327.438813173296;-0.86181640625;1.17129999704275;902;-0.309967041015625;1 A;
327.440113173293;-0.86273193359375;1.17259999703947;903;-0.30999755859375;1 A;
327.44141317329;-0.86334228515625;1.17389999703619;904;-0.309967041015625;1 A;
327.442713173287;-0.8642578125;1.17519999703291;905;-0.3099365234375;1 A;
327.444013173283;-0.8648681640625;1.17649999702962;906;-0.309967041015625;1 A;
327.44531317328;-0.86578369140625;1.17779999702634;907;-0.30999755859375;1 A;
327.446613173277;-0.86669921875;1.17909999702306;908;-0.3099365234375;1 A;
327.447913173273;-0.8673095703125;1.18039999701978;909;-0.3099365234375;1 A;
327.44921317327;-0.86822509765625;1.18169999701649;910;-0.3099365234375;1 A;
327.450513173267;-0.8685302734375;1.18299999701321;911;-0.309967041015625;1 A;
327.451813173264;-0.8697509765625;1.18429999700993;912;-0.30987548828125;1 A;
327.45311317326;-0.870361328125;1.18559999700665;913;-0.30999755859375;1 A;
327.454413173257;-0.8709716796875;1.18689999700337;914;-0.309967041015625;1 A;
327.455713173254;-0.8721923828125;1.18819999700008;915;-0.30987548828125;1 A;
327.457013173251;-0.872802734375;1.1894999969968;916;-0.309967041015625;1 A;
327.458313173247;-0.87432861328125;1.19079999699352;917;-0.309967041015625;1 A;
327.459613173244;-0.87493896484375;1.19209999699024;918;-0.3099365234375;1 A;
327.460913173241;-0.8758544921875;1.19339999698695;919;-0.309967041015625;1 A;
327.462213173237;-0.87738037109375;1.19469999698367;920;-0.309967041015625;1 A;
327.463513173234;-0.877685546875;1.19599999698039;921;-0.3099365234375;1 A;
327.464813173231;-0.87921142578125;1.19729999697711;922;-0.309906005859375;1 A;
327.466113173228;-0.88043212890625;1.19859999697383;923;-0.309967041015625;1 A;
327.467413173224;-0.88165283203125;1.19989999697054;924;-0.309967041015625;1 A;
327.468713173221;-0.882568359375;1.20119999696726;925;-0.309967041015625;1 A;
327.470013173218;-0.88348388671875;1.20249999696398;926;-0.3099365234375;1 A;
327.471313173214;-0.88470458984375;1.2037999969607;927;-0.3099365234375;1 A;
327.472613173211;-0.88623046875;1.20509999695741;928;-0.3099365234375;1 A;
327.473913173208;-0.887451171875;1.20639999695413;929;-0.30987548828125;1 A;
327.475213173205;-0.88897705078125;1.20769999695085;930;-0.309967041015625;1 A;
327.476513173201;-0.89019775390625;1.20899999694757;931;-0.309967041015625;1 A;
327.477813173198;-0.8917236328125;1.21029999694429;932;-0.309906005859375;1 A;
327.479113173195;-0.8929443359375;1.211599996941;933;-0.3099365234375;1 A;
327.480413173191;-0.894775390625;1.21289999693772;934;-0.309967041015625;1 A;
327.481713173188;-0.8966064453125;1.21419999693444;935;-0.309967041015625;1 A;
327.483013173185;-0.89813232421875;1.21549999693116;936;-0.309967041015625;1 A;
327.484313173182;-0.899658203125;1.21679999692788;937;-0.309967041015625;1 A;
327.485613173178;-0.9014892578125;1.21809999692459;938;-0.3099365234375;1 A;
327.486913173175;-0.9033203125;1.21939999692131;939;-0.309906005859375;1 A;
327.488213173172;-0.90576171875;1.22069999691803;940;-0.3099365234375;1 A;
327.489513173168;-0.90728759765625;1.22199999691475;941;-0.309906005859375;1 A;
327.490813173165;-0.90972900390625;1.22329999691146;942;-0.3099365234375;1 A;
327.492113173162;-0.91156005859375;1.22459999690818;943;-0.3099365234375;1 A;
327.493413173159;-0.91400146484375;1.2258999969049;944;-0.3099365234375;1 A;
327.494713173155;-0.91644287109375;1.22719999690162;945;-0.309906005859375;1 A;
327.496013173152;-0.91949462890625;1.22849999689834;946;-0.3099365234375;1 A;
327.497313173149;-0.9222412109375;1.22979999689505;947;-0.3099365234375;1 A;
327.498613173145;-0.92498779296875;1.23109999689177;948;-0.309906005859375;1 A;
327.499913173142;-0.92803955078125;1.23239999688849;949;-0.309967041015625;1 A;
327.501213173139;-0.93109130859375;1.23369999688521;950;-0.309906005859375;1 A;
327.502513173136;-0.93475341796875;1.23499999688192;951;-0.309967041015625;1 A;
327.503813173132;-0.9381103515625;1.23629999687864;952;-0.309906005859375;1 A;
327.505113173129;-0.94207763671875;1.23759999687536;953;-0.30987548828125;1 A;
327.506413173126;-0.94635009765625;1.23889999687208;954;-0.30987548828125;1 A;
327.507713173123;-0.95062255859375;1.2401999968688;955;-0.309906005859375;1 A;
327.509013173119;-0.95550537109375;1.24149999686551;956;-0.309906005859375;1 A;
327.510313173116;-0.96038818359375;1.24279999686223;957;-0.3099365234375;1 A;
327.511613173113;-0.96588134765625;1.24409999685895;958;-0.30987548828125;1 A;
327.512913173109;-0.97076416015625;1.24539999685567;959;-0.309844970703125;1 A;
327.514213173106;-0.9771728515625;1.24669999685239;960;-0.309906005859375;1 A;
327.515513173103;-0.98388671875;1.2479999968491;961;-0.30987548828125;1 A;
327.5168131731;-0.99090576171875;1.24929999684582;962;-0.30987548828125;1 A;
327.518113173096;-0.99884033203125;1.25059999684254;963;-0.309814453125;1 A;
327.519413173093;-1.00616455078125;1.25189999683926;964;-0.30987548828125;1 A;
327.52071317309;-1.014404296875;1.25319999683597;965;-0.309906005859375;1 A;
327.522013173086;-1.02264404296875;1.25449999683269;966;-0.309906005859375;1 A;
327.523313173083;-1.031494140625;1.25579999682941;967;-0.30987548828125;1 A;
327.52461317308;-1.0406494140625;1.25709999682613;968;-0.309844970703125;1 A;
327.525913173077;-1.0498046875;1.25839999682285;969;-0.30987548828125;1 A;
327.527213173073;-1.0589599609375;1.25969999681956;970;-0.309844970703125;1 A;
327.52851317307;-1.068115234375;1.26099999681628;971;-0.309814453125;1 A;
327.529813173067;-1.07757568359375;1.262299996813;972;-0.309814453125;1 A;
327.531113173063;-1.08673095703125;1.26359999680972;973;-0.309844970703125;1 A;
327.53241317306;-1.09588623046875;1.26489999680643;974;-0.30987548828125;1 A;
327.533713173057;-1.10504150390625;1.26619999680315;975;-0.309844970703125;1 A;
327.535013173054;-1.11419677734375;1.26749999679987;976;-0.309844970703125;1 A;
327.53631317305;-1.12335205078125;1.26879999679659;977;-0.309906005859375;1 A;
327.537613173047;-1.1322021484375;1.27009999679331;978;-0.309844970703125;1 A;
327.538913173044;-1.1407470703125;1.27139999679002;979;-0.30987548828125;1 A;
327.54021317304;-1.1492919921875;1.27269999678674;980;-0.30987548828125;1 A;
327.541513173037;-1.15753173828125;1.27399999678346;981;-0.309844970703125;1 A;
327.542813173034;-1.16546630859375;1.27529999678018;982;-0.30987548828125;1 A;
327.544113173031;-1.17340087890625;1.27659999677689;983;-0.309844970703125;1 A;
327.545413173027;-1.1810302734375;1.27789999677361;984;-0.309783935546875;1 A;
327.546713173024;-1.18896484375;1.27919999677033;985;-0.309783935546875;1 A;
327.548013173021;-1.1962890625;1.28049999676705;986;-0.309844970703125;1 A;
327.549313173017;-1.20391845703125;1.28179999676377;987;-0.309844970703125;1 A;
327.550613173014;-1.21124267578125;1.28309999676048;988;-0.309906005859375;1 A;
327.551913173011;-1.2188720703125;1.2843999967572;989;-0.30987548828125;1 A;
327.553213173008;-1.2261962890625;1.28569999675392;990;-0.309814453125;1 A;
327.554513173004;-1.23382568359375;1.28699999675064;991;-0.309844970703125;1 A;
327.555813173001;-1.2408447265625;1.28829999674736;992;-0.309844970703125;1 A;
327.557113172998;-1.2481689453125;1.28959999674407;993;-0.30987548828125;1 A;
327.558413172995;-1.25518798828125;1.29089999674079;994;-0.30987548828125;1 A;
327.559713172991;-1.26190185546875;1.29219999673751;995;-0.309844970703125;1 A;
327.561013172988;-1.26861572265625;1.29349999673423;996;-0.309844970703125;1 A;
327.562313172985;-1.275634765625;1.29479999673094;997;-0.30987548828125;1 A;
327.563613172981;-1.28173828125;1.29609999672766;998;-0.309814453125;1 A;
327.564913172978;-1.287841796875;1.29739999672438;999;-0.30987548828125;1 A;
327.566213172975;-1.29364013671875;1.2986999967211;1000;-0.309844970703125;1 A;
327.567513172972;-1.29974365234375;1.29999999671782;1001;-0.309906005859375;1 A;
327.568813172968;-1.3055419921875;1.30129999671453;1002;-0.309844970703125;1 A;WE(1).Potential < -1.3 V
327.570113172965;-1.31134033203125;1.30259999671125;1003;-0.309844970703125;1 A;WE(1).Potential < -1.3 V
327.571413172962;-1.3165283203125;1.30389999670797;1004;-0.309844970703125;1 A;WE(1).Potential < -1.3 V
327.572713172958;-1.322021484375;1.30519999670469;1005;-0.309844970703125;1 A;WE(1).Potential < -1.3 V
