Time (s);WE(1).Potential (V);Corrected time (s);Index;WE(1).Current (A);Current range;Cutoffs
387.574348021469;-0.490509033203125;0;1;-0.32952880859375;1 A;
387.575648021466;-0.54150390625;0.00129999999671782;2;-0.329742431640625;1 A;
387.576948021462;-0.5714111328125;0.00259999999343563;3;-0.329803466796875;1 A;
387.578248021459;-0.5921630859375;0.00389999999015345;4;-0.32977294921875;1 A;
387.579548021456;-0.609344482421875;0.00519999998687126;5;-0.329803466796875;1 A;
387.580848021452;-0.623687744140625;0.00649999998358908;6;-0.329833984375;1 A;
387.582148021449;-0.63568115234375;0.00779999998030689;7;-0.329833984375;1 A;
387.583448021446;-0.64703369140625;0.00909999997702471;8;-0.329864501953125;1 A;
387.584748021443;-0.658416748046875;0.0103999999737425;9;-0.32989501953125;1 A;
387.586048021439;-0.669677734375;0.0116999999704603;10;-0.329864501953125;1 A;
387.587348021436;-0.680816650390625;0.0129999999671782;11;-0.329864501953125;1 A;
387.588648021433;-0.69195556640625;0.014299999963896;12;-0.32989501953125;1 A;
387.589948021429;-0.702972412109375;0.0155999999606138;13;-0.329803466796875;1 A;
387.591248021426;-0.713775634765625;0.0168999999573316;14;-0.329864501953125;1 A;
387.592548021423;-0.724151611328125;0.0181999999540494;15;-0.329833984375;1 A;
387.59384802142;-0.73394775390625;0.0194999999507672;16;-0.329864501953125;1 A;
387.595148021416;-0.742828369140625;0.020799999947485;17;-0.329864501953125;1 A;
387.596448021413;-0.75042724609375;0.0220999999442029;18;-0.329833984375;1 A;
387.59774802141;-0.7574462890625;0.0233999999409207;19;-0.329925537109375;1 A;
387.599048021406;-0.762939453125;0.0246999999376385;20;-0.32989501953125;1 A;
387.600348021403;-0.7666015625;0.0259999999343563;21;-0.329925537109375;1 A;
387.6016480214;-0.767822265625;0.0272999999310741;22;-0.3299560546875;1 A;
387.602948021397;-0.76629638671875;0.0285999999277919;23;-0.329986572265625;1 A;
387.604248021393;-0.7647705078125;0.0298999999245098;24;-0.329986572265625;1 A;
387.60554802139;-0.7635498046875;0.0311999999212276;25;-0.329986572265625;1 A;
387.606848021387;-0.76324462890625;0.0324999999179454;26;-0.329986572265625;1 A;
387.608148021383;-0.7623291015625;0.0337999999146632;27;-0.329986572265625;1 A;
387.60944802138;-0.7623291015625;0.035099999911381;28;-0.329986572265625;1 A;
387.610748021377;-0.7623291015625;0.0363999999080988;29;-0.3299560546875;1 A;
387.612048021374;-0.76171875;0.0376999999048167;30;-0.329986572265625;1 A;
387.61334802137;-0.76171875;0.0389999999015345;31;-0.32989501953125;1 A;
387.614648021367;-0.76141357421875;0.0402999998982523;32;-0.3299560546875;1 A;
387.615948021364;-0.76141357421875;0.0415999998949701;33;-0.3299560546875;1 A;
387.617248021361;-0.76141357421875;0.0428999998916879;34;-0.329925537109375;1 A;
387.618548021357;-0.76141357421875;0.0441999998884057;35;-0.33001708984375;1 A;
387.619848021354;-0.76141357421875;0.0454999998851235;36;-0.329986572265625;1 A;
387.621148021351;-0.7611083984375;0.0467999998818414;37;-0.3299560546875;1 A;
387.622448021347;-0.7611083984375;0.0480999998785592;38;-0.329986572265625;1 A;
387.623748021344;-0.7611083984375;0.049399999875277;39;-0.329986572265625;1 A;
387.625048021341;-0.7611083984375;0.0506999998719948;40;-0.3299560546875;1 A;
387.626348021338;-0.7611083984375;0.0519999998687126;41;-0.329986572265625;1 A;
387.627648021334;-0.7611083984375;0.0532999998654304;42;-0.329986572265625;1 A;
387.628948021331;-0.7611083984375;0.0545999998621483;43;-0.32989501953125;1 A;
387.630248021328;-0.76141357421875;0.0558999998588661;44;-0.329986572265625;1 A;
387.631548021324;-0.7611083984375;0.0571999998555839;45;-0.3299560546875;1 A;
387.632848021321;-0.76080322265625;0.0584999998523017;46;-0.3299560546875;1 A;
387.634148021318;-0.7611083984375;0.0597999998490195;47;-0.329925537109375;1 A;
387.635448021315;-0.76080322265625;0.0610999998457373;48;-0.33001708984375;1 A;
387.636748021311;-0.76080322265625;0.0623999998424551;49;-0.329925537109375;1 A;
387.638048021308;-0.76080322265625;0.063699999839173;50;-0.3299560546875;1 A;
387.639348021305;-0.7611083984375;0.0649999998358908;51;-0.3299560546875;1 A;
387.640648021301;-0.7611083984375;0.0662999998326086;52;-0.3299560546875;1 A;
387.641948021298;-0.76080322265625;0.0675999998293264;53;-0.329986572265625;1 A;
387.643248021295;-0.7611083984375;0.0688999998260442;54;-0.3299560546875;1 A;
387.644548021292;-0.76080322265625;0.070199999822762;55;-0.3299560546875;1 A;
387.645848021288;-0.760498046875;0.0714999998194799;56;-0.32989501953125;1 A;
387.647148021285;-0.7611083984375;0.0727999998161977;57;-0.329986572265625;1 A;
387.648448021282;-0.7611083984375;0.0740999998129155;58;-0.33001708984375;1 A;
387.649748021278;-0.76080322265625;0.0753999998096333;59;-0.329986572265625;1 A;
387.651048021275;-0.7611083984375;0.0766999998063511;60;-0.329986572265625;1 A;
387.652348021272;-0.76080322265625;0.0779999998030689;61;-0.329986572265625;1 A;
387.653648021269;-0.76080322265625;0.0792999997997867;62;-0.329986572265625;1 A;
387.654948021265;-0.76080322265625;0.0805999997965046;63;-0.33001708984375;1 A;
387.656248021262;-0.7611083984375;0.0818999997932224;64;-0.3299560546875;1 A;
387.657548021259;-0.7611083984375;0.0831999997899402;65;-0.329986572265625;1 A;
387.658848021255;-0.7611083984375;0.084499999786658;66;-0.3299560546875;1 A;
387.660148021252;-0.7611083984375;0.0857999997833758;67;-0.3299560546875;1 A;
387.661448021249;-0.76080322265625;0.0870999997800936;68;-0.329986572265625;1 A;
387.662748021246;-0.7611083984375;0.0883999997768115;69;-0.329986572265625;1 A;
387.664048021242;-0.7611083984375;0.0896999997735293;70;-0.3299560546875;1 A;
387.665348021239;-0.7611083984375;0.0909999997702471;71;-0.3299560546875;1 A;
387.666648021236;-0.76080322265625;0.0922999997669649;72;-0.3299560546875;1 A;
387.667948021233;-0.7611083984375;0.0935999997636827;73;-0.3299560546875;1 A;
387.669248021229;-0.7611083984375;0.0948999997604005;74;-0.329925537109375;1 A;
387.670548021226;-0.7611083984375;0.0961999997571183;75;-0.33001708984375;1 A;
387.671848021223;-0.7611083984375;0.0974999997538362;76;-0.32989501953125;1 A;
387.673148021219;-0.76141357421875;0.098799999750554;77;-0.329986572265625;1 A;
387.674448021216;-0.7611083984375;0.100099999747272;78;-0.329925537109375;1 A;
387.675748021213;-0.7611083984375;0.10139999974399;79;-0.329986572265625;1 A;
387.67704802121;-0.7611083984375;0.102699999740707;80;-0.3299560546875;1 A;
387.678348021206;-0.7611083984375;0.103999999737425;81;-0.3299560546875;1 A;
387.679648021203;-0.7611083984375;0.105299999734143;82;-0.329925537109375;1 A;
387.6809480212;-0.76141357421875;0.106599999730861;83;-0.3299560546875;1 A;
387.682248021196;-0.76141357421875;0.107899999727579;84;-0.3299560546875;1 A;
387.683548021193;-0.7611083984375;0.109199999724297;85;-0.33001708984375;1 A;
387.68484802119;-0.76080322265625;0.110499999721014;86;-0.329925537109375;1 A;
387.686148021187;-0.76141357421875;0.111799999717732;87;-0.330047607421875;1 A;
387.687448021183;-0.7611083984375;0.11309999971445;88;-0.329986572265625;1 A;
387.68874802118;-0.7611083984375;0.114399999711168;89;-0.3299560546875;1 A;
387.690048021177;-0.76171875;0.115699999707886;90;-0.3299560546875;1 A;
387.691348021173;-0.76171875;0.116999999704603;91;-0.3299560546875;1 A;
387.69264802117;-0.7611083984375;0.118299999701321;92;-0.3299560546875;1 A;
387.693948021167;-0.76171875;0.119599999698039;93;-0.329925537109375;1 A;
387.695248021164;-0.76141357421875;0.120899999694757;94;-0.329986572265625;1 A;
387.69654802116;-0.76141357421875;0.122199999691475;95;-0.33001708984375;1 A;
387.697848021157;-0.76141357421875;0.123499999688192;96;-0.329986572265625;1 A;
387.699148021154;-0.76171875;0.12479999968491;97;-0.329986572265625;1 A;
387.70044802115;-0.76171875;0.126099999681628;98;-0.3299560546875;1 A;
387.701748021147;-0.76171875;0.127399999678346;99;-0.3299560546875;1 A;
387.703048021144;-0.76171875;0.128699999675064;100;-0.329986572265625;1 A;
387.704348021141;-0.76141357421875;0.129999999671782;101;-0.329986572265625;1 A;
387.705648021137;-0.76171875;0.131299999668499;102;-0.329986572265625;1 A;
387.706948021134;-0.76202392578125;0.132599999665217;103;-0.329986572265625;1 A;
387.708248021131;-0.76202392578125;0.133899999661935;104;-0.3299560546875;1 A;
387.709548021127;-0.76171875;0.135199999658653;105;-0.329986572265625;1 A;
387.710848021124;-0.76202392578125;0.136499999655371;106;-0.329986572265625;1 A;
387.712148021121;-0.76202392578125;0.137799999652088;107;-0.33001708984375;1 A;
387.713448021118;-0.76202392578125;0.139099999648806;108;-0.3299560546875;1 A;
387.714748021114;-0.76171875;0.140399999645524;109;-0.3299560546875;1 A;
387.716048021111;-0.76202392578125;0.141699999642242;110;-0.329925537109375;1 A;
387.717348021108;-0.7623291015625;0.14299999963896;111;-0.329986572265625;1 A;
387.718648021105;-0.7623291015625;0.144299999635678;112;-0.32989501953125;1 A;
387.719948021101;-0.76202392578125;0.145599999632395;113;-0.329986572265625;1 A;
387.721248021098;-0.76202392578125;0.146899999629113;114;-0.33001708984375;1 A;
387.722548021095;-0.7623291015625;0.148199999625831;115;-0.329986572265625;1 A;
387.723848021091;-0.76202392578125;0.149499999622549;116;-0.329986572265625;1 A;
387.725148021088;-0.7623291015625;0.150799999619267;117;-0.33001708984375;1 A;
387.726448021085;-0.76202392578125;0.152099999615984;118;-0.3299560546875;1 A;
387.727748021082;-0.76202392578125;0.153399999612702;119;-0.3299560546875;1 A;
387.729048021078;-0.7623291015625;0.15469999960942;120;-0.329925537109375;1 A;
387.730348021075;-0.76263427734375;0.155999999606138;121;-0.3299560546875;1 A;
387.731648021072;-0.762939453125;0.157299999602856;122;-0.329925537109375;1 A;
387.732948021068;-0.7623291015625;0.158599999599573;123;-0.329986572265625;1 A;
387.734248021065;-0.7623291015625;0.159899999596291;124;-0.329986572265625;1 A;
387.735548021062;-0.76263427734375;0.161199999593009;125;-0.329986572265625;1 A;
387.736848021059;-0.76263427734375;0.162499999589727;126;-0.3299560546875;1 A;
387.738148021055;-0.76263427734375;0.163799999586445;127;-0.329986572265625;1 A;
387.739448021052;-0.762939453125;0.165099999583163;128;-0.329986572265625;1 A;
387.740748021049;-0.76263427734375;0.16639999957988;129;-0.3299560546875;1 A;
387.742048021045;-0.762939453125;0.167699999576598;130;-0.3299560546875;1 A;
387.743348021042;-0.762939453125;0.168999999573316;131;-0.329925537109375;1 A;
387.744648021039;-0.762939453125;0.170299999570034;132;-0.329925537109375;1 A;
387.745948021036;-0.76263427734375;0.171599999566752;133;-0.3299560546875;1 A;
387.747248021032;-0.76324462890625;0.172899999563469;134;-0.329986572265625;1 A;
387.748548021029;-0.762939453125;0.174199999560187;135;-0.33001708984375;1 A;
387.749848021026;-0.7635498046875;0.175499999556905;136;-0.3299560546875;1 A;
387.751148021022;-0.762939453125;0.176799999553623;137;-0.3299560546875;1 A;
387.752448021019;-0.762939453125;0.178099999550341;138;-0.3299560546875;1 A;
387.753748021016;-0.76324462890625;0.179399999547059;139;-0.3299560546875;1 A;
387.755048021013;-0.76324462890625;0.180699999543776;140;-0.329986572265625;1 A;
387.756348021009;-0.7635498046875;0.181999999540494;141;-0.3299560546875;1 A;
387.757648021006;-0.76324462890625;0.183299999537212;142;-0.3299560546875;1 A;
387.758948021003;-0.76324462890625;0.18459999953393;143;-0.3299560546875;1 A;
387.760248020999;-0.76324462890625;0.185899999530648;144;-0.329986572265625;1 A;
387.761548020996;-0.76324462890625;0.187199999527365;145;-0.3299560546875;1 A;
387.762848020993;-0.7635498046875;0.188499999524083;146;-0.3299560546875;1 A;
387.76414802099;-0.7635498046875;0.189799999520801;147;-0.329986572265625;1 A;
387.765448020986;-0.7635498046875;0.191099999517519;148;-0.3299560546875;1 A;
387.766748020983;-0.7635498046875;0.192399999514237;149;-0.33001708984375;1 A;
387.76804802098;-0.76385498046875;0.193699999510955;150;-0.330047607421875;1 A;
387.769348020977;-0.76385498046875;0.194999999507672;151;-0.3299560546875;1 A;
387.770648020973;-0.76385498046875;0.19629999950439;152;-0.3299560546875;1 A;
387.77194802097;-0.76416015625;0.197599999501108;153;-0.33001708984375;1 A;
387.773248020967;-0.7635498046875;0.198899999497826;154;-0.33001708984375;1 A;
387.774548020963;-0.7635498046875;0.200199999494544;155;-0.3299560546875;1 A;
387.77584802096;-0.76385498046875;0.201499999491261;156;-0.3299560546875;1 A;
387.777148020957;-0.76385498046875;0.202799999487979;157;-0.3299560546875;1 A;
387.778448020954;-0.76385498046875;0.204099999484697;158;-0.329986572265625;1 A;
387.77974802095;-0.76416015625;0.205399999481415;159;-0.329925537109375;1 A;
387.781048020947;-0.76416015625;0.206699999478133;160;-0.3299560546875;1 A;
387.782348020944;-0.76416015625;0.20799999947485;161;-0.33001708984375;1 A;
387.78364802094;-0.76416015625;0.209299999471568;162;-0.3299560546875;1 A;
387.784948020937;-0.76416015625;0.210599999468286;163;-0.3299560546875;1 A;
387.786248020934;-0.76446533203125;0.211899999465004;164;-0.33001708984375;1 A;
387.787548020931;-0.76446533203125;0.213199999461722;165;-0.329986572265625;1 A;
387.788848020927;-0.76446533203125;0.21449999945844;166;-0.329986572265625;1 A;
387.790148020924;-0.76446533203125;0.215799999455157;167;-0.3299560546875;1 A;
387.791448020921;-0.76446533203125;0.217099999451875;168;-0.3299560546875;1 A;
387.792748020917;-0.7647705078125;0.218399999448593;169;-0.329986572265625;1 A;
387.794048020914;-0.76446533203125;0.219699999445311;170;-0.329986572265625;1 A;
387.795348020911;-0.76446533203125;0.220999999442029;171;-0.329986572265625;1 A;
387.796648020908;-0.76446533203125;0.222299999438746;172;-0.33001708984375;1 A;
387.797948020904;-0.7647705078125;0.223599999435464;173;-0.329925537109375;1 A;
387.799248020901;-0.76507568359375;0.224899999432182;174;-0.329986572265625;1 A;
387.800548020898;-0.7647705078125;0.2261999994289;175;-0.33001708984375;1 A;
387.801848020894;-0.7647705078125;0.227499999425618;176;-0.329986572265625;1 A;
387.803148020891;-0.7647705078125;0.228799999422336;177;-0.3299560546875;1 A;
387.804448020888;-0.7647705078125;0.230099999419053;178;-0.329986572265625;1 A;
387.805748020885;-0.76507568359375;0.231399999415771;179;-0.33001708984375;1 A;
387.807048020881;-0.76507568359375;0.232699999412489;180;-0.329925537109375;1 A;
387.808348020878;-0.76507568359375;0.233999999409207;181;-0.3299560546875;1 A;
387.809648020875;-0.76507568359375;0.235299999405925;182;-0.330047607421875;1 A;
387.810948020871;-0.765380859375;0.236599999402642;183;-0.329925537109375;1 A;
387.812248020868;-0.76507568359375;0.23789999939936;184;-0.3299560546875;1 A;
387.813548020865;-0.765380859375;0.239199999396078;185;-0.329986572265625;1 A;
387.814848020862;-0.765380859375;0.240499999392796;186;-0.329986572265625;1 A;
387.816148020858;-0.76507568359375;0.241799999389514;187;-0.3299560546875;1 A;
387.817448020855;-0.765380859375;0.243099999386232;188;-0.329986572265625;1 A;
387.818748020852;-0.76568603515625;0.244399999382949;189;-0.329925537109375;1 A;
387.820048020849;-0.765380859375;0.245699999379667;190;-0.3299560546875;1 A;
387.821348020845;-0.76568603515625;0.246999999376385;191;-0.33001708984375;1 A;
387.822648020842;-0.76568603515625;0.248299999373103;192;-0.33001708984375;1 A;
387.823948020839;-0.76568603515625;0.249599999369821;193;-0.3299560546875;1 A;
387.825248020835;-0.76568603515625;0.250899999366538;194;-0.33001708984375;1 A;
387.826548020832;-0.7659912109375;0.252199999363256;195;-0.329925537109375;1 A;
387.827848020829;-0.76568603515625;0.253499999359974;196;-0.33001708984375;1 A;
387.829148020826;-0.7659912109375;0.254799999356692;197;-0.329986572265625;1 A;
387.830448020822;-0.76568603515625;0.25609999935341;198;-0.3299560546875;1 A;
387.831748020819;-0.7659912109375;0.257399999350127;199;-0.3299560546875;1 A;
387.833048020816;-0.7659912109375;0.258699999346845;200;-0.329986572265625;1 A;
387.834348020812;-0.7659912109375;0.259999999343563;201;-0.329986572265625;1 A;
387.835648020809;-0.7659912109375;0.261299999340281;202;-0.33001708984375;1 A;
387.836948020806;-0.76629638671875;0.262599999336999;203;-0.329986572265625;1 A;
387.838248020803;-0.76629638671875;0.263899999333717;204;-0.3299560546875;1 A;
387.839548020799;-0.7666015625;0.265199999330434;205;-0.3299560546875;1 A;
387.840848020796;-0.7666015625;0.266499999327152;206;-0.3299560546875;1 A;
387.842148020793;-0.76629638671875;0.26779999932387;207;-0.329986572265625;1 A;
387.843448020789;-0.7666015625;0.269099999320588;208;-0.329925537109375;1 A;
387.844748020786;-0.7666015625;0.270399999317306;209;-0.3299560546875;1 A;
387.846048020783;-0.7666015625;0.271699999314023;210;-0.329925537109375;1 A;
387.84734802078;-0.7666015625;0.272999999310741;211;-0.329986572265625;1 A;
387.848648020776;-0.7672119140625;0.274299999307459;212;-0.329925537109375;1 A;
387.849948020773;-0.7666015625;0.275599999304177;213;-0.3299560546875;1 A;
387.85124802077;-0.76690673828125;0.276899999300895;214;-0.33001708984375;1 A;
387.852548020766;-0.76690673828125;0.278199999297613;215;-0.33001708984375;1 A;
387.853848020763;-0.76690673828125;0.27949999929433;216;-0.33001708984375;1 A;
387.85514802076;-0.76690673828125;0.280799999291048;217;-0.329925537109375;1 A;
387.856448020757;-0.76690673828125;0.282099999287766;218;-0.3299560546875;1 A;
387.857748020753;-0.7672119140625;0.283399999284484;219;-0.329986572265625;1 A;
387.85904802075;-0.7672119140625;0.284699999281202;220;-0.329986572265625;1 A;
387.860348020747;-0.7672119140625;0.285999999277919;221;-0.329986572265625;1 A;
387.861648020743;-0.7672119140625;0.287299999274637;222;-0.33001708984375;1 A;
387.86294802074;-0.76751708984375;0.288599999271355;223;-0.3299560546875;1 A;
387.864248020737;-0.76751708984375;0.289899999268073;224;-0.3299560546875;1 A;
387.865548020734;-0.7672119140625;0.291199999264791;225;-0.329986572265625;1 A;
387.86684802073;-0.76751708984375;0.292499999261508;226;-0.33001708984375;1 A;
387.868148020727;-0.76751708984375;0.293799999258226;227;-0.329986572265625;1 A;
387.869448020724;-0.76751708984375;0.295099999254944;228;-0.329986572265625;1 A;
387.87074802072;-0.76751708984375;0.296399999251662;229;-0.33001708984375;1 A;
387.872048020717;-0.76751708984375;0.29769999924838;230;-0.329986572265625;1 A;
387.873348020714;-0.767822265625;0.298999999245098;231;-0.329986572265625;1 A;
387.874648020711;-0.76751708984375;0.300299999241815;232;-0.3299560546875;1 A;
387.875948020707;-0.76751708984375;0.301599999238533;233;-0.329986572265625;1 A;
387.877248020704;-0.767822265625;0.302899999235251;234;-0.3299560546875;1 A;
387.878548020701;-0.767822265625;0.304199999231969;235;-0.329986572265625;1 A;
387.879848020698;-0.767822265625;0.305499999228687;236;-0.33001708984375;1 A;
387.881148020694;-0.76812744140625;0.306799999225404;237;-0.329986572265625;1 A;
387.882448020691;-0.76812744140625;0.308099999222122;238;-0.33001708984375;1 A;
387.883748020688;-0.76812744140625;0.30939999921884;239;-0.33001708984375;1 A;
387.885048020684;-0.7684326171875;0.310699999215558;240;-0.329986572265625;1 A;
387.886348020681;-0.76812744140625;0.311999999212276;241;-0.3299560546875;1 A;
387.887648020678;-0.767822265625;0.313299999208994;242;-0.3299560546875;1 A;
387.888948020675;-0.7684326171875;0.314599999205711;243;-0.3299560546875;1 A;
387.890248020671;-0.7684326171875;0.315899999202429;244;-0.329986572265625;1 A;
387.891548020668;-0.76873779296875;0.317199999199147;245;-0.3299560546875;1 A;
387.892848020665;-0.7684326171875;0.318499999195865;246;-0.329925537109375;1 A;
387.894148020661;-0.76904296875;0.319799999192583;247;-0.329986572265625;1 A;
387.895448020658;-0.76873779296875;0.3210999991893;248;-0.3299560546875;1 A;
387.896748020655;-0.76873779296875;0.322399999186018;249;-0.3299560546875;1 A;
387.898048020652;-0.76904296875;0.323699999182736;250;-0.3299560546875;1 A;
387.899348020648;-0.76904296875;0.324999999179454;251;-0.329986572265625;1 A;
387.900648020645;-0.76873779296875;0.326299999176172;252;-0.3299560546875;1 A;
387.901948020642;-0.76904296875;0.32759999917289;253;-0.329986572265625;1 A;
387.903248020638;-0.76904296875;0.328899999169607;254;-0.329986572265625;1 A;
387.904548020635;-0.76904296875;0.330199999166325;255;-0.33001708984375;1 A;
387.905848020632;-0.76873779296875;0.331499999163043;256;-0.329925537109375;1 A;
387.907148020629;-0.76934814453125;0.332799999159761;257;-0.33001708984375;1 A;
387.908448020625;-0.76934814453125;0.334099999156479;258;-0.329986572265625;1 A;
387.909748020622;-0.76934814453125;0.335399999153196;259;-0.329986572265625;1 A;
387.911048020619;-0.76934814453125;0.336699999149914;260;-0.3299560546875;1 A;
387.912348020615;-0.7696533203125;0.337999999146632;261;-0.329986572265625;1 A;
387.913648020612;-0.7696533203125;0.33929999914335;262;-0.329986572265625;1 A;
387.914948020609;-0.7696533203125;0.340599999140068;263;-0.3299560546875;1 A;
387.916248020606;-0.7696533203125;0.341899999136785;264;-0.329986572265625;1 A;
387.917548020602;-0.7696533203125;0.343199999133503;265;-0.3299560546875;1 A;
387.918848020599;-0.7696533203125;0.344499999130221;266;-0.329986572265625;1 A;
387.920148020596;-0.76995849609375;0.345799999126939;267;-0.32989501953125;1 A;
387.921448020592;-0.76995849609375;0.347099999123657;268;-0.329986572265625;1 A;
387.922748020589;-0.76995849609375;0.348399999120375;269;-0.329986572265625;1 A;
387.924048020586;-0.7696533203125;0.349699999117092;270;-0.329986572265625;1 A;
387.925348020583;-0.76995849609375;0.35099999911381;271;-0.329986572265625;1 A;
387.926648020579;-0.770263671875;0.352299999110528;272;-0.329925537109375;1 A;
387.927948020576;-0.770263671875;0.353599999107246;273;-0.330047607421875;1 A;
387.929248020573;-0.770263671875;0.354899999103964;274;-0.33001708984375;1 A;
387.93054802057;-0.770263671875;0.356199999100681;275;-0.3299560546875;1 A;
387.931848020566;-0.77056884765625;0.357499999097399;276;-0.3299560546875;1 A;
387.933148020563;-0.770263671875;0.358799999094117;277;-0.3299560546875;1 A;
387.93444802056;-0.77056884765625;0.360099999090835;278;-0.329986572265625;1 A;
387.935748020556;-0.77117919921875;0.361399999087553;279;-0.329986572265625;1 A;
387.937048020553;-0.77056884765625;0.362699999084271;280;-0.329986572265625;1 A;
387.93834802055;-0.7708740234375;0.363999999080988;281;-0.33001708984375;1 A;
387.939648020547;-0.770263671875;0.365299999077706;282;-0.329986572265625;1 A;
387.940948020543;-0.77056884765625;0.366599999074424;283;-0.3299560546875;1 A;
387.94224802054;-0.7708740234375;0.367899999071142;284;-0.33001708984375;1 A;
387.943548020537;-0.77056884765625;0.36919999906786;285;-0.3299560546875;1 A;
387.944848020533;-0.7708740234375;0.370499999064577;286;-0.329986572265625;1 A;
387.94614802053;-0.7708740234375;0.371799999061295;287;-0.33001708984375;1 A;
387.947448020527;-0.77117919921875;0.373099999058013;288;-0.3299560546875;1 A;
387.948748020524;-0.7708740234375;0.374399999054731;289;-0.330047607421875;1 A;
387.95004802052;-0.771484375;0.375699999051449;290;-0.329986572265625;1 A;
387.951348020517;-0.771484375;0.376999999048167;291;-0.329986572265625;1 A;
387.952648020514;-0.77117919921875;0.378299999044884;292;-0.329986572265625;1 A;
387.95394802051;-0.77117919921875;0.379599999041602;293;-0.329986572265625;1 A;
387.955248020507;-0.77117919921875;0.38089999903832;294;-0.3299560546875;1 A;
387.956548020504;-0.771484375;0.382199999035038;295;-0.329986572265625;1 A;
387.957848020501;-0.771484375;0.383499999031756;296;-0.33001708984375;1 A;
387.959148020497;-0.77178955078125;0.384799999028473;297;-0.329925537109375;1 A;
387.960448020494;-0.77178955078125;0.386099999025191;298;-0.3299560546875;1 A;
387.961748020491;-0.7720947265625;0.387399999021909;299;-0.329986572265625;1 A;
387.963048020487;-0.771484375;0.388699999018627;300;-0.3299560546875;1 A;
387.964348020484;-0.7720947265625;0.389999999015345;301;-0.3299560546875;1 A;
387.965648020481;-0.7720947265625;0.391299999012062;302;-0.3299560546875;1 A;
387.966948020478;-0.77239990234375;0.39259999900878;303;-0.329925537109375;1 A;
387.968248020474;-0.7720947265625;0.393899999005498;304;-0.329925537109375;1 A;
387.969548020471;-0.77239990234375;0.395199999002216;305;-0.329986572265625;1 A;
387.970848020468;-0.77239990234375;0.396499998998934;306;-0.3299560546875;1 A;
387.972148020464;-0.772705078125;0.397799998995652;307;-0.329925537109375;1 A;
387.973448020461;-0.7720947265625;0.399099998992369;308;-0.329986572265625;1 A;
387.974748020458;-0.772705078125;0.400399998989087;309;-0.329986572265625;1 A;
387.976048020455;-0.772705078125;0.401699998985805;310;-0.329986572265625;1 A;
387.977348020451;-0.77239990234375;0.402999998982523;311;-0.329925537109375;1 A;
387.978648020448;-0.77301025390625;0.404299998979241;312;-0.33001708984375;1 A;
387.979948020445;-0.77239990234375;0.405599998975958;313;-0.3299560546875;1 A;
387.981248020442;-0.772705078125;0.406899998972676;314;-0.33001708984375;1 A;
387.982548020438;-0.772705078125;0.408199998969394;315;-0.3299560546875;1 A;
387.983848020435;-0.77301025390625;0.409499998966112;316;-0.329925537109375;1 A;
387.985148020432;-0.77301025390625;0.41079999896283;317;-0.3299560546875;1 A;
387.986448020428;-0.7733154296875;0.412099998959548;318;-0.329986572265625;1 A;
387.987748020425;-0.7733154296875;0.413399998956265;319;-0.329986572265625;1 A;
387.989048020422;-0.7733154296875;0.414699998952983;320;-0.3299560546875;1 A;
387.990348020419;-0.7733154296875;0.415999998949701;321;-0.3299560546875;1 A;
387.991648020415;-0.7733154296875;0.417299998946419;322;-0.33001708984375;1 A;
387.992948020412;-0.7733154296875;0.418599998943137;323;-0.3299560546875;1 A;
387.994248020409;-0.7733154296875;0.419899998939854;324;-0.3299560546875;1 A;
387.995548020405;-0.77362060546875;0.421199998936572;325;-0.329986572265625;1 A;
387.996848020402;-0.77362060546875;0.42249999893329;326;-0.329986572265625;1 A;
387.998148020399;-0.77392578125;0.423799998930008;327;-0.329986572265625;1 A;
387.999448020396;-0.77362060546875;0.425099998926726;328;-0.329925537109375;1 A;
388.000748020392;-0.77423095703125;0.426399998923443;329;-0.3299560546875;1 A;
388.002048020389;-0.77392578125;0.427699998920161;330;-0.329986572265625;1 A;
388.003348020386;-0.77392578125;0.428999998916879;331;-0.329986572265625;1 A;
388.004648020382;-0.77423095703125;0.430299998913597;332;-0.330047607421875;1 A;
388.005948020379;-0.77392578125;0.431599998910315;333;-0.329986572265625;1 A;
388.007248020376;-0.77392578125;0.432899998907033;334;-0.329986572265625;1 A;
388.008548020373;-0.7745361328125;0.43419999890375;335;-0.3299560546875;1 A;
388.009848020369;-0.77423095703125;0.435499998900468;336;-0.3299560546875;1 A;
388.011148020366;-0.7745361328125;0.436799998897186;337;-0.329986572265625;1 A;
388.012448020363;-0.7745361328125;0.438099998893904;338;-0.3299560546875;1 A;
388.013748020359;-0.7745361328125;0.439399998890622;339;-0.329986572265625;1 A;
388.015048020356;-0.7745361328125;0.440699998887339;340;-0.329986572265625;1 A;
388.016348020353;-0.7745361328125;0.441999998884057;341;-0.3299560546875;1 A;
388.01764802035;-0.77484130859375;0.443299998880775;342;-0.3299560546875;1 A;
388.018948020346;-0.77484130859375;0.444599998877493;343;-0.329986572265625;1 A;
388.020248020343;-0.77484130859375;0.445899998874211;344;-0.3299560546875;1 A;
388.02154802034;-0.775146484375;0.447199998870929;345;-0.3299560546875;1 A;
388.022848020336;-0.77545166015625;0.448499998867646;346;-0.3299560546875;1 A;
388.024148020333;-0.77545166015625;0.449799998864364;347;-0.33001708984375;1 A;
388.02544802033;-0.77484130859375;0.451099998861082;348;-0.329986572265625;1 A;
388.026748020327;-0.775146484375;0.4523999988578;349;-0.329986572265625;1 A;
388.028048020323;-0.77545166015625;0.453699998854518;350;-0.3299560546875;1 A;
388.02934802032;-0.77545166015625;0.454999998851235;351;-0.329986572265625;1 A;
388.030648020317;-0.7757568359375;0.456299998847953;352;-0.329986572265625;1 A;
388.031948020314;-0.7757568359375;0.457599998844671;353;-0.3299560546875;1 A;
388.03324802031;-0.77545166015625;0.458899998841389;354;-0.329986572265625;1 A;
388.034548020307;-0.7757568359375;0.460199998838107;355;-0.3299560546875;1 A;
388.035848020304;-0.7757568359375;0.461499998834825;356;-0.3299560546875;1 A;
388.0371480203;-0.7757568359375;0.462799998831542;357;-0.33001708984375;1 A;
388.038448020297;-0.7757568359375;0.46409999882826;358;-0.329925537109375;1 A;
388.039748020294;-0.7763671875;0.465399998824978;359;-0.329986572265625;1 A;
388.041048020291;-0.7757568359375;0.466699998821696;360;-0.329925537109375;1 A;
388.042348020287;-0.77606201171875;0.467999998818414;361;-0.3299560546875;1 A;
388.043648020284;-0.77606201171875;0.469299998815131;362;-0.329986572265625;1 A;
388.044948020281;-0.7763671875;0.470599998811849;363;-0.329986572265625;1 A;
388.046248020277;-0.7763671875;0.471899998808567;364;-0.33001708984375;1 A;
388.047548020274;-0.7763671875;0.473199998805285;365;-0.329986572265625;1 A;
388.048848020271;-0.77667236328125;0.474499998802003;366;-0.329986572265625;1 A;
388.050148020268;-0.77667236328125;0.47579999879872;367;-0.329925537109375;1 A;
388.051448020264;-0.77667236328125;0.477099998795438;368;-0.3299560546875;1 A;
388.052748020261;-0.77667236328125;0.478399998792156;369;-0.329986572265625;1 A;
388.054048020258;-0.77667236328125;0.479699998788874;370;-0.329986572265625;1 A;
388.055348020254;-0.77667236328125;0.480999998785592;371;-0.330047607421875;1 A;
388.056648020251;-0.77667236328125;0.48229999878231;372;-0.33001708984375;1 A;
388.057948020248;-0.7769775390625;0.483599998779027;373;-0.329986572265625;1 A;
388.059248020245;-0.77728271484375;0.484899998775745;374;-0.329986572265625;1 A;
388.060548020241;-0.7769775390625;0.486199998772463;375;-0.3299560546875;1 A;
388.061848020238;-0.7769775390625;0.487499998769181;376;-0.33001708984375;1 A;
388.063148020235;-0.77728271484375;0.488799998765899;377;-0.3299560546875;1 A;
388.064448020231;-0.77728271484375;0.490099998762616;378;-0.3299560546875;1 A;
388.065748020228;-0.77728271484375;0.491399998759334;379;-0.329986572265625;1 A;
388.067048020225;-0.77728271484375;0.492699998756052;380;-0.329986572265625;1 A;
388.068348020222;-0.777587890625;0.49399999875277;381;-0.33001708984375;1 A;
388.069648020218;-0.77789306640625;0.495299998749488;382;-0.3299560546875;1 A;
388.070948020215;-0.777587890625;0.496599998746206;383;-0.3299560546875;1 A;
388.072248020212;-0.77789306640625;0.497899998742923;384;-0.330047607421875;1 A;
388.073548020208;-0.77789306640625;0.499199998739641;385;-0.329986572265625;1 A;
388.074848020205;-0.77789306640625;0.500499998736359;386;-0.329986572265625;1 A;
388.076148020202;-0.77850341796875;0.501799998733077;387;-0.329986572265625;1 A;
388.077448020199;-0.7781982421875;0.503099998729795;388;-0.329925537109375;1 A;
388.078748020195;-0.77850341796875;0.504399998726512;389;-0.3299560546875;1 A;
388.080048020192;-0.77850341796875;0.50569999872323;390;-0.3299560546875;1 A;
388.081348020189;-0.7781982421875;0.506999998719948;391;-0.329925537109375;1 A;
388.082648020186;-0.77850341796875;0.508299998716666;392;-0.3299560546875;1 A;
388.083948020182;-0.77880859375;0.509599998713384;393;-0.3299560546875;1 A;
388.085248020179;-0.77850341796875;0.510899998710101;394;-0.3299560546875;1 A;
388.086548020176;-0.77880859375;0.512199998706819;395;-0.329986572265625;1 A;
388.087848020172;-0.77880859375;0.513499998703537;396;-0.3299560546875;1 A;
388.089148020169;-0.77911376953125;0.514799998700255;397;-0.329986572265625;1 A;
388.090448020166;-0.77880859375;0.516099998696973;398;-0.329986572265625;1 A;
388.091748020163;-0.77911376953125;0.517399998693691;399;-0.3299560546875;1 A;
388.093048020159;-0.77880859375;0.518699998690408;400;-0.329986572265625;1 A;
388.094348020156;-0.7794189453125;0.519999998687126;401;-0.329986572265625;1 A;
388.095648020153;-0.7794189453125;0.521299998683844;402;-0.329986572265625;1 A;
388.096948020149;-0.7794189453125;0.522599998680562;403;-0.329925537109375;1 A;
388.098248020146;-0.7794189453125;0.52389999867728;404;-0.329925537109375;1 A;
388.099548020143;-0.7794189453125;0.525199998673997;405;-0.329986572265625;1 A;
388.10084802014;-0.77972412109375;0.526499998670715;406;-0.329986572265625;1 A;
388.102148020136;-0.77972412109375;0.527799998667433;407;-0.3299560546875;1 A;
388.103448020133;-0.77972412109375;0.529099998664151;408;-0.3299560546875;1 A;
388.10474802013;-0.77972412109375;0.530399998660869;409;-0.329986572265625;1 A;
388.106048020126;-0.780029296875;0.531699998657587;410;-0.3299560546875;1 A;
388.107348020123;-0.77972412109375;0.532999998654304;411;-0.329986572265625;1 A;
388.10864802012;-0.77972412109375;0.534299998651022;412;-0.329986572265625;1 A;
388.109948020117;-0.780029296875;0.53559999864774;413;-0.33001708984375;1 A;
388.111248020113;-0.78033447265625;0.536899998644458;414;-0.3299560546875;1 A;
388.11254802011;-0.78033447265625;0.538199998641176;415;-0.3299560546875;1 A;
388.113848020107;-0.78033447265625;0.539499998637893;416;-0.33001708984375;1 A;
388.115148020103;-0.7806396484375;0.540799998634611;417;-0.3299560546875;1 A;
388.1164480201;-0.7806396484375;0.542099998631329;418;-0.33001708984375;1 A;
388.117748020097;-0.7806396484375;0.543399998628047;419;-0.3299560546875;1 A;
388.119048020094;-0.78094482421875;0.544699998624765;420;-0.3299560546875;1 A;
388.12034802009;-0.78094482421875;0.545999998621483;421;-0.3299560546875;1 A;
388.121648020087;-0.78094482421875;0.5472999986182;422;-0.33001708984375;1 A;
388.122948020084;-0.78094482421875;0.548599998614918;423;-0.3299560546875;1 A;
388.12424802008;-0.78094482421875;0.549899998611636;424;-0.3299560546875;1 A;
388.125548020077;-0.78094482421875;0.551199998608354;425;-0.329986572265625;1 A;
388.126848020074;-0.78094482421875;0.552499998605072;426;-0.3299560546875;1 A;
388.128148020071;-0.78094482421875;0.553799998601789;427;-0.3299560546875;1 A;
388.129448020067;-0.78125;0.555099998598507;428;-0.3299560546875;1 A;
388.130748020064;-0.78125;0.556399998595225;429;-0.330047607421875;1 A;
388.132048020061;-0.78125;0.557699998591943;430;-0.3299560546875;1 A;
388.133348020057;-0.78155517578125;0.558999998588661;431;-0.329986572265625;1 A;
388.134648020054;-0.7818603515625;0.560299998585378;432;-0.33001708984375;1 A;
388.135948020051;-0.78155517578125;0.561599998582096;433;-0.32989501953125;1 A;
388.137248020048;-0.7818603515625;0.562899998578814;434;-0.3299560546875;1 A;
388.138548020044;-0.7818603515625;0.564199998575532;435;-0.33001708984375;1 A;
388.139848020041;-0.78216552734375;0.56549999857225;436;-0.3299560546875;1 A;
388.141148020038;-0.782470703125;0.566799998568968;437;-0.3299560546875;1 A;
388.142448020035;-0.782470703125;0.568099998565685;438;-0.329925537109375;1 A;
388.143748020031;-0.78216552734375;0.569399998562403;439;-0.329986572265625;1 A;
388.145048020028;-0.782470703125;0.570699998559121;440;-0.33001708984375;1 A;
388.146348020025;-0.78277587890625;0.571999998555839;441;-0.3299560546875;1 A;
388.147648020021;-0.782470703125;0.573299998552557;442;-0.33001708984375;1 A;
388.148948020018;-0.78277587890625;0.574599998549274;443;-0.3299560546875;1 A;
388.150248020015;-0.7830810546875;0.575899998545992;444;-0.329986572265625;1 A;
388.151548020012;-0.78277587890625;0.57719999854271;445;-0.3299560546875;1 A;
388.152848020008;-0.78277587890625;0.578499998539428;446;-0.329986572265625;1 A;
388.154148020005;-0.7830810546875;0.579799998536146;447;-0.329986572265625;1 A;
388.155448020002;-0.7830810546875;0.581099998532864;448;-0.3299560546875;1 A;
388.156748019998;-0.78338623046875;0.582399998529581;449;-0.3299560546875;1 A;
388.158048019995;-0.78338623046875;0.583699998526299;450;-0.329986572265625;1 A;
388.159348019992;-0.78338623046875;0.584999998523017;451;-0.3299560546875;1 A;
388.160648019989;-0.78338623046875;0.586299998519735;452;-0.3299560546875;1 A;
388.161948019985;-0.78369140625;0.587599998516453;453;-0.329925537109375;1 A;
388.163248019982;-0.78369140625;0.58889999851317;454;-0.3299560546875;1 A;
388.164548019979;-0.78369140625;0.590199998509888;455;-0.329986572265625;1 A;
388.165848019975;-0.78369140625;0.591499998506606;456;-0.33001708984375;1 A;
388.167148019972;-0.7843017578125;0.592799998503324;457;-0.33001708984375;1 A;
388.168448019969;-0.7843017578125;0.594099998500042;458;-0.329986572265625;1 A;
388.169748019966;-0.78399658203125;0.59539999849676;459;-0.330047607421875;1 A;
388.171048019962;-0.78460693359375;0.596699998493477;460;-0.3299560546875;1 A;
388.172348019959;-0.7843017578125;0.597999998490195;461;-0.3299560546875;1 A;
388.173648019956;-0.7843017578125;0.599299998486913;462;-0.3299560546875;1 A;
388.174948019952;-0.7843017578125;0.600599998483631;463;-0.329986572265625;1 A;
388.176248019949;-0.784912109375;0.601899998480349;464;-0.3299560546875;1 A;
388.177548019946;-0.784912109375;0.603199998477066;465;-0.33001708984375;1 A;
388.178848019943;-0.78521728515625;0.604499998473784;466;-0.329986572265625;1 A;
388.180148019939;-0.78521728515625;0.605799998470502;467;-0.3299560546875;1 A;
388.181448019936;-0.784912109375;0.60709999846722;468;-0.3299560546875;1 A;
388.182748019933;-0.78521728515625;0.608399998463938;469;-0.3299560546875;1 A;
388.184048019929;-0.78521728515625;0.609699998460655;470;-0.329986572265625;1 A;
388.185348019926;-0.7855224609375;0.610999998457373;471;-0.329986572265625;1 A;
388.186648019923;-0.7855224609375;0.612299998454091;472;-0.32989501953125;1 A;
388.18794801992;-0.78521728515625;0.613599998450809;473;-0.33001708984375;1 A;
388.189248019916;-0.7855224609375;0.614899998447527;474;-0.329925537109375;1 A;
388.190548019913;-0.78582763671875;0.616199998444245;475;-0.33001708984375;1 A;
388.19184801991;-0.7861328125;0.617499998440962;476;-0.329986572265625;1 A;
388.193148019907;-0.78582763671875;0.61879999843768;477;-0.329986572265625;1 A;
388.194448019903;-0.78582763671875;0.620099998434398;478;-0.329925537109375;1 A;
388.1957480199;-0.78582763671875;0.621399998431116;479;-0.329925537109375;1 A;
388.197048019897;-0.7861328125;0.622699998427834;480;-0.3299560546875;1 A;
388.198348019893;-0.78643798828125;0.623999998424551;481;-0.33001708984375;1 A;
388.19964801989;-0.78643798828125;0.625299998421269;482;-0.329986572265625;1 A;
388.200948019887;-0.78643798828125;0.626599998417987;483;-0.329986572265625;1 A;
388.202248019884;-0.78643798828125;0.627899998414705;484;-0.3299560546875;1 A;
388.20354801988;-0.7867431640625;0.629199998411423;485;-0.329986572265625;1 A;
388.204848019877;-0.7867431640625;0.630499998408141;486;-0.329986572265625;1 A;
388.206148019874;-0.78704833984375;0.631799998404858;487;-0.3299560546875;1 A;
388.20744801987;-0.78704833984375;0.633099998401576;488;-0.33001708984375;1 A;
388.208748019867;-0.78704833984375;0.634399998398294;489;-0.329986572265625;1 A;
388.210048019864;-0.787353515625;0.635699998395012;490;-0.329925537109375;1 A;
388.211348019861;-0.78704833984375;0.63699999839173;491;-0.329925537109375;1 A;
388.212648019857;-0.787353515625;0.638299998388447;492;-0.3299560546875;1 A;
388.213948019854;-0.78765869140625;0.639599998385165;493;-0.329986572265625;1 A;
388.215248019851;-0.7879638671875;0.640899998381883;494;-0.3299560546875;1 A;
388.216548019847;-0.7879638671875;0.642199998378601;495;-0.33001708984375;1 A;
388.217848019844;-0.7879638671875;0.643499998375319;496;-0.330047607421875;1 A;
388.219148019841;-0.7879638671875;0.644799998372036;497;-0.329986572265625;1 A;
388.220448019838;-0.78826904296875;0.646099998368754;498;-0.33001708984375;1 A;
388.221748019834;-0.78826904296875;0.647399998365472;499;-0.329986572265625;1 A;
388.223048019831;-0.78826904296875;0.64869999836219;500;-0.329925537109375;1 A;
388.224348019828;-0.78857421875;0.649999998358908;501;-0.329986572265625;1 A;
388.225648019824;-0.78826904296875;0.651299998355626;502;-0.3299560546875;1 A;
388.226948019821;-0.78826904296875;0.652599998352343;503;-0.33001708984375;1 A;
388.228248019818;-0.78826904296875;0.653899998349061;504;-0.329925537109375;1 A;
388.229548019815;-0.78857421875;0.655199998345779;505;-0.329986572265625;1 A;
388.230848019811;-0.7891845703125;0.656499998342497;506;-0.329986572265625;1 A;
388.232148019808;-0.7891845703125;0.657799998339215;507;-0.3299560546875;1 A;
388.233448019805;-0.78887939453125;0.659099998335932;508;-0.3299560546875;1 A;
388.234748019801;-0.78948974609375;0.66039999833265;509;-0.32989501953125;1 A;
388.236048019798;-0.78948974609375;0.661699998329368;510;-0.329986572265625;1 A;
388.237348019795;-0.78948974609375;0.662999998326086;511;-0.3299560546875;1 A;
388.238648019792;-0.7891845703125;0.664299998322804;512;-0.329986572265625;1 A;
388.239948019788;-0.789794921875;0.665599998319522;513;-0.3299560546875;1 A;
388.241248019785;-0.79010009765625;0.666899998316239;514;-0.329986572265625;1 A;
388.242548019782;-0.789794921875;0.668199998312957;515;-0.329986572265625;1 A;
388.243848019779;-0.79010009765625;0.669499998309675;516;-0.33001708984375;1 A;
388.245148019775;-0.79010009765625;0.670799998306393;517;-0.3299560546875;1 A;
388.246448019772;-0.79010009765625;0.672099998303111;518;-0.33001708984375;1 A;
388.247748019769;-0.79010009765625;0.673399998299828;519;-0.3299560546875;1 A;
388.249048019765;-0.7904052734375;0.674699998296546;520;-0.329925537109375;1 A;
388.250348019762;-0.79071044921875;0.675999998293264;521;-0.3299560546875;1 A;
388.251648019759;-0.7904052734375;0.677299998289982;522;-0.3299560546875;1 A;
388.252948019756;-0.791015625;0.6785999982867;523;-0.3299560546875;1 A;
388.254248019752;-0.79071044921875;0.679899998283418;524;-0.3299560546875;1 A;
388.255548019749;-0.791015625;0.681199998280135;525;-0.329986572265625;1 A;
388.256848019746;-0.79132080078125;0.682499998276853;526;-0.3299560546875;1 A;
388.258148019742;-0.7916259765625;0.683799998273571;527;-0.3299560546875;1 A;
388.259448019739;-0.79132080078125;0.685099998270289;528;-0.329986572265625;1 A;
388.260748019736;-0.79132080078125;0.686399998267007;529;-0.3299560546875;1 A;
388.262048019733;-0.7916259765625;0.687699998263724;530;-0.329986572265625;1 A;
388.263348019729;-0.7916259765625;0.688999998260442;531;-0.329986572265625;1 A;
388.264648019726;-0.7916259765625;0.69029999825716;532;-0.3299560546875;1 A;
388.265948019723;-0.79193115234375;0.691599998253878;533;-0.329986572265625;1 A;
388.267248019719;-0.792236328125;0.692899998250596;534;-0.329925537109375;1 A;
388.268548019716;-0.792236328125;0.694199998247313;535;-0.33001708984375;1 A;
388.269848019713;-0.792236328125;0.695499998244031;536;-0.329986572265625;1 A;
388.27114801971;-0.79254150390625;0.696799998240749;537;-0.3299560546875;1 A;
388.272448019706;-0.7928466796875;0.698099998237467;538;-0.329986572265625;1 A;
388.273748019703;-0.79254150390625;0.699399998234185;539;-0.329986572265625;1 A;
388.2750480197;-0.7928466796875;0.700699998230903;540;-0.329925537109375;1 A;
388.276348019696;-0.79254150390625;0.70199999822762;541;-0.329925537109375;1 A;
388.277648019693;-0.79315185546875;0.703299998224338;542;-0.33001708984375;1 A;
388.27894801969;-0.79315185546875;0.704599998221056;543;-0.3299560546875;1 A;
388.280248019687;-0.79315185546875;0.705899998217774;544;-0.329986572265625;1 A;
388.281548019683;-0.79345703125;0.707199998214492;545;-0.3299560546875;1 A;
388.28284801968;-0.79376220703125;0.708499998211209;546;-0.329986572265625;1 A;
388.284148019677;-0.79376220703125;0.709799998207927;547;-0.3299560546875;1 A;
388.285448019673;-0.7940673828125;0.711099998204645;548;-0.329925537109375;1 A;
388.28674801967;-0.7940673828125;0.712399998201363;549;-0.32989501953125;1 A;
388.288048019667;-0.7940673828125;0.713699998198081;550;-0.3299560546875;1 A;
388.289348019664;-0.7940673828125;0.714999998194799;551;-0.329986572265625;1 A;
388.29064801966;-0.7940673828125;0.716299998191516;552;-0.329986572265625;1 A;
388.291948019657;-0.79437255859375;0.717599998188234;553;-0.329986572265625;1 A;
388.293248019654;-0.794677734375;0.718899998184952;554;-0.329986572265625;1 A;
388.294548019651;-0.79498291015625;0.72019999818167;555;-0.329986572265625;1 A;
388.295848019647;-0.79498291015625;0.721499998178388;556;-0.329986572265625;1 A;
388.297148019644;-0.79498291015625;0.722799998175105;557;-0.3299560546875;1 A;
388.298448019641;-0.7952880859375;0.724099998171823;558;-0.329986572265625;1 A;
388.299748019637;-0.79498291015625;0.725399998168541;559;-0.329925537109375;1 A;
388.301048019634;-0.79559326171875;0.726699998165259;560;-0.33001708984375;1 A;
388.302348019631;-0.79559326171875;0.727999998161977;561;-0.3299560546875;1 A;
388.303648019628;-0.7958984375;0.729299998158695;562;-0.329925537109375;1 A;
388.304948019624;-0.79620361328125;0.730599998155412;563;-0.3299560546875;1 A;
388.306248019621;-0.7958984375;0.73189999815213;564;-0.3299560546875;1 A;
388.307548019618;-0.7958984375;0.733199998148848;565;-0.329986572265625;1 A;
388.308848019614;-0.79620361328125;0.734499998145566;566;-0.3299560546875;1 A;
388.310148019611;-0.79620361328125;0.735799998142284;567;-0.33001708984375;1 A;
388.311448019608;-0.79681396484375;0.737099998139001;568;-0.329986572265625;1 A;
388.312748019605;-0.7965087890625;0.738399998135719;569;-0.329986572265625;1 A;
388.314048019601;-0.79681396484375;0.739699998132437;570;-0.329925537109375;1 A;
388.315348019598;-0.79681396484375;0.740999998129155;571;-0.329925537109375;1 A;
388.316648019595;-0.797119140625;0.742299998125873;572;-0.329925537109375;1 A;
388.317948019591;-0.79742431640625;0.74359999812259;573;-0.3299560546875;1 A;
388.319248019588;-0.79742431640625;0.744899998119308;574;-0.329986572265625;1 A;
388.320548019585;-0.7977294921875;0.746199998116026;575;-0.329986572265625;1 A;
388.321848019582;-0.7977294921875;0.747499998112744;576;-0.3299560546875;1 A;
388.323148019578;-0.7977294921875;0.748799998109462;577;-0.329986572265625;1 A;
388.324448019575;-0.7977294921875;0.75009999810618;578;-0.329925537109375;1 A;
388.325748019572;-0.7977294921875;0.751399998102897;579;-0.33001708984375;1 A;
388.327048019568;-0.79803466796875;0.752699998099615;580;-0.329925537109375;1 A;
388.328348019565;-0.79803466796875;0.753999998096333;581;-0.3299560546875;1 A;
388.329648019562;-0.79833984375;0.755299998093051;582;-0.3299560546875;1 A;
388.330948019559;-0.79833984375;0.756599998089769;583;-0.329986572265625;1 A;
388.332248019555;-0.7989501953125;0.757899998086486;584;-0.3299560546875;1 A;
388.333548019552;-0.79864501953125;0.759199998083204;585;-0.329986572265625;1 A;
388.334848019549;-0.7989501953125;0.760499998079922;586;-0.32989501953125;1 A;
388.336148019545;-0.79925537109375;0.76179999807664;587;-0.3299560546875;1 A;
388.337448019542;-0.799560546875;0.763099998073358;588;-0.3299560546875;1 A;
388.338748019539;-0.79925537109375;0.764399998070076;589;-0.3299560546875;1 A;
388.340048019536;-0.799560546875;0.765699998066793;590;-0.329925537109375;1 A;
388.341348019532;-0.799560546875;0.766999998063511;591;-0.33001708984375;1 A;
388.342648019529;-0.79986572265625;0.768299998060229;592;-0.329986572265625;1 A;
388.343948019526;-0.79986572265625;0.769599998056947;593;-0.3299560546875;1 A;
388.345248019523;-0.8001708984375;0.770899998053665;594;-0.33001708984375;1 A;
388.346548019519;-0.8001708984375;0.772199998050382;595;-0.33001708984375;1 A;
388.347848019516;-0.80047607421875;0.7734999980471;596;-0.329986572265625;1 A;
388.349148019513;-0.80078125;0.774799998043818;597;-0.329925537109375;1 A;
388.350448019509;-0.80047607421875;0.776099998040536;598;-0.3299560546875;1 A;
388.351748019506;-0.80078125;0.777399998037254;599;-0.3299560546875;1 A;
388.353048019503;-0.80108642578125;0.778699998033971;600;-0.329986572265625;1 A;
388.3543480195;-0.80108642578125;0.779999998030689;601;-0.330047607421875;1 A;
388.355648019496;-0.8013916015625;0.781299998027407;602;-0.3299560546875;1 A;
388.356948019493;-0.80169677734375;0.782599998024125;603;-0.329864501953125;1 A;
388.35824801949;-0.80169677734375;0.783899998020843;604;-0.329986572265625;1 A;
388.359548019486;-0.80169677734375;0.785199998017561;605;-0.3299560546875;1 A;
388.360848019483;-0.80169677734375;0.786499998014278;606;-0.329986572265625;1 A;
388.36214801948;-0.802001953125;0.787799998010996;607;-0.33001708984375;1 A;
388.363448019477;-0.80230712890625;0.789099998007714;608;-0.3299560546875;1 A;
388.364748019473;-0.80230712890625;0.790399998004432;609;-0.3299560546875;1 A;
388.36604801947;-0.8026123046875;0.79169999800115;610;-0.329986572265625;1 A;
388.367348019467;-0.80291748046875;0.792999997997867;611;-0.33001708984375;1 A;
388.368648019463;-0.80291748046875;0.794299997994585;612;-0.329986572265625;1 A;
388.36994801946;-0.80291748046875;0.795599997991303;613;-0.329925537109375;1 A;
388.371248019457;-0.80352783203125;0.796899997988021;614;-0.3299560546875;1 A;
388.372548019454;-0.80352783203125;0.798199997984739;615;-0.3299560546875;1 A;
388.37384801945;-0.80352783203125;0.799499997981457;616;-0.3299560546875;1 A;
388.375148019447;-0.80352783203125;0.800799997978174;617;-0.33001708984375;1 A;
388.376448019444;-0.8038330078125;0.802099997974892;618;-0.3299560546875;1 A;
388.37774801944;-0.80413818359375;0.80339999797161;619;-0.3299560546875;1 A;
388.379048019437;-0.80413818359375;0.804699997968328;620;-0.329986572265625;1 A;
388.380348019434;-0.804443359375;0.805999997965046;621;-0.32989501953125;1 A;
388.381648019431;-0.80474853515625;0.807299997961763;622;-0.329986572265625;1 A;
388.382948019427;-0.80474853515625;0.808599997958481;623;-0.329986572265625;1 A;
388.384248019424;-0.8050537109375;0.809899997955199;624;-0.3299560546875;1 A;
388.385548019421;-0.80535888671875;0.811199997951917;625;-0.329986572265625;1 A;
388.386848019417;-0.8050537109375;0.812499997948635;626;-0.3299560546875;1 A;
388.388148019414;-0.80535888671875;0.813799997945353;627;-0.3299560546875;1 A;
388.389448019411;-0.8056640625;0.81509999794207;628;-0.329986572265625;1 A;
388.390748019408;-0.8056640625;0.816399997938788;629;-0.33001708984375;1 A;
388.392048019404;-0.80596923828125;0.817699997935506;630;-0.329986572265625;1 A;
388.393348019401;-0.80657958984375;0.818999997932224;631;-0.329986572265625;1 A;
388.394648019398;-0.8062744140625;0.820299997928942;632;-0.32989501953125;1 A;
388.395948019394;-0.80657958984375;0.821599997925659;633;-0.3299560546875;1 A;
388.397248019391;-0.806884765625;0.822899997922377;634;-0.329986572265625;1 A;
388.398548019388;-0.806884765625;0.824199997919095;635;-0.329986572265625;1 A;
388.399848019385;-0.806884765625;0.825499997915813;636;-0.3299560546875;1 A;
388.401148019381;-0.80718994140625;0.826799997912531;637;-0.3299560546875;1 A;
388.402448019378;-0.80780029296875;0.828099997909248;638;-0.3299560546875;1 A;
388.403748019375;-0.80780029296875;0.829399997905966;639;-0.3299560546875;1 A;
388.405048019372;-0.80780029296875;0.830699997902684;640;-0.3299560546875;1 A;
388.406348019368;-0.80810546875;0.831999997899402;641;-0.329986572265625;1 A;
388.407648019365;-0.80810546875;0.83329999789612;642;-0.330047607421875;1 A;
388.408948019362;-0.80841064453125;0.834599997892838;643;-0.329925537109375;1 A;
388.410248019358;-0.80841064453125;0.835899997889555;644;-0.329986572265625;1 A;
388.411548019355;-0.80902099609375;0.837199997886273;645;-0.329925537109375;1 A;
388.412848019352;-0.80902099609375;0.838499997882991;646;-0.329986572265625;1 A;
388.414148019349;-0.809326171875;0.839799997879709;647;-0.329986572265625;1 A;
388.415448019345;-0.809326171875;0.841099997876427;648;-0.329986572265625;1 A;
388.416748019342;-0.809326171875;0.842399997873144;649;-0.32989501953125;1 A;
388.418048019339;-0.8099365234375;0.843699997869862;650;-0.3299560546875;1 A;
388.419348019335;-0.80963134765625;0.84499999786658;651;-0.3299560546875;1 A;
388.420648019332;-0.8099365234375;0.846299997863298;652;-0.3299560546875;1 A;
388.421948019329;-0.81024169921875;0.847599997860016;653;-0.3299560546875;1 A;
388.423248019326;-0.81085205078125;0.848899997856734;654;-0.33001708984375;1 A;
388.424548019322;-0.810546875;0.850199997853451;655;-0.3299560546875;1 A;
388.425848019319;-0.810546875;0.851499997850169;656;-0.329986572265625;1 A;
388.427148019316;-0.810546875;0.852799997846887;657;-0.329986572265625;1 A;
388.428448019312;-0.81085205078125;0.854099997843605;658;-0.329925537109375;1 A;
388.429748019309;-0.81146240234375;0.855399997840323;659;-0.3299560546875;1 A;
388.431048019306;-0.811767578125;0.85669999783704;660;-0.3299560546875;1 A;
388.432348019303;-0.81207275390625;0.857999997833758;661;-0.329986572265625;1 A;
388.433648019299;-0.81207275390625;0.859299997830476;662;-0.329925537109375;1 A;
388.434948019296;-0.81207275390625;0.860599997827194;663;-0.3299560546875;1 A;
388.436248019293;-0.81268310546875;0.861899997823912;664;-0.329925537109375;1 A;
388.437548019289;-0.81268310546875;0.86319999782063;665;-0.3299560546875;1 A;
388.438848019286;-0.81298828125;0.864499997817347;666;-0.329986572265625;1 A;
388.440148019283;-0.81298828125;0.865799997814065;667;-0.33001708984375;1 A;
388.44144801928;-0.81329345703125;0.867099997810783;668;-0.329986572265625;1 A;
388.442748019276;-0.8135986328125;0.868399997807501;669;-0.33001708984375;1 A;
388.444048019273;-0.81390380859375;0.869699997804219;670;-0.329986572265625;1 A;
388.44534801927;-0.81390380859375;0.870999997800936;671;-0.329986572265625;1 A;
388.446648019266;-0.814208984375;0.872299997797654;672;-0.3299560546875;1 A;
388.447948019263;-0.81451416015625;0.873599997794372;673;-0.329925537109375;1 A;
388.44924801926;-0.8148193359375;0.87489999779109;674;-0.329986572265625;1 A;
388.450548019257;-0.8148193359375;0.876199997787808;675;-0.329986572265625;1 A;
388.451848019253;-0.81512451171875;0.877499997784525;676;-0.33001708984375;1 A;
388.45314801925;-0.8148193359375;0.878799997781243;677;-0.329986572265625;1 A;
388.454448019247;-0.8154296875;0.880099997777961;678;-0.329986572265625;1 A;
388.455748019244;-0.8154296875;0.881399997774679;679;-0.329986572265625;1 A;
388.45704801924;-0.81573486328125;0.882699997771397;680;-0.33001708984375;1 A;
388.458348019237;-0.8160400390625;0.883999997768115;681;-0.329986572265625;1 A;
388.459648019234;-0.81634521484375;0.885299997764832;682;-0.3299560546875;1 A;
388.46094801923;-0.816650390625;0.88659999776155;683;-0.3299560546875;1 A;
388.462248019227;-0.81695556640625;0.887899997758268;684;-0.3299560546875;1 A;
388.463548019224;-0.81695556640625;0.889199997754986;685;-0.329925537109375;1 A;
388.464848019221;-0.81756591796875;0.890499997751704;686;-0.329986572265625;1 A;
388.466148019217;-0.81756591796875;0.891799997748421;687;-0.33001708984375;1 A;
388.467448019214;-0.81787109375;0.893099997745139;688;-0.3299560546875;1 A;
388.468748019211;-0.81817626953125;0.894399997741857;689;-0.3299560546875;1 A;
388.470048019207;-0.8184814453125;0.895699997738575;690;-0.329986572265625;1 A;
388.471348019204;-0.8184814453125;0.896999997735293;691;-0.33001708984375;1 A;
388.472648019201;-0.81878662109375;0.898299997732011;692;-0.3299560546875;1 A;
388.473948019198;-0.819091796875;0.899599997728728;693;-0.329986572265625;1 A;
388.475248019194;-0.819091796875;0.900899997725446;694;-0.3299560546875;1 A;
388.476548019191;-0.81939697265625;0.902199997722164;695;-0.33001708984375;1 A;
388.477848019188;-0.8197021484375;0.903499997718882;696;-0.32989501953125;1 A;
388.479148019184;-0.82000732421875;0.9047999977156;697;-0.3299560546875;1 A;
388.480448019181;-0.8203125;0.906099997712317;698;-0.3299560546875;1 A;
388.481748019178;-0.82061767578125;0.907399997709035;699;-0.3299560546875;1 A;
388.483048019175;-0.8209228515625;0.908699997705753;700;-0.3299560546875;1 A;
388.484348019171;-0.8209228515625;0.909999997702471;701;-0.33001708984375;1 A;
388.485648019168;-0.82183837890625;0.911299997699189;702;-0.3299560546875;1 A;
388.486948019165;-0.82183837890625;0.912599997695906;703;-0.329986572265625;1 A;
388.488248019161;-0.8221435546875;0.913899997692624;704;-0.329925537109375;1 A;
388.489548019158;-0.8221435546875;0.915199997689342;705;-0.3299560546875;1 A;
388.490848019155;-0.8221435546875;0.91649999768606;706;-0.329986572265625;1 A;
388.492148019152;-0.82275390625;0.917799997682778;707;-0.3299560546875;1 A;
388.493448019148;-0.82275390625;0.919099997679496;708;-0.329925537109375;1 A;
388.494748019145;-0.8233642578125;0.920399997676213;709;-0.3299560546875;1 A;
388.496048019142;-0.8233642578125;0.921699997672931;710;-0.329986572265625;1 A;
388.497348019138;-0.82366943359375;0.922999997669649;711;-0.33001708984375;1 A;
388.498648019135;-0.82427978515625;0.924299997666367;712;-0.329986572265625;1 A;
388.499948019132;-0.82427978515625;0.925599997663085;713;-0.330047607421875;1 A;
388.501248019129;-0.8245849609375;0.926899997659802;714;-0.329925537109375;1 A;
388.502548019125;-0.82489013671875;0.92819999765652;715;-0.33001708984375;1 A;
388.503848019122;-0.8251953125;0.929499997653238;716;-0.33001708984375;1 A;
388.505148019119;-0.82550048828125;0.930799997649956;717;-0.3299560546875;1 A;
388.506448019116;-0.8258056640625;0.932099997646674;718;-0.329986572265625;1 A;
388.507748019112;-0.826416015625;0.933399997643392;719;-0.329986572265625;1 A;
388.509048019109;-0.826416015625;0.934699997640109;720;-0.329986572265625;1 A;
388.510348019106;-0.826416015625;0.935999997636827;721;-0.329925537109375;1 A;
388.511648019102;-0.8270263671875;0.937299997633545;722;-0.33001708984375;1 A;
388.512948019099;-0.82763671875;0.938599997630263;723;-0.33001708984375;1 A;
388.514248019096;-0.82763671875;0.939899997626981;724;-0.329986572265625;1 A;
388.515548019093;-0.8282470703125;0.941199997623698;725;-0.329925537109375;1 A;
388.516848019089;-0.82855224609375;0.942499997620416;726;-0.32989501953125;1 A;
388.518148019086;-0.82855224609375;0.943799997617134;727;-0.329986572265625;1 A;
388.519448019083;-0.82855224609375;0.945099997613852;728;-0.329925537109375;1 A;
388.520748019079;-0.82916259765625;0.94639999761057;729;-0.329986572265625;1 A;
388.522048019076;-0.8294677734375;0.947699997607288;730;-0.329986572265625;1 A;
388.523348019073;-0.82977294921875;0.948999997604005;731;-0.329925537109375;1 A;
388.52464801907;-0.83038330078125;0.950299997600723;732;-0.329986572265625;1 A;
388.525948019066;-0.8306884765625;0.951599997597441;733;-0.3299560546875;1 A;
388.527248019063;-0.8306884765625;0.952899997594159;734;-0.329925537109375;1 A;
388.52854801906;-0.831298828125;0.954199997590877;735;-0.33001708984375;1 A;
388.529848019056;-0.831298828125;0.955499997587594;736;-0.3299560546875;1 A;
388.531148019053;-0.8319091796875;0.956799997584312;737;-0.3299560546875;1 A;
388.53244801905;-0.83221435546875;0.95809999758103;738;-0.329986572265625;1 A;
388.533748019047;-0.83251953125;0.959399997577748;739;-0.3299560546875;1 A;
388.535048019043;-0.8331298828125;0.960699997574466;740;-0.329986572265625;1 A;
388.53634801904;-0.83343505859375;0.961999997571183;741;-0.329986572265625;1 A;
388.537648019037;-0.833740234375;0.963299997567901;742;-0.329925537109375;1 A;
388.538948019033;-0.83404541015625;0.964599997564619;743;-0.329986572265625;1 A;
388.54024801903;-0.8343505859375;0.965899997561337;744;-0.329925537109375;1 A;
388.541548019027;-0.8349609375;0.967199997558055;745;-0.329925537109375;1 A;
388.542848019024;-0.83526611328125;0.968499997554773;746;-0.3299560546875;1 A;
388.54414801902;-0.8355712890625;0.96979999755149;747;-0.33001708984375;1 A;
388.545448019017;-0.83587646484375;0.971099997548208;748;-0.3299560546875;1 A;
388.546748019014;-0.836181640625;0.972399997544926;749;-0.329986572265625;1 A;
388.54804801901;-0.83648681640625;0.973699997541644;750;-0.3299560546875;1 A;
388.549348019007;-0.83709716796875;0.974999997538362;751;-0.329986572265625;1 A;
388.550648019004;-0.83770751953125;0.976299997535079;752;-0.329986572265625;1 A;
388.551948019001;-0.8380126953125;0.977599997531797;753;-0.3299560546875;1 A;
388.553248018997;-0.83831787109375;0.978899997528515;754;-0.3299560546875;1 A;
388.554548018994;-0.83892822265625;0.980199997525233;755;-0.329986572265625;1 A;
388.555848018991;-0.83892822265625;0.981499997521951;756;-0.329986572265625;1 A;
388.557148018988;-0.83953857421875;0.982799997518669;757;-0.329986572265625;1 A;
388.558448018984;-0.84014892578125;0.984099997515386;758;-0.3299560546875;1 A;
388.559748018981;-0.84075927734375;0.985399997512104;759;-0.3299560546875;1 A;
388.561048018978;-0.841064453125;0.986699997508822;760;-0.3299560546875;1 A;
388.562348018974;-0.8416748046875;0.98799999750554;761;-0.329925537109375;1 A;
388.563648018971;-0.8416748046875;0.989299997502258;762;-0.329925537109375;1 A;
388.564948018968;-0.84228515625;0.990599997498975;763;-0.32989501953125;1 A;
388.566248018965;-0.84259033203125;0.991899997495693;764;-0.329925537109375;1 A;
388.567548018961;-0.843505859375;0.993199997492411;765;-0.329925537109375;1 A;
388.568848018958;-0.84381103515625;0.994499997489129;766;-0.329986572265625;1 A;
388.570148018955;-0.8441162109375;0.995799997485847;767;-0.3299560546875;1 A;
388.571448018951;-0.8447265625;0.997099997482565;768;-0.3299560546875;1 A;
388.572748018948;-0.8453369140625;0.998399997479282;769;-0.329986572265625;1 A;
388.574048018945;-0.84564208984375;0.999699997476;770;-0.3299560546875;1 A;
388.575348018942;-0.8465576171875;1.00099999747272;771;-0.3299560546875;1 A;
388.576648018938;-0.84686279296875;1.00229999746944;772;-0.329986572265625;1 A;
388.577948018935;-0.84716796875;1.00359999746615;773;-0.329986572265625;1 A;
388.579248018932;-0.8477783203125;1.00489999746287;774;-0.329925537109375;1 A;
388.580548018928;-0.848388671875;1.00619999745959;775;-0.329925537109375;1 A;
388.581848018925;-0.8489990234375;1.00749999745631;776;-0.329986572265625;1 A;
388.583148018922;-0.849609375;1.00879999745302;777;-0.3299560546875;1 A;
388.584448018919;-0.8502197265625;1.01009999744974;778;-0.329986572265625;1 A;
388.585748018915;-0.85052490234375;1.01139999744646;779;-0.329925537109375;1 A;
388.587048018912;-0.8514404296875;1.01269999744318;780;-0.329925537109375;1 A;
388.588348018909;-0.85174560546875;1.0139999974399;781;-0.329986572265625;1 A;
388.589648018905;-0.85235595703125;1.01529999743661;782;-0.329986572265625;1 A;
388.590948018902;-0.853271484375;1.01659999743333;783;-0.33001708984375;1 A;
388.592248018899;-0.8538818359375;1.01789999743005;784;-0.329925537109375;1 A;
388.593548018896;-0.85418701171875;1.01919999742677;785;-0.3299560546875;1 A;
388.594848018892;-0.8551025390625;1.02049999742349;786;-0.329986572265625;1 A;
388.596148018889;-0.85540771484375;1.0217999974202;787;-0.3299560546875;1 A;
388.597448018886;-0.8563232421875;1.02309999741692;788;-0.329986572265625;1 A;
388.598748018882;-0.85723876953125;1.02439999741364;789;-0.3299560546875;1 A;
388.600048018879;-0.85784912109375;1.02569999741036;790;-0.3299560546875;1 A;
388.601348018876;-0.858154296875;1.02699999740707;791;-0.329925537109375;1 A;
388.602648018873;-0.8587646484375;1.02829999740379;792;-0.329925537109375;1 A;
388.603948018869;-0.85968017578125;1.02959999740051;793;-0.3299560546875;1 A;
388.605248018866;-0.86029052734375;1.03089999739723;794;-0.329986572265625;1 A;
388.606548018863;-0.86151123046875;1.03219999739395;795;-0.329925537109375;1 A;
388.607848018859;-0.86212158203125;1.03349999739066;796;-0.329986572265625;1 A;
388.609148018856;-0.863037109375;1.03479999738738;797;-0.3299560546875;1 A;
388.610448018853;-0.8636474609375;1.0360999973841;798;-0.32989501953125;1 A;
388.61174801885;-0.86456298828125;1.03739999738082;799;-0.33001708984375;1 A;
388.613048018846;-0.865478515625;1.03869999737753;800;-0.3299560546875;1 A;
388.614348018843;-0.8660888671875;1.03999999737425;801;-0.3299560546875;1 A;
388.61564801884;-0.86700439453125;1.04129999737097;802;-0.3299560546875;1 A;
388.616948018837;-0.867919921875;1.04259999736769;803;-0.33001708984375;1 A;
388.618248018833;-0.869140625;1.04389999736441;804;-0.329925537109375;1 A;
388.61954801883;-0.8697509765625;1.04519999736112;805;-0.3299560546875;1 A;
388.620848018827;-0.8709716796875;1.04649999735784;806;-0.3299560546875;1 A;
388.622148018823;-0.87188720703125;1.04779999735456;807;-0.329925537109375;1 A;
388.62344801882;-0.872802734375;1.04909999735128;808;-0.329986572265625;1 A;
388.624748018817;-0.87371826171875;1.05039999734799;809;-0.329925537109375;1 A;
388.626048018814;-0.87493896484375;1.05169999734471;810;-0.329986572265625;1 A;
388.62734801881;-0.87615966796875;1.05299999734143;811;-0.329986572265625;1 A;
388.628648018807;-0.87738037109375;1.05429999733815;812;-0.329925537109375;1 A;
388.629948018804;-0.87860107421875;1.05559999733487;813;-0.3299560546875;1 A;
388.6312480188;-0.8795166015625;1.05689999733158;814;-0.329986572265625;1 A;
388.632548018797;-0.88104248046875;1.0581999973283;815;-0.3299560546875;1 A;
388.633848018794;-0.88226318359375;1.05949999732502;816;-0.329925537109375;1 A;
388.635148018791;-0.8837890625;1.06079999732174;817;-0.329986572265625;1 A;
388.636448018787;-0.885009765625;1.06209999731846;818;-0.329925537109375;1 A;
388.637748018784;-0.88623046875;1.06339999731517;819;-0.329986572265625;1 A;
388.639048018781;-0.8880615234375;1.06469999731189;820;-0.3299560546875;1 A;
388.640348018777;-0.8892822265625;1.06599999730861;821;-0.329925537109375;1 A;
388.641648018774;-0.89111328125;1.06729999730533;822;-0.32989501953125;1 A;
388.642948018771;-0.89263916015625;1.06859999730204;823;-0.329986572265625;1 A;
388.644248018768;-0.89447021484375;1.06989999729876;824;-0.3299560546875;1 A;
388.645548018764;-0.89630126953125;1.07119999729548;825;-0.3299560546875;1 A;
388.646848018761;-0.8984375;1.0724999972922;826;-0.329925537109375;1 A;
388.648148018758;-0.9002685546875;1.07379999728892;827;-0.32989501953125;1 A;
388.649448018754;-0.90240478515625;1.07509999728563;828;-0.329986572265625;1 A;
388.650748018751;-0.90423583984375;1.07639999728235;829;-0.33001708984375;1 A;
388.652048018748;-0.9063720703125;1.07769999727907;830;-0.33001708984375;1 A;
388.653348018745;-0.90911865234375;1.07899999727579;831;-0.32989501953125;1 A;
388.654648018741;-0.91094970703125;1.0802999972725;832;-0.3299560546875;1 A;
388.655948018738;-0.9136962890625;1.08159999726922;833;-0.329925537109375;1 A;
388.657248018735;-0.91644287109375;1.08289999726594;834;-0.3299560546875;1 A;
388.658548018731;-0.9197998046875;1.08419999726266;835;-0.32989501953125;1 A;
388.659848018728;-0.92254638671875;1.08549999725938;836;-0.329925537109375;1 A;
388.661148018725;-0.92620849609375;1.08679999725609;837;-0.32989501953125;1 A;
388.662448018722;-0.92926025390625;1.08809999725281;838;-0.329986572265625;1 A;
388.663748018718;-0.9332275390625;1.08939999724953;839;-0.329925537109375;1 A;
388.665048018715;-0.93658447265625;1.09069999724625;840;-0.329925537109375;1 A;
388.666348018712;-0.941162109375;1.09199999724297;841;-0.329925537109375;1 A;
388.667648018709;-0.946044921875;1.09329999723968;842;-0.3299560546875;1 A;
388.668948018705;-0.950927734375;1.0945999972364;843;-0.329925537109375;1 A;
388.670248018702;-0.95550537109375;1.09589999723312;844;-0.329925537109375;1 A;
388.671548018699;-0.9613037109375;1.09719999722984;845;-0.32989501953125;1 A;
388.672848018695;-0.9674072265625;1.09849999722655;846;-0.329864501953125;1 A;
388.674148018692;-0.97412109375;1.09979999722327;847;-0.329864501953125;1 A;
388.675448018689;-0.9808349609375;1.10109999721999;848;-0.32989501953125;1 A;
388.676748018686;-0.98876953125;1.10239999721671;849;-0.329833984375;1 A;
388.678048018682;-0.9967041015625;1.10369999721343;850;-0.32989501953125;1 A;
388.679348018679;-1.00494384765625;1.10499999721014;851;-0.32989501953125;1 A;
388.680648018676;-1.014404296875;1.10629999720686;852;-0.329864501953125;1 A;
388.681948018672;-1.02386474609375;1.10759999720358;853;-0.329864501953125;1 A;
388.683248018669;-1.03302001953125;1.1088999972003;854;-0.32989501953125;1 A;
388.684548018666;-1.04339599609375;1.11019999719701;855;-0.329864501953125;1 A;
388.685848018663;-1.053466796875;1.11149999719373;856;-0.329833984375;1 A;
388.687148018659;-1.063232421875;1.11279999719045;857;-0.329864501953125;1 A;
388.688448018656;-1.07391357421875;1.11409999718717;858;-0.329833984375;1 A;
388.689748018653;-1.083984375;1.11539999718389;859;-0.329864501953125;1 A;
388.691048018649;-1.09375;1.1166999971806;860;-0.329803466796875;1 A;
388.692348018646;-1.10382080078125;1.11799999717732;861;-0.329803466796875;1 A;
388.693648018643;-1.11419677734375;1.11929999717404;862;-0.32989501953125;1 A;
388.69494801864;-1.124267578125;1.12059999717076;863;-0.329833984375;1 A;
388.696248018636;-1.13372802734375;1.12189999716747;864;-0.329833984375;1 A;
388.697548018633;-1.14349365234375;1.12319999716419;865;-0.329833984375;1 A;
388.69884801863;-1.1529541015625;1.12449999716091;866;-0.32989501953125;1 A;
388.700148018626;-1.162109375;1.12579999715763;867;-0.329833984375;1 A;
388.701448018623;-1.17095947265625;1.12709999715435;868;-0.329864501953125;1 A;
388.70274801862;-1.1798095703125;1.12839999715106;869;-0.329803466796875;1 A;
388.704048018617;-1.18804931640625;1.12969999714778;870;-0.329803466796875;1 A;
388.705348018613;-1.1968994140625;1.1309999971445;871;-0.329803466796875;1 A;
388.70664801861;-1.20513916015625;1.13229999714122;872;-0.32989501953125;1 A;
388.707948018607;-1.2139892578125;1.13359999713794;873;-0.329803466796875;1 A;
388.709248018603;-1.221923828125;1.13489999713465;874;-0.329833984375;1 A;
388.7105480186;-1.2298583984375;1.13619999713137;875;-0.329864501953125;1 A;
388.711848018597;-1.23870849609375;1.13749999712809;876;-0.329833984375;1 A;
388.713148018594;-1.24664306640625;1.13879999712481;877;-0.329803466796875;1 A;
388.71444801859;-1.25457763671875;1.14009999712152;878;-0.329833984375;1 A;
388.715748018587;-1.26251220703125;1.14139999711824;879;-0.329833984375;1 A;
388.717048018584;-1.27044677734375;1.14269999711496;880;-0.329803466796875;1 A;
388.718348018581;-1.27777099609375;1.14399999711168;881;-0.329833984375;1 A;
388.719648018577;-1.28448486328125;1.1452999971084;882;-0.329833984375;1 A;
388.720948018574;-1.29119873046875;1.14659999710511;883;-0.329864501953125;1 A;
388.722248018571;-1.29791259765625;1.14789999710183;884;-0.32989501953125;1 A;
388.723548018567;-1.304931640625;1.14919999709855;885;-0.329803466796875;1 A;WE(1).Potential < -1.3 V
388.724848018564;-1.31103515625;1.15049999709527;886;-0.329864501953125;1 A;WE(1).Potential < -1.3 V
388.726148018561;-1.317138671875;1.15179999709198;887;-0.32977294921875;1 A;WE(1).Potential < -1.3 V
388.727448018558;-1.3238525390625;1.1530999970887;888;-0.329925537109375;1 A;WE(1).Potential < -1.3 V
