Time (s);WE(1).Potential (V);WE(1).Current (A);Corrected time (s);Index;Current range
0.527225998668882;-0.399749755859375;-0.02330322265625;0;1;1 A
0.537225998643635;-0.3997802734375;-0.0196197509765625;0.00999999997475243;2;1 A
0.547225998618387;-0.399688720703125;-0.0172515869140625;0.0199999999495049;3;1 A
0.55722599859314;-0.3997802734375;-0.0155792236328125;0.0299999999242573;4;1 A
0.567225998567892;-0.3997802734375;-0.014349365234375;0.0399999998990097;5;1 A
0.577225998542644;-0.399749755859375;-0.01339111328125;0.0499999998737621;6;1 A
0.587225998517397;-0.399688720703125;-0.0126190185546875;0.0599999998485146;7;1 A
0.597225998492149;-0.3997802734375;-0.01195068359375;0.069999999823267;8;1 A
0.607225998466902;-0.399749755859375;-0.01141357421875;0.0799999997980194;9;1 A
0.617225998441654;-0.39971923828125;-0.010980224609375;0.0899999997727718;10;1 A
0.627225998416407;-0.3997802734375;-0.010601806640625;0.0999999997475243;11;1 A
0.637225998391159;-0.39971923828125;-0.0102874755859375;0.109999999722277;12;1 A
0.647225998365911;-0.399749755859375;-0.0099761962890625;0.119999999697029;13;1 A
0.657225998340664;-0.39971923828125;-0.00972900390625001;0.129999999671782;14;1 A
0.667225998315416;-0.399810791015625;-0.0095184326171875;0.139999999646534;15;1 A
0.677225998290169;-0.3997802734375;-0.0093231201171875;0.149999999621286;16;1 A
0.687225998264921;-0.399749755859375;-0.009136962890625;0.159999999596039;17;1 A
0.697225998239674;-0.399749755859375;-0.0089599609375;0.169999999570791;18;1 A
0.707225998214426;-0.399749755859375;-0.008837890625;0.179999999545544;19;1 A
0.717225998189178;-0.39971923828125;-0.0087249755859375;0.189999999520296;20;1 A
0.727225998163931;-0.399749755859375;-0.008624267578125;0.199999999495049;21;1 A
0.737225998138683;-0.399688720703125;-0.008514404296875;0.209999999469801;22;1 A
0.747225998113436;-0.3997802734375;-0.008392333984375;0.219999999444553;23;1 A
0.757225998088188;-0.399658203125;-0.00830993652343751;0.229999999419306;24;1 A
0.767225998062941;-0.39971923828125;-0.00823364257812501;0.239999999394058;25;1 A
0.777225998037693;-0.39971923828125;-0.00814208984375001;0.249999999368811;26;1 A
0.787225998012445;-0.39971923828125;-0.0080535888671875;0.259999999343563;27;1 A
0.797225997987198;-0.3997802734375;-0.007952880859375;0.269999999318316;28;1 A
0.80722599796195;-0.399749755859375;-0.0078887939453125;0.279999999293068;29;1 A
0.817225997936703;-0.399749755859375;-0.00785217285156251;0.28999999926782;30;1 A
0.827225997911455;-0.39984130859375;-0.0078094482421875;0.299999999242573;31;1 A
0.837225997886208;-0.399749755859375;-0.007769775390625;0.309999999217325;32;1 A
0.84722599786096;-0.39971923828125;-0.00775146484375;0.319999999192078;33;1 A
0.857225997835712;-0.39971923828125;-0.0077392578125;0.32999999916683;34;1 A
0.867225997810465;-0.399749755859375;-0.0077362060546875;0.339999999141583;35;1 A
0.877225997785217;-0.399749755859375;-0.0077392578125;0.349999999116335;36;1 A
0.88722599775997;-0.399749755859375;-0.00771179199218749;0.359999999091087;37;1 A
0.897225997734722;-0.399688720703125;-0.0076873779296875;0.36999999906584;38;1 A
0.907225997709475;-0.39984130859375;-0.0076568603515625;0.379999999040592;39;1 A
0.917225997684227;-0.399749755859375;-0.0076263427734375;0.389999999015345;40;1 A
0.927225997658979;-0.399810791015625;-0.00754699707031251;0.399999998990097;41;1 A
0.937225997633732;-0.399749755859375;-0.0075103759765625;0.40999999896485;42;1 A
0.947225997608484;-0.39971923828125;-0.00747070312500001;0.419999998939602;43;1 A
0.957225997583237;-0.3997802734375;-0.00743713378906249;0.429999998914354;44;1 A
0.967225997557989;-0.399810791015625;-0.00744018554687501;0.439999998889107;45;1 A
0.977225997532742;-0.399688720703125;-0.0074188232421875;0.449999998863859;46;1 A
0.987225997507494;-0.399749755859375;-0.007415771484375;0.459999998838612;47;1 A
0.997225997482246;-0.399749755859375;-0.0074310302734375;0.469999998813364;48;1 A
1.007225997457;-0.399749755859375;-0.00742492675781251;0.479999998788116;49;1 A
1.01722599743175;-0.39971923828125;-0.00743713378906249;0.489999998762869;50;1 A
1.0272259974065;-0.39971923828125;-0.0074310302734375;0.499999998737621;51;1 A
1.03722599738126;-0.399749755859375;-0.007415771484375;0.509999998712374;52;1 A
1.04722599735601;-0.399871826171875;-0.007427978515625;0.519999998687126;53;1 A
1.05722599733076;-0.39971923828125;-0.00744018554687501;0.529999998661879;54;1 A
1.06722599730551;-0.399810791015625;-0.00745239257812499;0.539999998636631;55;1 A
1.07722599728027;-0.399749755859375;-0.0074493408203125;0.549999998611383;56;1 A
1.08722599725502;-0.39984130859375;-0.0074798583984375;0.559999998586136;57;1 A
1.09722599722977;-0.39971923828125;-0.00748596191406251;0.569999998560888;58;1 A
1.10722599720452;-0.3997802734375;-0.0074951171875;0.579999998535641;59;1 A
1.11722599717928;-0.399658203125;-0.00751953125;0.589999998510393;60;1 A
1.12722599715403;-0.3997802734375;-0.00751647949218751;0.599999998485146;61;1 A
1.13722599712878;-0.399688720703125;-0.00752868652343749;0.609999998459898;62;1 A
1.14722599710353;-0.399810791015625;-0.00751647949218751;0.61999999843465;63;1 A
1.15722599707829;-0.399749755859375;-0.00751342773437499;0.629999998409403;64;1 A
1.16722599705304;-0.399749755859375;-0.00750122070312501;0.639999998384155;65;1 A
1.17722599702779;-0.399810791015625;-0.00747070312500001;0.649999998358908;66;1 A
1.18722599700254;-0.3997802734375;-0.00745544433593751;0.65999999833366;67;1 A
1.19722599697729;-0.39971923828125;-0.0074310302734375;0.669999998308413;68;1 A
1.20722599695205;-0.3997802734375;-0.00743408203125;0.679999998283165;69;1 A
1.2172259969268;-0.3997802734375;-0.007403564453125;0.689999998257917;70;1 A
1.22722599690155;-0.3997802734375;-0.00738525390625;0.69999999823267;71;1 A
1.2372259968763;-0.399749755859375;-0.0073974609375;0.709999998207422;72;1 A
1.24722599685106;-0.399749755859375;-0.0073822021484375;0.719999998182175;73;1 A
1.25722599682581;-0.399688720703125;-0.0074005126953125;0.729999998156927;74;1 A
1.26722599680056;-0.399658203125;-0.0073883056640625;0.73999999813168;75;1 A
1.27722599677531;-0.399688720703125;-0.0073577880859375;0.749999998106432;76;1 A
1.28722599675007;-0.399810791015625;-0.00734863281250001;0.759999998081184;77;1 A
1.29722599672482;-0.399749755859375;-0.0073394775390625;0.769999998055937;78;1 A
1.30722599669957;-0.39984130859375;-0.007342529296875;0.779999998030689;79;1 A
1.31722599667432;-0.39971923828125;-0.00734863281250001;0.789999998005442;80;1 A
1.32722599664908;-0.399749755859375;-0.0073577880859375;0.799999997980194;81;1 A
1.33722599662383;-0.3997802734375;-0.00736389160156251;0.809999997954947;82;1 A
1.34722599659858;-0.399810791015625;-0.00736389160156251;0.819999997929699;83;1 A
1.35722599657333;-0.399749755859375;-0.00736083984374999;0.829999997904451;84;1 A
1.36722599654809;-0.3997802734375;-0.00732421875;0.839999997879204;85;1 A
1.37722599652284;-0.399749755859375;-0.00731506347656249;0.849999997853956;86;1 A
1.38722599649759;-0.3997802734375;-0.0072967529296875;0.859999997828709;87;1 A
1.39722599647234;-0.399749755859375;-0.007281494140625;0.869999997803461;88;1 A
1.4072259964471;-0.3997802734375;-0.00727233886718751;0.879999997778214;89;1 A
1.41722599642185;-0.3997802734375;-0.00725708007812501;0.889999997752966;90;1 A
1.4272259963966;-0.3997802734375;-0.0072479248046875;0.899999997727718;91;1 A
1.43722599637135;-0.3997802734375;-0.0072479248046875;0.909999997702471;92;1 A
1.44722599634611;-0.399810791015625;-0.0072479248046875;0.919999997677223;93;1 A
1.45722599632086;-0.39971923828125;-0.007220458984375;0.929999997651976;94;1 A
1.46722599629561;-0.3997802734375;-0.00721435546875;0.939999997626728;95;1 A
1.47722599627036;-0.39971923828125;-0.00719299316406249;0.949999997601481;96;1 A
1.48722599624512;-0.399749755859375;-0.00721130371093751;0.959999997576233;97;1 A
1.49722599621987;-0.39971923828125;-0.007232666015625;0.969999997550985;98;1 A
1.50722599619462;-0.39971923828125;-0.0072296142578125;0.979999997525738;99;1 A
1.51722599616937;-0.39971923828125;-0.0072357177734375;0.98999999750049;100;1 A
1.52722599614413;-0.399749755859375;-0.00724182128906251;0.999999997475243;101;1 A
1.53722599611888;-0.3997802734375;-0.00726928710937499;1.00999999745;102;1 A
1.54722599609363;-0.3997802734375;-0.0072906494140625;1.01999999742475;103;1 A
1.55722599606838;-0.39971923828125;-0.0073089599609375;1.0299999973995;104;1 A
1.56722599604313;-0.39984130859375;-0.00734558105468749;1.03999999737425;105;1 A
1.57722599601789;-0.399658203125;-0.007354736328125;1.049999997349;106;1 A
1.58722599599264;-0.399749755859375;-0.00737609863281249;1.05999999732376;107;1 A
1.59722599596739;-0.39971923828125;-0.007373046875;1.06999999729851;108;1 A
1.60722599594214;-0.3997802734375;-0.00733337402343751;1.07999999727326;109;1 A
1.6172259959169;-0.39971923828125;-0.00732421875;1.08999999724801;110;1 A
1.62722599589165;-0.399749755859375;-0.0072906494140625;1.09999999722277;111;1 A
1.6372259958664;-0.399749755859375;-0.00728454589843749;1.10999999719752;112;1 A
1.64722599584115;-0.39984130859375;-0.00726928710937499;1.11999999717227;113;1 A
1.65722599581591;-0.3997802734375;-0.00725708007812501;1.12999999714702;114;1 A
1.66722599579066;-0.399810791015625;-0.00726928710937499;1.13999999712178;115;1 A
1.67722599576541;-0.3997802734375;-0.00727233886718751;1.14999999709653;116;1 A
1.68722599574016;-0.3997802734375;-0.007293701171875;1.15999999707128;117;1 A
1.69722599571492;-0.399749755859375;-0.007281494140625;1.16999999704603;118;1 A
1.70722599568967;-0.399810791015625;-0.0072906494140625;1.17999999702079;119;1 A
1.71722599566442;-0.39971923828125;-0.00731506347656249;1.18999999699554;120;1 A
1.72722599563917;-0.399749755859375;-0.00731201171875;1.19999999697029;121;1 A
1.73722599561393;-0.399688720703125;-0.00731811523437501;1.20999999694504;122;1 A
1.74722599558868;-0.3997802734375;-0.0073089599609375;1.2199999969198;123;1 A
1.75722599556343;-0.399688720703125;-0.007293701171875;1.22999999689455;124;1 A
1.76722599553818;-0.3997802734375;-0.00730285644531251;1.2399999968693;125;1 A
1.77722599551294;-0.39971923828125;-0.0072906494140625;1.24999999684405;126;1 A
1.78722599548769;-0.399810791015625;-0.00728759765625001;1.25999999681881;127;1 A
1.79722599546244;-0.399749755859375;-0.00726318359375;1.26999999679356;128;1 A
1.80722599543719;-0.3997802734375;-0.00725708007812501;1.27999999676831;129;1 A
1.81722599541195;-0.399749755859375;-0.007232666015625;1.28999999674306;130;1 A
1.8272259953867;-0.39971923828125;-0.007220458984375;1.29999999671782;131;1 A
1.83722599536145;-0.399749755859375;-0.0072052001953125;1.30999999669257;132;1 A
1.8472259953362;-0.399688720703125;-0.0071685791015625;1.31999999666732;133;1 A
1.85722599531096;-0.39971923828125;-0.00718078613281251;1.32999999664207;134;1 A
1.86722599528571;-0.399749755859375;-0.007171630859375;1.33999999661683;135;1 A
1.87722599526046;-0.3997802734375;-0.0071746826171875;1.34999999659158;136;1 A
1.88722599523521;-0.399749755859375;-0.00719299316406249;1.35999999656633;137;1 A
1.89722599520996;-0.3997802734375;-0.007183837890625;1.36999999654108;138;1 A
1.90722599518472;-0.39971923828125;-0.0071990966796875;1.37999999651583;139;1 A
1.91722599515947;-0.399749755859375;-0.00722351074218749;1.38999999649059;140;1 A
1.92722599513422;-0.3997802734375;-0.00725708007812501;1.39999999646534;141;1 A
1.93722599510897;-0.3997802734375;-0.00726318359375;1.40999999644009;142;1 A
1.94722599508373;-0.39984130859375;-0.00725708007812501;1.41999999641484;143;1 A
1.95722599505848;-0.39971923828125;-0.00727233886718751;1.4299999963896;144;1 A
1.96722599503323;-0.39971923828125;-0.0072662353515625;1.43999999636435;145;1 A
1.97722599500798;-0.39959716796875;-0.007275390625;1.4499999963391;146;1 A
1.98722599498274;-0.399749755859375;-0.00725708007812501;1.45999999631385;147;1 A
1.99722599495749;-0.39971923828125;-0.0072479248046875;1.46999999628861;148;1 A
2.00722599493224;-0.39971923828125;-0.0072662353515625;1.47999999626336;149;1 A
2.01722599490699;-0.3997802734375;-0.0072662353515625;1.48999999623811;150;1 A
2.02722599488175;-0.39984130859375;-0.0072662353515625;1.49999999621286;151;1 A
2.0372259948565;-0.3997802734375;-0.00726318359375;1.50999999618762;152;1 A
2.04722599483125;-0.399810791015625;-0.007244873046875;1.51999999616237;153;1 A
2.057225994806;-0.39971923828125;-0.0072296142578125;1.52999999613712;154;1 A
2.06722599478076;-0.39971923828125;-0.0072357177734375;1.53999999611187;155;1 A
2.07722599475551;-0.399688720703125;-0.0072296142578125;1.54999999608663;156;1 A
2.08722599473026;-0.399810791015625;-0.0072296142578125;1.55999999606138;157;1 A
2.09722599470501;-0.39971923828125;-0.00726318359375;1.56999999603613;158;1 A
2.10722599467977;-0.3997802734375;-0.0072784423828125;1.57999999601088;159;1 A
2.11722599465452;-0.399749755859375;-0.0073211669921875;1.58999999598564;160;1 A
2.12722599462927;-0.39971923828125;-0.0073394775390625;1.59999999596039;161;1 A
2.13722599460402;-0.39971923828125;-0.0073394775390625;1.60999999593514;162;1 A
2.14722599457878;-0.399810791015625;-0.007354736328125;1.61999999590989;163;1 A
2.15722599455353;-0.399749755859375;-0.007373046875;1.62999999588465;164;1 A
2.16722599452828;-0.399749755859375;-0.0074005126953125;1.6399999958594;165;1 A
2.17722599450303;-0.399749755859375;-0.0073974609375;1.64999999583415;166;1 A
2.18722599447779;-0.399810791015625;-0.00740661621093749;1.6599999958089;167;1 A
2.19722599445254;-0.399688720703125;-0.0074127197265625;1.66999999578366;168;1 A
2.20722599442729;-0.39971923828125;-0.00740661621093749;1.67999999575841;169;1 A
2.21722599440204;-0.3997802734375;-0.007427978515625;1.68999999573316;170;1 A
2.22722599437679;-0.399688720703125;-0.0074005126953125;1.69999999570791;171;1 A
2.23722599435155;-0.399658203125;-0.00740661621093749;1.70999999568267;172;1 A
2.2472259943263;-0.3997802734375;-0.0074188232421875;1.71999999565742;173;1 A
2.25722599430105;-0.3997802734375;-0.00740966796875001;1.72999999563217;174;1 A
2.2672259942758;-0.399749755859375;-0.00740966796875001;1.73999999560692;175;1 A
2.27722599425056;-0.39971923828125;-0.0073822021484375;1.74999999558167;176;1 A
2.28722599422531;-0.399810791015625;-0.007373046875;1.75999999555643;177;1 A
2.29722599420006;-0.3997802734375;-0.0073516845703125;1.76999999553118;178;1 A
2.30722599417481;-0.399810791015625;-0.007354736328125;1.77999999550593;179;1 A
2.31722599414957;-0.39971923828125;-0.00734558105468749;1.78999999548068;180;1 A
2.32722599412432;-0.39971923828125;-0.0073272705078125;1.79999999545544;181;1 A
2.33722599409907;-0.39971923828125;-0.00734558105468749;1.80999999543019;182;1 A
2.34722599407382;-0.39971923828125;-0.0073272705078125;1.81999999540494;183;1 A
2.35722599404858;-0.39971923828125;-0.00733642578125;1.82999999537969;184;1 A
2.36722599402333;-0.399749755859375;-0.00734558105468749;1.83999999535445;185;1 A
2.37722599399808;-0.3997802734375;-0.00732421875;1.8499999953292;186;1 A
2.38722599397283;-0.3997802734375;-0.0073577880859375;1.85999999530395;187;1 A
2.39722599394759;-0.3997802734375;-0.007366943359375;1.8699999952787;188;1 A
2.40722599392234;-0.399810791015625;-0.007373046875;1.87999999525346;189;1 A
2.41722599389709;-0.399749755859375;-0.00736389160156251;1.88999999522821;190;1 A
2.42722599387184;-0.3997802734375;-0.007354736328125;1.89999999520296;191;1 A
2.4372259938466;-0.39971923828125;-0.0073577880859375;1.90999999517771;192;1 A
2.44722599382135;-0.399749755859375;-0.0073394775390625;1.91999999515247;193;1 A
2.4572259937961;-0.399749755859375;-0.007342529296875;1.92999999512722;194;1 A
2.46722599377085;-0.399688720703125;-0.007305908203125;1.93999999510197;195;1 A
2.47722599374561;-0.399749755859375;-0.007293701171875;1.94999999507672;196;1 A
2.48722599372036;-0.39971923828125;-0.00728454589843749;1.95999999505148;197;1 A
2.49722599369511;-0.399749755859375;-0.00725708007812501;1.96999999502623;198;1 A
2.50722599366986;-0.399749755859375;-0.00726928710937499;1.97999999500098;199;1 A
2.51722599364462;-0.39971923828125;-0.00726318359375;1.98999999497573;200;1 A
2.52722599361937;-0.3997802734375;-0.00726318359375;1.99999999495049;201;1 A
2.53722599359412;-0.3997802734375;-0.00727233886718751;2.00999999492524;202;1 A
2.54722599356887;-0.3997802734375;-0.00726928710937499;2.01999999489999;203;1 A
2.55722599354363;-0.399749755859375;-0.00726928710937499;2.02999999487474;204;1 A
2.56722599351838;-0.3997802734375;-0.00726928710937499;2.0399999948495;205;1 A
2.57722599349313;-0.39971923828125;-0.0072967529296875;2.04999999482425;206;1 A
2.58722599346788;-0.39971923828125;-0.007305908203125;2.059999994799;207;1 A
2.59722599344263;-0.399749755859375;-0.0073089599609375;2.06999999477375;208;1 A
2.60722599341739;-0.399749755859375;-0.007305908203125;2.0799999947485;209;1 A
2.61722599339214;-0.399810791015625;-0.007293701171875;2.08999999472326;210;1 A
2.62722599336689;-0.3997802734375;-0.0072906494140625;2.09999999469801;211;1 A
2.63722599334164;-0.3997802734375;-0.007293701171875;2.10999999467276;212;1 A
2.6472259933164;-0.399749755859375;-0.00728454589843749;2.11999999464751;213;1 A
2.65722599329115;-0.399810791015625;-0.007281494140625;2.12999999462227;214;1 A
2.6672259932659;-0.3997802734375;-0.007281494140625;2.13999999459702;215;1 A
2.67722599324065;-0.399749755859375;-0.00726318359375;2.14999999457177;216;1 A
2.68722599321541;-0.39971923828125;-0.0072662353515625;2.15999999454652;217;1 A
2.69722599319016;-0.39971923828125;-0.00726928710937499;2.16999999452128;218;1 A
2.70722599316491;-0.399749755859375;-0.0072509765625;2.17999999449603;219;1 A
2.71722599313966;-0.39971923828125;-0.00726318359375;2.18999999447078;220;1 A
2.72722599311442;-0.399688720703125;-0.00727233886718751;2.19999999444553;221;1 A
2.73722599308917;-0.39971923828125;-0.00727233886718751;2.20999999442029;222;1 A
2.74722599306392;-0.39971923828125;-0.00728759765625001;2.21999999439504;223;1 A
2.75722599303867;-0.399749755859375;-0.007275390625;2.22999999436979;224;1 A
2.76722599301343;-0.3997802734375;-0.00728454589843749;2.23999999434454;225;1 A
2.77722599298818;-0.399749755859375;-0.007293701171875;2.2499999943193;226;1 A
2.78722599296293;-0.399749755859375;-0.00730285644531251;2.25999999429405;227;1 A
2.79722599293768;-0.399749755859375;-0.00728759765625001;2.2699999942688;228;1 A
2.80722599291244;-0.399749755859375;-0.0072662353515625;2.27999999424355;229;1 A
2.81722599288719;-0.399810791015625;-0.007281494140625;2.28999999421831;230;1 A
2.82722599286194;-0.399688720703125;-0.00727233886718751;2.29999999419306;231;1 A
2.83722599283669;-0.399749755859375;-0.00728454589843749;2.30999999416781;232;1 A
2.84722599281145;-0.39971923828125;-0.00726928710937499;2.31999999414256;233;1 A
2.8572259927862;-0.3997802734375;-0.007244873046875;2.32999999411732;234;1 A
2.86722599276095;-0.39971923828125;-0.0072662353515625;2.33999999409207;235;1 A
2.8772259927357;-0.399810791015625;-0.00725708007812501;2.34999999406682;236;1 A
2.88722599271046;-0.3997802734375;-0.007281494140625;2.35999999404157;237;1 A
2.89722599268521;-0.399810791015625;-0.007293701171875;2.36999999401633;238;1 A
2.90722599265996;-0.39971923828125;-0.007305908203125;2.37999999399108;239;1 A
2.91722599263471;-0.39971923828125;-0.00733337402343751;2.38999999396583;240;1 A
2.92722599260946;-0.399749755859375;-0.00734558105468749;2.39999999394058;241;1 A
2.93722599258422;-0.399688720703125;-0.00737609863281249;2.40999999391533;242;1 A
2.94722599255897;-0.399688720703125;-0.007366943359375;2.41999999389009;243;1 A
2.95722599253372;-0.39971923828125;-0.0073883056640625;2.42999999386484;244;1 A
2.96722599250847;-0.39971923828125;-0.00739440917968751;2.43999999383959;245;1 A
2.97722599248323;-0.3997802734375;-0.00737915039062501;2.44999999381434;246;1 A
2.98722599245798;-0.399749755859375;-0.00739440917968751;2.4599999937891;247;1 A
2.99722599243273;-0.3997802734375;-0.007366943359375;2.46999999376385;248;1 A
3.00722599240748;-0.39971923828125;-0.0073577880859375;2.4799999937386;249;1 A
3.01722599238224;-0.399810791015625;-0.00736083984374999;2.48999999371335;250;1 A
3.02722599235699;-0.3997802734375;-0.0073516845703125;2.49999999368811;251;1 A
3.03722599233174;-0.399810791015625;-0.00734863281250001;2.50999999366286;252;1 A
3.04722599230649;-0.399749755859375;-0.00732421875;2.51999999363761;253;1 A
3.05722599228125;-0.39971923828125;-0.00732421875;2.52999999361236;254;1 A
3.067225992256;-0.39971923828125;-0.00731201171875;2.53999999358712;255;1 A
3.07722599223075;-0.39971923828125;-0.00731811523437501;2.54999999356187;256;1 A
3.0872259922055;-0.399749755859375;-0.00729980468749999;2.55999999353662;257;1 A
3.09722599218026;-0.399749755859375;-0.007281494140625;2.56999999351137;258;1 A
3.10722599215501;-0.39971923828125;-0.007293701171875;2.57999999348613;259;1 A
3.11722599212976;-0.399749755859375;-0.007293701171875;2.58999999346088;260;1 A
3.12722599210451;-0.3997802734375;-0.00731201171875;2.59999999343563;261;1 A
3.13722599207927;-0.399810791015625;-0.00732421875;2.60999999341038;262;1 A
3.14722599205402;-0.399810791015625;-0.00732421875;2.61999999338514;263;1 A
3.15722599202877;-0.39971923828125;-0.0073516845703125;2.62999999335989;264;1 A
3.16722599200352;-0.39971923828125;-0.00737609863281249;2.63999999333464;265;1 A
3.17722599197828;-0.399749755859375;-0.00737915039062501;2.64999999330939;266;1 A
3.18722599195303;-0.3997802734375;-0.007366943359375;2.65999999328415;267;1 A
3.19722599192778;-0.39971923828125;-0.0073516845703125;2.6699999932589;268;1 A
3.20722599190253;-0.399658203125;-0.0073211669921875;2.67999999323365;269;1 A
3.21722599187729;-0.3997802734375;-0.007293701171875;2.6899999932084;270;1 A
3.22722599185204;-0.399749755859375;-0.00728759765625001;2.69999999318316;271;1 A
3.23722599182679;-0.3997802734375;-0.00726318359375;2.70999999315791;272;1 A
3.24722599180154;-0.39971923828125;-0.00725708007812501;2.71999999313266;273;1 A
3.25722599177629;-0.399749755859375;-0.00726928710937499;2.72999999310741;274;1 A
3.26722599175105;-0.399749755859375;-0.00726928710937499;2.73999999308217;275;1 A
3.2772259917258;-0.3997802734375;-0.00726318359375;2.74999999305692;276;1 A
3.28722599170055;-0.39971923828125;-0.0072509765625;2.75999999303167;277;1 A
3.2972259916753;-0.3997802734375;-0.007244873046875;2.76999999300642;278;1 A
3.30722599165006;-0.399749755859375;-0.007232666015625;2.77999999298117;279;1 A
3.31722599162481;-0.39971923828125;-0.007244873046875;2.78999999295593;280;1 A
3.32722599159956;-0.399749755859375;-0.007220458984375;2.79999999293068;281;1 A
3.33722599157431;-0.3997802734375;-0.00721435546875;2.80999999290543;282;1 A
3.34722599154907;-0.39971923828125;-0.00722351074218749;2.81999999288018;283;1 A
3.35722599152382;-0.39984130859375;-0.00721130371093751;2.82999999285494;284;1 A
3.36722599149857;-0.39971923828125;-0.007244873046875;2.83999999282969;285;1 A
3.37722599147332;-0.3997802734375;-0.0072479248046875;2.84999999280444;286;1 A
3.38722599144808;-0.3997802734375;-0.00725708007812501;2.85999999277919;287;1 A
3.39722599142283;-0.399749755859375;-0.0072662353515625;2.86999999275395;288;1 A
3.40722599139758;-0.39971923828125;-0.0072784423828125;2.8799999927287;289;1 A
3.41722599137233;-0.399810791015625;-0.00731506347656249;2.88999999270345;290;1 A
3.42722599134709;-0.399688720703125;-0.00731811523437501;2.8999999926782;291;1 A
3.43722599132184;-0.399749755859375;-0.00734558105468749;2.90999999265296;292;1 A
3.44722599129659;-0.399688720703125;-0.007354736328125;2.91999999262771;293;1 A
3.45722599127134;-0.3997802734375;-0.00734863281250001;2.92999999260246;294;1 A
3.4672259912461;-0.39971923828125;-0.0073699951171875;2.93999999257721;295;1 A
3.47722599122085;-0.399749755859375;-0.007342529296875;2.94999999255197;296;1 A
3.4872259911956;-0.399688720703125;-0.0073516845703125;2.95999999252672;297;1 A
3.49722599117035;-0.3997802734375;-0.00734558105468749;2.96999999250147;298;1 A
3.50722599114511;-0.399749755859375;-0.00734863281250001;2.97999999247622;299;1 A
3.51722599111986;-0.3997802734375;-0.0073699951171875;2.98999999245098;300;1 A
3.52722599109461;-0.39971923828125;-0.0073699951171875;2.99999999242573;301;1 A
3.53722599106936;-0.39984130859375;-0.00738525390625;3.00999999240048;302;1 A
3.54722599104412;-0.399658203125;-0.0073974609375;3.01999999237523;303;1 A
3.55722599101887;-0.399810791015625;-0.0074127197265625;3.02999999234999;304;1 A
3.56722599099362;-0.399810791015625;-0.007403564453125;3.03999999232474;305;1 A
3.57722599096837;-0.399749755859375;-0.00739440917968751;3.04999999229949;306;1 A
3.58722599094312;-0.399658203125;-0.00742492675781251;3.05999999227424;307;1 A
3.59722599091788;-0.39971923828125;-0.00742492675781251;3.069999992249;308;1 A
3.60722599089263;-0.39971923828125;-0.00745544433593751;3.07999999222375;309;1 A
3.61722599086738;-0.399810791015625;-0.00745849609375;3.0899999921985;310;1 A
3.62722599084213;-0.399810791015625;-0.00744018554687501;3.09999999217325;311;1 A
3.63722599081689;-0.399749755859375;-0.00743713378906249;3.109999992148;312;1 A
3.64722599079164;-0.399749755859375;-0.0074310302734375;3.11999999212276;313;1 A
3.65722599076639;-0.399749755859375;-0.00744018554687501;3.12999999209751;314;1 A
3.66722599074114;-0.399749755859375;-0.00744018554687501;3.13999999207226;315;1 A
3.6772259907159;-0.399810791015625;-0.00745239257812499;3.14999999204701;316;1 A
3.68722599069065;-0.39971923828125;-0.00745849609375;3.15999999202177;317;1 A
3.6972259906654;-0.39971923828125;-0.00745849609375;3.16999999199652;318;1 A
3.70722599064015;-0.39971923828125;-0.0074615478515625;3.17999999197127;319;1 A
3.71722599061491;-0.399749755859375;-0.00742492675781251;3.18999999194602;320;1 A
3.72722599058966;-0.39971923828125;-0.0074188232421875;3.19999999192078;321;1 A
3.73722599056441;-0.39984130859375;-0.00740966796875001;3.20999999189553;322;1 A
3.74722599053916;-0.399749755859375;-0.0074005126953125;3.21999999187028;323;1 A
3.75722599051392;-0.399749755859375;-0.007415771484375;3.22999999184503;324;1 A
3.76722599048867;-0.399749755859375;-0.0074005126953125;3.23999999181979;325;1 A
3.77722599046342;-0.399749755859375;-0.0074005126953125;3.24999999179454;326;1 A
3.78722599043817;-0.39971923828125;-0.0074005126953125;3.25999999176929;327;1 A
3.79722599041293;-0.399749755859375;-0.00740661621093749;3.26999999174404;328;1 A
3.80722599038768;-0.399688720703125;-0.00739440917968751;3.2799999917188;329;1 A
3.81722599036243;-0.399749755859375;-0.0073822021484375;3.28999999169355;330;1 A
3.82722599033718;-0.399749755859375;-0.00738525390625;3.2999999916683;331;1 A
3.83722599031194;-0.39971923828125;-0.00737609863281249;3.30999999164305;332;1 A
3.84722599028669;-0.399749755859375;-0.00737915039062501;3.31999999161781;333;1 A
3.85722599026144;-0.3997802734375;-0.00736083984374999;3.32999999159256;334;1 A
3.86722599023619;-0.3997802734375;-0.00733642578125;3.33999999156731;335;1 A
3.87722599021095;-0.3997802734375;-0.00732421875;3.34999999154206;336;1 A
3.8872259901857;-0.399810791015625;-0.0073089599609375;3.35999999151682;337;1 A
3.89722599016045;-0.399749755859375;-0.00729980468749999;3.36999999149157;338;1 A
3.9072259901352;-0.399688720703125;-0.0072784423828125;3.37999999146632;339;1 A
3.91722599010996;-0.39971923828125;-0.00726928710937499;3.38999999144107;340;1 A
3.92722599008471;-0.399688720703125;-0.0072509765625;3.39999999141583;341;1 A
3.93722599005946;-0.399749755859375;-0.0072479248046875;3.40999999139058;342;1 A
3.94722599003421;-0.399749755859375;-0.00723876953124999;3.41999999136533;343;1 A
3.95722599000896;-0.399749755859375;-0.00721435546875;3.42999999134008;344;1 A
3.96722598998372;-0.3997802734375;-0.00723876953124999;3.43999999131483;345;1 A
3.97722598995847;-0.3997802734375;-0.0072509765625;3.44999999128959;346;1 A
3.98722598993322;-0.39971923828125;-0.00726928710937499;3.45999999126434;347;1 A
3.99722598990797;-0.3997802734375;-0.007281494140625;3.46999999123909;348;1 A
4.00722598988273;-0.399749755859375;-0.00725708007812501;3.47999999121384;349;1 A
4.01722598985748;-0.399810791015625;-0.00725708007812501;3.4899999911886;350;1 A
4.02722598983223;-0.399688720703125;-0.00726318359375;3.49999999116335;351;1 A
4.03722598980698;-0.399749755859375;-0.007275390625;3.5099999911381;352;1 A
4.04722598978174;-0.399688720703125;-0.00727233886718751;3.51999999111285;353;1 A
4.05722598975649;-0.399688720703125;-0.00728759765625001;3.52999999108761;354;1 A
4.06722598973124;-0.39971923828125;-0.00731506347656249;3.53999999106236;355;1 A
4.07722598970599;-0.399658203125;-0.0073211669921875;3.54999999103711;356;1 A
4.08722598968075;-0.39971923828125;-0.0072601318359375;3.55999999101186;357;1 A
4.0972259896555;-0.39984130859375;-0.007244873046875;3.56999999098662;358;1 A
4.10722598963025;-0.39971923828125;-0.007122802734375;3.57999999096137;359;1 A
4.117225989605;-0.399810791015625;-0.007305908203125;3.58999999093612;360;1 A
4.12722598957976;-0.39971923828125;-0.00728759765625001;3.59999999091087;361;1 A
4.13722598955451;-0.399810791015625;-0.0072967529296875;3.60999999088563;362;1 A
4.14722598952926;-0.399658203125;-0.007281494140625;3.61999999086038;363;1 A
4.15722598950401;-0.399749755859375;-0.00727233886718751;3.62999999083513;364;1 A
4.16722598947877;-0.39971923828125;-0.00727233886718751;3.63999999080988;365;1 A
4.17722598945352;-0.399749755859375;-0.00727233886718751;3.64999999078464;366;1 A
4.18722598942827;-0.399749755859375;-0.007281494140625;3.65999999075939;367;1 A
4.19722598940302;-0.39971923828125;-0.0072601318359375;3.66999999073414;368;1 A
4.20722598937778;-0.39971923828125;-0.0072784423828125;3.67999999070889;369;1 A
4.21722598935253;-0.399810791015625;-0.00727233886718751;3.68999999068365;370;1 A
4.22722598932728;-0.39971923828125;-0.0072662353515625;3.6999999906584;371;1 A
4.23722598930203;-0.39984130859375;-0.0072784423828125;3.70999999063315;372;1 A
4.24722598927679;-0.399810791015625;-0.0072509765625;3.7199999906079;373;1 A
4.25722598925154;-0.39971923828125;-0.00726928710937499;3.72999999058266;374;1 A
4.26722598922629;-0.399688720703125;-0.00727233886718751;3.73999999055741;375;1 A
4.27722598920104;-0.3997802734375;-0.00726318359375;3.74999999053216;376;1 A
4.28722598917579;-0.399688720703125;-0.007244873046875;3.75999999050691;377;1 A
4.29722598915055;-0.3997802734375;-0.007220458984375;3.76999999048167;378;1 A
4.3072259891253;-0.399688720703125;-0.0072174072265625;3.77999999045642;379;1 A
4.31722598910005;-0.399658203125;-0.00720825195312499;3.78999999043117;380;1 A
4.3272259890748;-0.399688720703125;-0.00722656250000001;3.79999999040592;381;1 A
4.33722598904956;-0.399810791015625;-0.00722351074218749;3.80999999038067;382;1 A
4.34722598902431;-0.39971923828125;-0.00722351074218749;3.81999999035543;383;1 A
4.35722598899906;-0.3997802734375;-0.00725708007812501;3.82999999033018;384;1 A
4.36722598897381;-0.39971923828125;-0.00727233886718751;3.83999999030493;385;1 A
4.37722598894857;-0.399810791015625;-0.00731201171875;3.84999999027968;386;1 A
4.38722598892332;-0.39971923828125;-0.0073394775390625;3.85999999025444;387;1 A
4.39722598889807;-0.39971923828125;-0.00736389160156251;3.86999999022919;388;1 A
4.40722598887282;-0.399688720703125;-0.0073974609375;3.87999999020394;389;1 A
4.41722598884758;-0.399810791015625;-0.00742187499999999;3.88999999017869;390;1 A
4.42722598882233;-0.3997802734375;-0.007415771484375;3.89999999015345;391;1 A
4.43722598879708;-0.399749755859375;-0.0073974609375;3.9099999901282;392;1 A
4.44722598877183;-0.399688720703125;-0.0074005126953125;3.91999999010295;393;1 A
4.45722598874659;-0.3997802734375;-0.00737915039062501;3.9299999900777;394;1 A
4.46722598872134;-0.39971923828125;-0.00737915039062501;3.93999999005246;395;1 A
4.47722598869609;-0.3997802734375;-0.00737609863281249;3.94999999002721;396;1 A
4.48722598867084;-0.39971923828125;-0.0073516845703125;3.95999999000196;397;1 A
4.4972259886456;-0.399810791015625;-0.00734558105468749;3.96999998997671;398;1 A
4.50722598862035;-0.399688720703125;-0.007342529296875;3.97999998995147;399;1 A
4.5172259885951;-0.39971923828125;-0.007342529296875;3.98999998992622;400;1 A
4.52722598856985;-0.39971923828125;-0.00733642578125;3.99999998990097;401;1 A
4.53722598854461;-0.39971923828125;-0.00733032226562499;4.00999998987572;402;1 A
4.54722598851936;-0.399688720703125;-0.00733642578125;4.01999998985048;403;1 A
4.55722598849411;-0.3997802734375;-0.0073394775390625;4.02999998982523;404;1 A
4.56722598846886;-0.39971923828125;-0.00736389160156251;4.03999998979998;405;1 A
4.57722598844362;-0.399810791015625;-0.00734558105468749;4.04999998977473;406;1 A
4.58722598841837;-0.399810791015625;-0.0073516845703125;4.05999998974949;407;1 A
4.59722598839312;-0.399810791015625;-0.00737609863281249;4.06999998972424;408;1 A
4.60722598836787;-0.399749755859375;-0.00737915039062501;4.07999998969899;409;1 A
4.61722598834262;-0.3997802734375;-0.00740661621093749;4.08999998967374;410;1 A
4.62722598831738;-0.3997802734375;-0.0073883056640625;4.0999999896485;411;1 A
4.63722598829213;-0.3997802734375;-0.0073822021484375;4.10999998962325;412;1 A
4.64722598826688;-0.399688720703125;-0.007373046875;4.119999989598;413;1 A
4.65722598824163;-0.399749755859375;-0.0073699951171875;4.12999998957275;414;1 A
4.66722598821639;-0.39971923828125;-0.00736083984374999;4.1399999895475;415;1 A
4.67722598819114;-0.39971923828125;-0.00731506347656249;4.14999998952226;416;1 A
4.68722598816589;-0.399688720703125;-0.007305908203125;4.15999998949701;417;1 A
4.69722598814064;-0.399810791015625;-0.0072662353515625;4.16999998947176;418;1 A
4.7072259881154;-0.399749755859375;-0.00725402832031249;4.17999998944651;419;1 A
4.71722598809015;-0.3997802734375;-0.00725402832031249;4.18999998942127;420;1 A
4.7272259880649;-0.3997802734375;-0.007220458984375;4.19999998939602;421;1 A
4.73722598803965;-0.39984130859375;-0.00722351074218749;4.20999998937077;422;1 A
4.74722598801441;-0.39971923828125;-0.00722351074218749;4.21999998934552;423;1 A
4.75722598798916;-0.3997802734375;-0.0072357177734375;4.22999998932028;424;1 A
4.76722598796391;-0.39971923828125;-0.0072509765625;4.23999998929503;425;1 A
4.77722598793866;-0.3997802734375;-0.0072479248046875;4.24999998926978;426;1 A
4.78722598791342;-0.399658203125;-0.00725402832031249;4.25999998924453;427;1 A
4.79722598788817;-0.399810791015625;-0.00725708007812501;4.26999998921929;428;1 A
4.80722598786292;-0.39971923828125;-0.00727233886718751;4.27999998919404;429;1 A
4.81722598783767;-0.399810791015625;-0.0072479248046875;4.28999998916879;430;1 A
4.82722598781243;-0.3997802734375;-0.00723876953124999;4.29999998914354;431;1 A
4.83722598778718;-0.399749755859375;-0.0072479248046875;4.3099999891183;432;1 A
4.84722598776193;-0.3997802734375;-0.00724182128906251;4.31999998909305;433;1 A
4.85722598773668;-0.39971923828125;-0.00727233886718751;4.3299999890678;434;1 A
4.86722598771144;-0.399688720703125;-0.00726318359375;4.33999998904255;435;1 A
4.87722598768619;-0.3997802734375;-0.0072509765625;4.34999998901731;436;1 A
4.88722598766094;-0.399688720703125;-0.0072509765625;4.35999998899206;437;1 A
4.89722598763569;-0.39971923828125;-0.0072296142578125;4.36999998896681;438;1 A
4.90722598761045;-0.399749755859375;-0.007220458984375;4.37999998894156;439;1 A
4.9172259875852;-0.3997802734375;-0.0072021484375;4.38999998891632;440;1 A
4.92722598755995;-0.399810791015625;-0.00720825195312499;4.39999998889107;441;1 A
4.9372259875347;-0.3997802734375;-0.0072021484375;4.40999998886582;442;1 A
4.94722598750946;-0.39971923828125;-0.0071990966796875;4.41999998884057;443;1 A
4.95722598748421;-0.399810791015625;-0.00719604492187501;4.42999998881533;444;1 A
4.96722598745896;-0.39971923828125;-0.00716247558593749;4.43999998879008;445;1 A
4.97722598743371;-0.399810791015625;-0.0071685791015625;4.44999998876483;446;1 A
4.98722598740846;-0.39971923828125;-0.0071685791015625;4.45999998873958;447;1 A
4.99722598738322;-0.399749755859375;-0.0071441650390625;4.46999998871433;448;1 A
5.00722598735797;-0.39971923828125;-0.007122802734375;4.47999998868909;449;1 A
5.01722598733272;-0.39971923828125;-0.00709228515625;4.48999998866384;450;1 A
5.02722598730747;-0.39971923828125;-0.0070526123046875;4.49999998863859;451;1 A
5.03722598728223;-0.39971923828125;-0.00704040527343749;4.50999998861334;452;1 A
5.04722598725698;-0.399749755859375;-0.007037353515625;4.5199999885881;453;1 A
5.05722598723173;-0.399810791015625;-0.00702514648437499;4.52999998856285;454;1 A
5.06722598720648;-0.399749755859375;-0.00704345703125001;4.5399999885376;455;1 A
5.07722598718124;-0.399810791015625;-0.007080078125;4.54999998851235;456;1 A
5.08722598715599;-0.399749755859375;-0.00708923339843751;4.55999998848711;457;1 A
5.09722598713074;-0.3997802734375;-0.00708618164062499;4.56999998846186;458;1 A
5.10722598710549;-0.3997802734375;-0.007049560546875;4.57999998843661;459;1 A
5.11722598708025;-0.399749755859375;-0.00703125;4.58999998841136;460;1 A
5.127225987055;-0.399658203125;-0.00702514648437499;4.59999998838612;461;1 A
5.13722598702975;-0.39971923828125;-0.00702819824218751;4.60999998836087;462;1 A
5.1472259870045;-0.399688720703125;-0.00703125;4.61999998833562;463;1 A
5.15722598697926;-0.399749755859375;-0.007037353515625;4.62999998831037;464;1 A
5.16722598695401;-0.399658203125;-0.0070526123046875;4.63999998828513;465;1 A
5.17722598692876;-0.3997802734375;-0.0070648193359375;4.64999998825988;466;1 A
5.18722598690351;-0.399688720703125;-0.0071075439453125;4.65999998823463;467;1 A
5.19722598687827;-0.39984130859375;-0.00711975097656251;4.66999998820938;468;1 A
5.20722598685302;-0.39971923828125;-0.00711975097656251;4.67999998818414;469;1 A
5.21722598682777;-0.399749755859375;-0.007159423828125;4.68999998815889;470;1 A
5.22722598680252;-0.399658203125;-0.00716552734375001;4.69999998813364;471;1 A
5.23722598677728;-0.399749755859375;-0.00717773437499999;4.70999998810839;472;1 A
5.24722598675203;-0.39971923828125;-0.0071685791015625;4.71999998808315;473;1 A
5.25722598672678;-0.399749755859375;-0.0071533203125;4.7299999880579;474;1 A
5.26722598670153;-0.39971923828125;-0.00716247558593749;4.73999998803265;475;1 A
5.27722598667629;-0.399749755859375;-0.007171630859375;4.7499999880074;476;1 A
5.28722598665104;-0.39971923828125;-0.00718994140625;4.75999998798216;477;1 A
5.29722598662579;-0.3997802734375;-0.00718078613281251;4.76999998795691;478;1 A
5.30722598660054;-0.399810791015625;-0.00719299316406249;4.77999998793166;479;1 A
5.31722598657529;-0.3997802734375;-0.00721130371093751;4.78999998790641;480;1 A
5.32722598655005;-0.399749755859375;-0.00722351074218749;4.79999998788116;481;1 A
5.3372259865248;-0.3997802734375;-0.007275390625;4.80999998785592;482;1 A
5.34722598649955;-0.39971923828125;-0.007281494140625;4.81999998783067;483;1 A
5.3572259864743;-0.3997802734375;-0.0073211669921875;4.82999998780542;484;1 A
5.36722598644906;-0.399688720703125;-0.007366943359375;4.83999998778017;485;1 A
5.37722598642381;-0.39971923828125;-0.00737915039062501;4.84999998775493;486;1 A
5.38722598639856;-0.3997802734375;-0.0074005126953125;4.85999998772968;487;1 A
5.39722598637331;-0.399749755859375;-0.00739440917968751;4.86999998770443;488;1 A
5.40722598634807;-0.399749755859375;-0.00740966796875001;4.87999998767918;489;1 A
5.41722598632282;-0.3997802734375;-0.00742492675781251;4.88999998765394;490;1 A
5.42722598629757;-0.39971923828125;-0.0074493408203125;4.89999998762869;491;1 A
5.43722598627232;-0.3997802734375;-0.00746765136718749;4.90999998760344;492;1 A
5.44722598624708;-0.3997802734375;-0.0074493408203125;4.91999998757819;493;1 A
5.45722598622183;-0.399810791015625;-0.00748596191406251;4.92999998755295;494;1 A
5.46722598619658;-0.39971923828125;-0.0074920654296875;4.9399999875277;495;1 A
5.47722598617133;-0.399688720703125;-0.007489013671875;4.94999998750245;496;1 A
5.48722598614609;-0.39971923828125;-0.00748596191406251;4.9599999874772;497;1 A
5.49722598612084;-0.39971923828125;-0.0074432373046875;4.96999998745196;498;1 A
5.50722598609559;-0.399688720703125;-0.0074188232421875;4.97999998742671;499;1 A
5.51722598607034;-0.399810791015625;-0.00739135742187499;4.98999998740146;500;1 A
5.5272259860451;-0.3997802734375;-0.007366943359375;4.99999998737621;501;1 A
5.53722598601985;-0.39984130859375;-0.0073272705078125;5.00999998735097;502;1 A
5.5472259859946;-0.399749755859375;-0.00729980468749999;5.01999998732572;503;1 A
5.55722598596935;-0.399810791015625;-0.00727233886718751;5.02999998730047;504;1 A
5.56722598594411;-0.39971923828125;-0.007244873046875;5.03999998727522;505;1 A
5.57722598591886;-0.399749755859375;-0.0072479248046875;5.04999998724998;506;1 A
5.58722598589361;-0.3997802734375;-0.007232666015625;5.05999998722473;507;1 A
5.59722598586836;-0.399749755859375;-0.00723876953124999;5.06999998719948;508;1 A
5.60722598584312;-0.399688720703125;-0.0072509765625;5.07999998717423;509;1 A
5.61722598581787;-0.399749755859375;-0.0072479248046875;5.08999998714899;510;1 A
5.62722598579262;-0.399749755859375;-0.0072662353515625;5.09999998712374;511;1 A
5.63722598576737;-0.3997802734375;-0.00725708007812501;5.10999998709849;512;1 A
5.64722598574212;-0.399688720703125;-0.0072479248046875;5.11999998707324;513;1 A
5.65722598571688;-0.3997802734375;-0.0072479248046875;5.129999987048;514;1 A
5.66722598569163;-0.399749755859375;-0.0072509765625;5.13999998702275;515;1 A
5.67722598566638;-0.399810791015625;-0.0072357177734375;5.1499999869975;516;1 A
5.68722598564113;-0.399749755859375;-0.0072357177734375;5.15999998697225;517;1 A
5.69722598561589;-0.399810791015625;-0.0072509765625;5.169999986947;518;1 A
5.70722598559064;-0.399658203125;-0.0072662353515625;5.17999998692176;519;1 A
5.71722598556539;-0.399749755859375;-0.0072906494140625;5.18999998689651;520;1 A
5.72722598554014;-0.399658203125;-0.0072967529296875;5.19999998687126;521;1 A
5.7372259855149;-0.3997802734375;-0.00730285644531251;5.20999998684601;522;1 A
5.74722598548965;-0.399749755859375;-0.0073211669921875;5.21999998682077;523;1 A
5.7572259854644;-0.399749755859375;-0.00734558105468749;5.22999998679552;524;1 A
5.76722598543915;-0.39971923828125;-0.00736389160156251;5.23999998677027;525;1 A
5.77722598541391;-0.399749755859375;-0.0073577880859375;5.24999998674502;526;1 A
5.78722598538866;-0.399749755859375;-0.00737915039062501;5.25999998671978;527;1 A
5.79722598536341;-0.3997802734375;-0.00737915039062501;5.26999998669453;528;1 A
5.80722598533816;-0.39971923828125;-0.00739440917968751;5.27999998666928;529;1 A
5.81722598531292;-0.3997802734375;-0.0074127197265625;5.28999998664403;530;1 A
5.82722598528767;-0.3997802734375;-0.00738525390625;5.29999998661879;531;1 A
5.83722598526242;-0.39971923828125;-0.0074005126953125;5.30999998659354;532;1 A
5.84722598523717;-0.399658203125;-0.0074127197265625;5.31999998656829;533;1 A
5.85722598521193;-0.39984130859375;-0.00742187499999999;5.32999998654304;534;1 A
5.86722598518668;-0.39971923828125;-0.0074615478515625;5.3399999865178;535;1 A
5.87722598516143;-0.3997802734375;-0.007464599609375;5.34999998649255;536;1 A
5.88722598513618;-0.399749755859375;-0.007476806640625;5.3599999864673;537;1 A
5.89722598511094;-0.39984130859375;-0.0074920654296875;5.36999998644205;538;1 A
5.90722598508569;-0.39971923828125;-0.00751647949218751;5.37999998641681;539;1 A
5.91722598506044;-0.399749755859375;-0.00749816894531249;5.38999998639156;540;1 A
5.92722598503519;-0.399810791015625;-0.0075347900390625;5.39999998636631;541;1 A
5.93722598500995;-0.3997802734375;-0.0075653076171875;5.40999998634106;542;1 A
5.9472259849847;-0.39971923828125;-0.007586669921875;5.41999998631582;543;1 A
5.95722598495945;-0.399749755859375;-0.007598876953125;5.42999998629057;544;1 A
5.9672259849342;-0.399658203125;-0.00763549804687499;5.43999998626532;545;1 A
5.97722598490896;-0.399749755859375;-0.0075836181640625;5.44999998624007;546;1 A
5.98722598488371;-0.399749755859375;-0.007611083984375;5.45999998621483;547;1 A
5.99722598485846;-0.39971923828125;-0.00758972167968749;5.46999998618958;548;1 A
6.00722598483321;-0.399749755859375;-0.00758056640625;5.47999998616433;549;1 A
6.01722598480796;-0.3997802734375;-0.00754699707031251;5.48999998613908;550;1 A
6.02722598478272;-0.3997802734375;-0.007525634765625;5.49999998611383;551;1 A
6.03722598475747;-0.399749755859375;-0.0074951171875;5.50999998608859;552;1 A
6.04722598473222;-0.39971923828125;-0.0074737548828125;5.51999998606334;553;1 A
6.05722598470697;-0.3997802734375;-0.0074737548828125;5.52999998603809;554;1 A
6.06722598468173;-0.39971923828125;-0.0074432373046875;5.53999998601284;555;1 A
6.07722598465648;-0.399688720703125;-0.0074493408203125;5.5499999859876;556;1 A
6.08722598463123;-0.399688720703125;-0.007464599609375;5.55999998596235;557;1 A
6.09722598460598;-0.3997802734375;-0.0074615478515625;5.5699999859371;558;1 A
6.10722598458074;-0.39971923828125;-0.0075042724609375;5.57999998591185;559;1 A
6.11722598455549;-0.399749755859375;-0.0075042724609375;5.58999998588661;560;1 A
6.12722598453024;-0.39971923828125;-0.0075347900390625;5.59999998586136;561;1 A
6.13722598450499;-0.39984130859375;-0.0075531005859375;5.60999998583611;562;1 A
6.14722598447975;-0.399688720703125;-0.00754699707031251;5.61999998581086;563;1 A
6.1572259844545;-0.3997802734375;-0.00753173828125001;5.62999998578562;564;1 A
6.16722598442925;-0.399749755859375;-0.00750122070312501;5.63999998576037;565;1 A
6.177225984404;-0.3997802734375;-0.007489013671875;5.64999998573512;566;1 A
6.18722598437876;-0.39971923828125;-0.0074737548828125;5.65999998570987;567;1 A
6.19722598435351;-0.3997802734375;-0.00746765136718749;5.66999998568463;568;1 A
6.20722598432826;-0.399688720703125;-0.00746765136718749;5.67999998565938;569;1 A
6.21722598430301;-0.39971923828125;-0.00745849609375;5.68999998563413;570;1 A
6.22722598427777;-0.399749755859375;-0.00747070312500001;5.69999998560888;571;1 A
6.23722598425252;-0.399749755859375;-0.0074798583984375;5.70999998558364;572;1 A
6.24722598422727;-0.3997802734375;-0.00748596191406251;5.71999998555839;573;1 A
6.25722598420202;-0.39984130859375;-0.0074951171875;5.72999998553314;574;1 A
6.26722598417678;-0.399688720703125;-0.0075042724609375;5.73999998550789;575;1 A
6.27722598415153;-0.399749755859375;-0.00750122070312501;5.74999998548265;576;1 A
6.28722598412628;-0.399749755859375;-0.00751647949218751;5.7599999854574;577;1 A
6.29722598410103;-0.3997802734375;-0.0075347900390625;5.76999998543215;578;1 A
6.30722598407579;-0.3997802734375;-0.00751953125;5.7799999854069;579;1 A
6.31722598405054;-0.39971923828125;-0.00754699707031251;5.78999998538166;580;1 A
6.32722598402529;-0.39971923828125;-0.00756225585937501;5.79999998535641;581;1 A
6.33722598400004;-0.399749755859375;-0.00758056640625;5.80999998533116;582;1 A
6.34722598397479;-0.3997802734375;-0.00762329101562501;5.81999998530591;583;1 A
6.35722598394955;-0.39971923828125;-0.00762023925781249;5.82999998528066;584;1 A
6.3672259839243;-0.399688720703125;-0.00762329101562501;5.83999998525542;585;1 A
6.37722598389905;-0.399749755859375;-0.00765075683593749;5.84999998523017;586;1 A
6.3872259838738;-0.399749755859375;-0.00765380859375001;5.85999998520492;587;1 A
6.39722598384856;-0.399810791015625;-0.00762939453125;5.86999998517967;588;1 A
6.40722598382331;-0.3997802734375;-0.00759277343750001;5.87999998515443;589;1 A
6.41722598379806;-0.399749755859375;-0.007586669921875;5.88999998512918;590;1 A
6.42722598377281;-0.39971923828125;-0.00756225585937501;5.89999998510393;591;1 A
6.43722598374757;-0.399688720703125;-0.00755920410156249;5.90999998507868;592;1 A
6.44722598372232;-0.399749755859375;-0.00751953125;5.91999998505344;593;1 A
6.45722598369707;-0.39971923828125;-0.00748291015624999;5.92999998502819;594;1 A
6.46722598367182;-0.399749755859375;-0.00746765136718749;5.93999998500294;595;1 A
6.47722598364658;-0.3997802734375;-0.00743408203125;5.94999998497769;596;1 A
6.48722598362133;-0.399688720703125;-0.0071990966796875;5.95999998495245;597;1 A
6.49722598359608;-0.399810791015625;-0.00740661621093749;5.9699999849272;598;1 A
6.50722598357083;-0.3997802734375;-0.00740966796875001;5.97999998490195;599;1 A
6.51722598354559;-0.399810791015625;-0.00742187499999999;5.9899999848767;600;1 A
6.52722598352034;-0.399749755859375;-0.00742492675781251;5.99999998485146;601;1 A
6.53722598349509;-0.399688720703125;-0.0074310302734375;6.00999998482621;602;1 A
6.54722598346984;-0.39984130859375;-0.00738525390625;6.01999998480096;603;1 A
6.5572259834446;-0.39984130859375;-0.0074005126953125;6.02999998477571;604;1 A
6.56722598341935;-0.399627685546875;-0.0074005126953125;6.03999998475047;605;1 A
6.5772259833941;-0.39971923828125;-0.007403564453125;6.04999998472522;606;1 A
6.58722598336885;-0.3997802734375;-0.00742187499999999;6.05999998469997;607;1 A
6.59722598334361;-0.39971923828125;-0.00738525390625;6.06999998467472;608;1 A
6.60722598331836;-0.3997802734375;-0.00738525390625;6.07999998464948;609;1 A
6.61722598329311;-0.399749755859375;-0.00737915039062501;6.08999998462423;610;1 A
6.62722598326786;-0.3997802734375;-0.007366943359375;6.09999998459898;611;1 A
6.63722598324262;-0.3997802734375;-0.007366943359375;6.10999998457373;612;1 A
6.64722598321737;-0.399749755859375;-0.0073394775390625;6.11999998454849;613;1 A
6.65722598319212;-0.399749755859375;-0.00733337402343751;6.12999998452324;614;1 A
6.66722598316687;-0.39971923828125;-0.00731506347656249;6.13999998449799;615;1 A
6.67722598314162;-0.39971923828125;-0.00731201171875;6.14999998447274;616;1 A
6.68722598311638;-0.39971923828125;-0.0072906494140625;6.1599999844475;617;1 A
6.69722598309113;-0.399749755859375;-0.0072662353515625;6.16999998442225;618;1 A
6.70722598306588;-0.399749755859375;-0.00728759765625001;6.179999984397;619;1 A
6.71722598304063;-0.3997802734375;-0.007281494140625;6.18999998437175;620;1 A
6.72722598301539;-0.399749755859375;-0.007305908203125;6.1999999843465;621;1 A
6.73722598299014;-0.3997802734375;-0.007305908203125;6.20999998432126;622;1 A
6.74722598296489;-0.399749755859375;-0.0073089599609375;6.21999998429601;623;1 A
6.75722598293964;-0.399749755859375;-0.0073211669921875;6.22999998427076;624;1 A
6.7672259829144;-0.3997802734375;-0.00731506347656249;6.23999998424551;625;1 A
6.77722598288915;-0.39971923828125;-0.00731506347656249;6.24999998422027;626;1 A
6.7872259828639;-0.39971923828125;-0.0072906494140625;6.25999998419502;627;1 A
6.79722598283865;-0.39971923828125;-0.0072784423828125;6.26999998416977;628;1 A
6.80722598281341;-0.39971923828125;-0.0072601318359375;6.27999998414452;629;1 A
6.81722598278816;-0.39971923828125;-0.00723876953124999;6.28999998411928;630;1 A
6.82722598276291;-0.399749755859375;-0.007220458984375;6.29999998409403;631;1 A
6.83722598273766;-0.3997802734375;-0.0071746826171875;6.30999998406878;632;1 A
6.84722598271242;-0.39971923828125;-0.0071563720703125;6.31999998404353;633;1 A
6.85722598268717;-0.39971923828125;-0.0071533203125;6.32999998401829;634;1 A
6.86722598266192;-0.3997802734375;-0.0071380615234375;6.33999998399304;635;1 A
6.87722598263667;-0.399749755859375;-0.0071380615234375;6.34999998396779;636;1 A
6.88722598261143;-0.399658203125;-0.00712890625;6.35999998394254;637;1 A
6.89722598258618;-0.399688720703125;-0.0071258544921875;6.3699999839173;638;1 A
6.90722598256093;-0.399688720703125;-0.00714111328125;6.37999998389205;639;1 A
6.91722598253568;-0.39971923828125;-0.00716247558593749;6.3899999838668;640;1 A
6.92722598251044;-0.399688720703125;-0.007159423828125;6.39999998384155;641;1 A
6.93722598248519;-0.39971923828125;-0.0071746826171875;6.40999998381631;642;1 A
6.94722598245994;-0.39971923828125;-0.00718994140625;6.41999998379106;643;1 A
6.95722598243469;-0.39971923828125;-0.0071868896484375;6.42999998376581;644;1 A
6.96722598240945;-0.399749755859375;-0.0072021484375;6.43999998374056;645;1 A
6.9772259823842;-0.399749755859375;-0.00718994140625;6.44999998371532;646;1 A
6.98722598235895;-0.3997802734375;-0.0071990966796875;6.45999998369007;647;1 A
6.9972259823337;-0.3997802734375;-0.0072174072265625;6.46999998366482;648;1 A
7.00722598230846;-0.399749755859375;-0.00723876953124999;6.47999998363957;649;1 A
7.01722598228321;-0.39971923828125;-0.0072509765625;6.48999998361433;650;1 A
7.02722598225796;-0.3997802734375;-0.00723876953124999;6.49999998358908;651;1 A
7.03722598223271;-0.399749755859375;-0.00725402832031249;6.50999998356383;652;1 A
7.04722598220746;-0.39971923828125;-0.0072479248046875;6.51999998353858;653;1 A
7.05722598218222;-0.399749755859375;-0.0072662353515625;6.52999998351333;654;1 A
7.06722598215697;-0.39971923828125;-0.0072784423828125;6.53999998348809;655;1 A
7.07722598213172;-0.39971923828125;-0.0072357177734375;6.54999998346284;656;1 A
7.08722598210647;-0.399810791015625;-0.0072509765625;6.55999998343759;657;1 A
7.09722598208123;-0.3997802734375;-0.00725402832031249;6.56999998341234;658;1 A
7.10722598205598;-0.399749755859375;-0.00726318359375;6.5799999833871;659;1 A
7.11722598203073;-0.399749755859375;-0.007281494140625;6.58999998336185;660;1 A
7.12722598200548;-0.399749755859375;-0.00727233886718751;6.5999999833366;661;1 A
7.13722598198024;-0.3997802734375;-0.0072906494140625;6.60999998331135;662;1 A
7.14722598195499;-0.399658203125;-0.00728759765625001;6.61999998328611;663;1 A
7.15722598192974;-0.39971923828125;-0.0072906494140625;6.62999998326086;664;1 A
7.16722598190449;-0.399749755859375;-0.00726928710937499;6.63999998323561;665;1 A
7.17722598187925;-0.399749755859375;-0.00725708007812501;6.64999998321036;666;1 A
7.187225981854;-0.399749755859375;-0.00726928710937499;6.65999998318512;667;1 A
7.19722598182875;-0.39971923828125;-0.007244873046875;6.66999998315987;668;1 A
7.2072259818035;-0.3997802734375;-0.00726318359375;6.67999998313462;669;1 A
7.21722598177826;-0.3997802734375;-0.007232666015625;6.68999998310937;670;1 A
7.22722598175301;-0.399749755859375;-0.0072174072265625;6.69999998308413;671;1 A
7.23722598172776;-0.3997802734375;-0.00722656250000001;6.70999998305888;672;1 A
7.24722598170251;-0.399688720703125;-0.00722351074218749;6.71999998303363;673;1 A
7.25722598167727;-0.3997802734375;-0.00724182128906251;6.72999998300838;674;1 A
7.26722598165202;-0.399749755859375;-0.0072357177734375;6.73999998298314;675;1 A
7.27722598162677;-0.399688720703125;-0.007244873046875;6.74999998295789;676;1 A
7.28722598160152;-0.39971923828125;-0.00723876953124999;6.75999998293264;677;1 A
7.29722598157628;-0.39971923828125;-0.007244873046875;6.76999998290739;678;1 A
7.30722598155103;-0.399749755859375;-0.0072479248046875;6.77999998288215;679;1 A
7.31722598152578;-0.3997802734375;-0.0072174072265625;6.7899999828569;680;1 A
7.32722598150053;-0.3997802734375;-0.0072174072265625;6.79999998283165;681;1 A
7.33722598147529;-0.399810791015625;-0.0072052001953125;6.8099999828064;682;1 A
7.34722598145004;-0.3997802734375;-0.0072021484375;6.81999998278116;683;1 A
7.35722598142479;-0.39971923828125;-0.0072174072265625;6.82999998275591;684;1 A
7.36722598139954;-0.399749755859375;-0.00721130371093751;6.83999998273066;685;1 A
7.37722598137429;-0.399749755859375;-0.0072357177734375;6.84999998270541;686;1 A
7.38722598134905;-0.39971923828125;-0.00726928710937499;6.85999998268016;687;1 A
7.3972259813238;-0.39971923828125;-0.00728454589843749;6.86999998265492;688;1 A
7.40722598129855;-0.399749755859375;-0.0072784423828125;6.87999998262967;689;1 A
7.4172259812733;-0.3997802734375;-0.00727233886718751;6.88999998260442;690;1 A
7.42722598124806;-0.39971923828125;-0.007281494140625;6.89999998257917;691;1 A
7.43722598122281;-0.399810791015625;-0.00728454589843749;6.90999998255393;692;1 A
7.44722598119756;-0.399810791015625;-0.00731201171875;6.91999998252868;693;1 A
7.45722598117231;-0.3997802734375;-0.00731201171875;6.92999998250343;694;1 A
7.46722598114707;-0.399688720703125;-0.00732421875;6.93999998247818;695;1 A
7.47722598112182;-0.399688720703125;-0.00734863281250001;6.94999998245294;696;1 A
7.48722598109657;-0.399688720703125;-0.007354736328125;6.95999998242769;697;1 A
7.49722598107132;-0.3997802734375;-0.00734863281250001;6.96999998240244;698;1 A
7.50722598104608;-0.39984130859375;-0.00733642578125;6.97999998237719;699;1 A
7.51722598102083;-0.399688720703125;-0.00733337402343751;6.98999998235195;700;1 A
