Time (s);WE(1).Potential (V);WE(1).Current (A);Corrected time (s);Index;Current range
16.3135969588121;-0.19989013671875;-0.0054290771484375;0;1;1 A
16.3235969587869;-0.199859619140625;-0.0058563232421875;0.00999999997475243;2;1 A
16.3335969587616;-0.199920654296875;-0.006072998046875;0.0199999999495049;3;1 A
16.3435969587364;-0.199951171875;-0.0062103271484375;0.0299999999242573;4;1 A
16.3535969587111;-0.199920654296875;-0.00632324218749999;0.0399999998990097;5;1 A
16.3635969586859;-0.199951171875;-0.00641479492187499;0.0499999998737621;6;1 A
16.3735969586606;-0.19989013671875;-0.0064849853515625;0.0599999998485146;7;1 A
16.3835969586354;-0.20001220703125;-0.006573486328125;0.069999999823267;8;1 A
16.3935969586101;-0.1998291015625;-0.00664672851562501;0.0799999997980194;9;1 A
16.4035969585849;-0.199920654296875;-0.0067169189453125;0.0899999997727718;10;1 A
16.4135969585597;-0.19989013671875;-0.00676879882812501;0.0999999997475243;11;1 A
16.4235969585344;-0.199920654296875;-0.006793212890625;0.109999999722277;12;1 A
16.4335969585092;-0.199859619140625;-0.00681457519531251;0.119999999697029;13;1 A
16.4435969584839;-0.199859619140625;-0.0068389892578125;0.129999999671782;14;1 A
16.4535969584587;-0.199859619140625;-0.00687255859374999;0.139999999646534;15;1 A
16.4635969584334;-0.199920654296875;-0.0068817138671875;0.149999999621286;16;1 A
16.4735969584082;-0.199951171875;-0.0069000244140625;0.159999999596039;17;1 A
16.4835969583829;-0.199951171875;-0.006927490234375;0.169999999570791;18;1 A
16.4935969583577;-0.19989013671875;-0.00694580078125;0.179999999545544;19;1 A
16.5035969583324;-0.199981689453125;-0.006976318359375;0.189999999520296;20;1 A
16.5135969583072;-0.199859619140625;-0.00697021484375;0.199999999495049;21;1 A
16.5235969582819;-0.199951171875;-0.00696716308593751;0.209999999469801;22;1 A
16.5335969582567;-0.199859619140625;-0.0069580078125;0.219999999444553;23;1 A
16.5435969582314;-0.199920654296875;-0.00694580078125;0.229999999419306;24;1 A
16.5535969582062;-0.199920654296875;-0.00690612792968751;0.239999999394058;25;1 A
16.5635969581809;-0.199951171875;-0.00684509277343751;0.249999999368811;26;1 A
16.5735969581557;-0.19989013671875;-0.0068084716796875;0.259999999343563;27;1 A
16.5835969581304;-0.199920654296875;-0.0067626953125;0.269999999318316;28;1 A
16.5935969581052;-0.199920654296875;-0.006756591796875;0.279999999293068;29;1 A
16.6035969580799;-0.199920654296875;-0.00673522949218749;0.28999999926782;30;1 A
16.6135969580547;-0.19989013671875;-0.00669250488281251;0.299999999242573;31;1 A
16.6235969580295;-0.199951171875;-0.00668945312499999;0.309999999217325;32;1 A
16.6335969580042;-0.199951171875;-0.0066680908203125;0.319999999192078;33;1 A
16.643596957979;-0.199951171875;-0.0066802978515625;0.32999999916683;34;1 A
16.6535969579537;-0.199920654296875;-0.006683349609375;0.339999999141583;35;1 A
16.6635969579285;-0.19989013671875;-0.00666198730468751;0.349999999116335;36;1 A
16.6735969579032;-0.199920654296875;-0.0066650390625;0.359999999091087;37;1 A
16.683596957878;-0.199951171875;-0.00665893554687499;0.36999999906584;38;1 A
16.6935969578527;-0.1998291015625;-0.0066650390625;0.379999999040592;39;1 A
16.7035969578275;-0.199859619140625;-0.0066375732421875;0.389999999015345;40;1 A
16.7135969578022;-0.19989013671875;-0.006622314453125;0.399999998990097;41;1 A
16.723596957777;-0.199859619140625;-0.0066192626953125;0.40999999896485;42;1 A
16.7335969577517;-0.199951171875;-0.00660095214843751;0.419999998939602;43;1 A
16.7435969577265;-0.199951171875;-0.00661315917968749;0.429999998914354;44;1 A
16.7535969577012;-0.199920654296875;-0.0065948486328125;0.439999998889107;45;1 A
16.763596957676;-0.199981689453125;-0.0065948486328125;0.449999998863859;46;1 A
16.7735969576507;-0.199951171875;-0.00660095214843751;0.459999998838612;47;1 A
16.7835969576255;-0.199920654296875;-0.0065948486328125;0.469999998813364;48;1 A
16.7935969576002;-0.19989013671875;-0.00660400390625;0.479999998788116;49;1 A
16.803596957575;-0.199951171875;-0.00658569335937501;0.489999998762869;50;1 A
16.8135969575497;-0.19989013671875;-0.0065765380859375;0.499999998737621;51;1 A
16.8235969575245;-0.199859619140625;-0.00656738281249999;0.509999998712374;52;1 A
16.8335969574993;-0.19989013671875;-0.006573486328125;0.519999998687126;53;1 A
16.843596957474;-0.19989013671875;-0.00657958984375;0.529999998661879;54;1 A
16.8535969574488;-0.199920654296875;-0.0065643310546875;0.539999998636631;55;1 A
16.8635969574235;-0.199920654296875;-0.006573486328125;0.549999998611383;56;1 A
16.8735969573983;-0.19989013671875;-0.00657043457031251;0.559999998586136;57;1 A
16.883596957373;-0.199859619140625;-0.00658569335937501;0.569999998560888;58;1 A
16.8935969573478;-0.199951171875;-0.006591796875;0.579999998535641;59;1 A
16.9035969573225;-0.199920654296875;-0.00657043457031251;0.589999998510393;60;1 A
16.9135969572973;-0.199981689453125;-0.00658264160156249;0.599999998485146;61;1 A
16.923596957272;-0.19989013671875;-0.00660400390625;0.609999998459898;62;1 A
16.9335969572468;-0.19989013671875;-0.0066192626953125;0.61999999843465;63;1 A
16.9435969572215;-0.199859619140625;-0.00663146972656251;0.629999998409403;64;1 A
16.9535969571963;-0.199920654296875;-0.00664367675781249;0.639999998384155;65;1 A
16.963596957171;-0.199951171875;-0.00665283203125;0.649999998358908;66;1 A
16.9735969571458;-0.19989013671875;-0.0066650390625;0.65999999833366;67;1 A
16.9835969571205;-0.199859619140625;-0.00667724609375001;0.669999998308413;68;1 A
16.9935969570953;-0.199951171875;-0.0066680908203125;0.679999998283165;69;1 A
17.00359695707;-0.19989013671875;-0.0066680908203125;0.689999998257917;70;1 A
17.0135969570448;-0.199920654296875;-0.00665283203125;0.69999999823267;71;1 A
17.0235969570195;-0.19989013671875;-0.00665283203125;0.709999998207422;72;1 A
17.0335969569943;-0.199951171875;-0.0066650390625;0.719999998182175;73;1 A
17.0435969569691;-0.19989013671875;-0.0066680908203125;0.729999998156927;74;1 A
17.0535969569438;-0.199920654296875;-0.006683349609375;0.73999999813168;75;1 A
17.0635969569186;-0.19989013671875;-0.00670166015625;0.749999998106432;76;1 A
17.0735969568933;-0.199951171875;-0.006732177734375;0.759999998081184;77;1 A
17.0835969568681;-0.199859619140625;-0.006732177734375;0.769999998055937;78;1 A
17.0935969568428;-0.199859619140625;-0.0067169189453125;0.779999998030689;79;1 A
17.1035969568176;-0.199859619140625;-0.00670166015625;0.789999998005442;80;1 A
17.1135969567923;-0.199920654296875;-0.0066650390625;0.799999997980194;81;1 A
17.1235969567671;-0.199920654296875;-0.00665283203125;0.809999997954947;82;1 A
17.1335969567418;-0.19989013671875;-0.00660095214843751;0.819999997929699;83;1 A
17.1435969567166;-0.199920654296875;-0.00655517578125001;0.829999997904451;84;1 A
17.1535969566913;-0.199951171875;-0.00653686523437499;0.839999997879204;85;1 A
17.1635969566661;-0.19989013671875;-0.0065185546875;0.849999997853956;86;1 A
17.1735969566408;-0.199981689453125;-0.0065338134765625;0.859999997828709;87;1 A
17.1835969566156;-0.19989013671875;-0.00653991699218751;0.869999997803461;88;1 A
17.1935969565903;-0.199920654296875;-0.006549072265625;0.879999997778214;89;1 A
17.2035969565651;-0.19989013671875;-0.006561279296875;0.889999997752966;90;1 A
17.2135969565398;-0.19989013671875;-0.00657043457031251;0.899999997727718;91;1 A
17.2235969565146;-0.19989013671875;-0.006591796875;0.909999997702471;92;1 A
17.2335969564894;-0.199920654296875;-0.00657043457031251;0.919999997677223;93;1 A
17.2435969564641;-0.19989013671875;-0.00657958984375;0.929999997651976;94;1 A
17.2535969564389;-0.19989013671875;-0.0065765380859375;0.939999997626728;95;1 A
17.2635969564136;-0.199951171875;-0.00656738281249999;0.949999997601481;96;1 A
17.2735969563884;-0.199920654296875;-0.006573486328125;0.959999997576233;97;1 A
17.2835969563631;-0.199920654296875;-0.006549072265625;0.969999997550985;98;1 A
17.2935969563379;-0.19989013671875;-0.00655517578125001;0.979999997525738;99;1 A
17.3035969563126;-0.199981689453125;-0.00655212402343749;0.98999999750049;100;1 A
17.3135969562874;-0.199951171875;-0.0065643310546875;0.999999997475243;101;1 A
17.3235969562621;-0.199981689453125;-0.0065643310546875;1.00999999745;102;1 A
17.3335969562369;-0.199920654296875;-0.00654296875;1.01999999742475;103;1 A
17.3435969562116;-0.199920654296875;-0.0065460205078125;1.0299999973995;104;1 A
17.3535969561864;-0.199920654296875;-0.0065277099609375;1.03999999737425;105;1 A
17.3635969561611;-0.199859619140625;-0.00652160644531249;1.049999997349;106;1 A
17.3735969561359;-0.199859619140625;-0.0064971923828125;1.05999999732376;107;1 A
17.3835969561106;-0.19989013671875;-0.0064666748046875;1.06999999729851;108;1 A
17.3935969560854;-0.199920654296875;-0.00647888183593751;1.07999999727326;109;1 A
17.4035969560601;-0.199920654296875;-0.0064666748046875;1.08999999724801;110;1 A
17.4135969560349;-0.199920654296875;-0.0064697265625;1.09999999722277;111;1 A
17.4235969560096;-0.199951171875;-0.00646057128906249;1.10999999719752;112;1 A
17.4335969559844;-0.199920654296875;-0.00645751953125;1.11999999717227;113;1 A
17.4435969559592;-0.199951171875;-0.00647583007812499;1.12999999714702;114;1 A
17.4535969559339;-0.19989013671875;-0.00649108886718749;1.13999999712178;115;1 A
17.4635969559087;-0.199920654296875;-0.0065032958984375;1.14999999709653;116;1 A
17.4735969558834;-0.199951171875;-0.0064971923828125;1.15999999707128;117;1 A
17.4835969558582;-0.199951171875;-0.00650634765624999;1.16999999704603;118;1 A
17.4935969558329;-0.199859619140625;-0.006512451171875;1.17999999702079;119;1 A
17.5035969558077;-0.19989013671875;-0.00650634765624999;1.18999999699554;120;1 A
17.5135969557824;-0.1998291015625;-0.00650939941406251;1.19999999697029;121;1 A
17.5235969557572;-0.199951171875;-0.006488037109375;1.20999999694504;122;1 A
17.5335969557319;-0.19989013671875;-0.0064971923828125;1.2199999969198;123;1 A
17.5435969557067;-0.199951171875;-0.0065155029296875;1.22999999689455;124;1 A
17.5535969556814;-0.199859619140625;-0.00653686523437499;1.2399999968693;125;1 A
17.5635969556562;-0.199981689453125;-0.006549072265625;1.24999999684405;126;1 A
17.5735969556309;-0.199951171875;-0.00655212402343749;1.25999999681881;127;1 A
17.5835969556057;-0.199951171875;-0.00655212402343749;1.26999999679356;128;1 A
17.5935969555804;-0.19989013671875;-0.00655212402343749;1.27999999676831;129;1 A
17.6035969555552;-0.199981689453125;-0.0065582275390625;1.28999999674306;130;1 A
17.6135969555299;-0.19989013671875;-0.00653686523437499;1.29999999671782;131;1 A
17.6235969555047;-0.199920654296875;-0.00652160644531249;1.30999999669257;132;1 A
17.6335969554794;-0.199920654296875;-0.0065338134765625;1.31999999666732;133;1 A
17.6435969554542;-0.199920654296875;-0.0065277099609375;1.32999999664207;134;1 A
17.653596955429;-0.199859619140625;-0.0065338134765625;1.33999999661683;135;1 A
17.6635969554037;-0.199951171875;-0.00652160644531249;1.34999999659158;136;1 A
17.6735969553785;-0.19989013671875;-0.006512451171875;1.35999999656633;137;1 A
17.6835969553532;-0.199951171875;-0.006500244140625;1.36999999654108;138;1 A
17.693596955328;-0.19989013671875;-0.006512451171875;1.37999999651583;139;1 A
17.7035969553027;-0.19989013671875;-0.0065155029296875;1.38999999649059;140;1 A
17.7135969552775;-0.20001220703125;-0.0064849853515625;1.39999999646534;141;1 A
17.7235969552522;-0.199951171875;-0.00649414062500001;1.40999999644009;142;1 A
17.733596955227;-0.199981689453125;-0.00647583007812499;1.41999999641484;143;1 A
17.7435969552017;-0.19989013671875;-0.0064727783203125;1.4299999963896;144;1 A
17.7535969551765;-0.199920654296875;-0.006488037109375;1.43999999636435;145;1 A
17.7635969551512;-0.199859619140625;-0.00647583007812499;1.4499999963391;146;1 A
17.773596955126;-0.199920654296875;-0.00649414062500001;1.45999999631385;147;1 A
17.7835969551007;-0.19989013671875;-0.0065032958984375;1.46999999628861;148;1 A
17.7935969550755;-0.199920654296875;-0.006512451171875;1.47999999626336;149;1 A
17.8035969550502;-0.199951171875;-0.00650634765624999;1.48999999623811;150;1 A
17.813596955025;-0.199920654296875;-0.0064849853515625;1.49999999621286;151;1 A
17.8235969549997;-0.199951171875;-0.00649414062500001;1.50999999618762;152;1 A
17.8335969549745;-0.199920654296875;-0.0064971923828125;1.51999999616237;153;1 A
17.8435969549492;-0.199920654296875;-0.00652160644531249;1.52999999613712;154;1 A
17.853596954924;-0.199920654296875;-0.0065032958984375;1.53999999611187;155;1 A
17.8635969548988;-0.199951171875;-0.006488037109375;1.54999999608663;156;1 A
17.8735969548735;-0.199951171875;-0.00650939941406251;1.55999999606138;157;1 A
17.8835969548483;-0.19989013671875;-0.006488037109375;1.56999999603613;158;1 A
17.893596954823;-0.199920654296875;-0.0065185546875;1.57999999601088;159;1 A
17.9035969547978;-0.19989013671875;-0.006512451171875;1.58999999598564;160;1 A
17.9135969547725;-0.199920654296875;-0.0065032958984375;1.59999999596039;161;1 A
17.9235969547473;-0.19989013671875;-0.00650939941406251;1.60999999593514;162;1 A
17.933596954722;-0.199859619140625;-0.00650634765624999;1.61999999590989;163;1 A
17.9435969546968;-0.19989013671875;-0.00652160644531249;1.62999999588465;164;1 A
17.9535969546715;-0.199951171875;-0.00653076171875;1.6399999958594;165;1 A
17.9635969546463;-0.199951171875;-0.00654296875;1.64999999583415;166;1 A
17.973596954621;-0.20001220703125;-0.00653076171875;1.6599999958089;167;1 A
17.9835969545958;-0.19989013671875;-0.00656738281249999;1.66999999578366;168;1 A
17.9935969545705;-0.199951171875;-0.006610107421875;1.67999999575841;169;1 A
18.0035969545453;-0.199981689453125;-0.006610107421875;1.68999999573316;170;1 A
18.01359695452;-0.199951171875;-0.006610107421875;1.69999999570791;171;1 A
18.0235969544948;-0.199920654296875;-0.006622314453125;1.70999999568267;172;1 A
18.0335969544695;-0.199951171875;-0.0066253662109375;1.71999999565742;173;1 A
18.0435969544443;-0.19989013671875;-0.00664367675781249;1.72999999563217;174;1 A
18.053596954419;-0.199920654296875;-0.0066375732421875;1.73999999560692;175;1 A
18.0635969543938;-0.199859619140625;-0.006640625;1.74999999558167;176;1 A
18.0735969543686;-0.199920654296875;-0.00664672851562501;1.75999999555643;177;1 A
18.0835969543433;-0.19989013671875;-0.0066558837890625;1.76999999553118;178;1 A
18.0935969543181;-0.199920654296875;-0.006640625;1.77999999550593;179;1 A
18.1035969542928;-0.199920654296875;-0.006622314453125;1.78999999548068;180;1 A
18.1135969542676;-0.199859619140625;-0.00662841796874999;1.79999999545544;181;1 A
18.1235969542423;-0.199920654296875;-0.00660400390625;1.80999999543019;182;1 A
18.1335969542171;-0.199981689453125;-0.0066070556640625;1.81999999540494;183;1 A
18.1435969541918;-0.19989013671875;-0.006591796875;1.82999999537969;184;1 A
18.1535969541666;-0.19989013671875;-0.00657958984375;1.83999999535445;185;1 A
18.1635969541413;-0.19989013671875;-0.00658569335937501;1.8499999953292;186;1 A
18.1735969541161;-0.19989013671875;-0.0065887451171875;1.85999999530395;187;1 A
18.1835969540908;-0.19989013671875;-0.00658569335937501;1.8699999952787;188;1 A
18.1935969540656;-0.199920654296875;-0.006561279296875;1.87999999525346;189;1 A
18.2035969540403;-0.19989013671875;-0.0065460205078125;1.88999999522821;190;1 A
18.2135969540151;-0.199981689453125;-0.00652465820312501;1.89999999520296;191;1 A
18.2235969539898;-0.199920654296875;-0.0065338134765625;1.90999999517771;192;1 A
18.2335969539646;-0.199951171875;-0.00653991699218751;1.91999999515247;193;1 A
18.2435969539393;-0.199951171875;-0.00654296875;1.92999999512722;194;1 A
18.2535969539141;-0.199981689453125;-0.0065765380859375;1.93999999510197;195;1 A
18.2635969538889;-0.199951171875;-0.0066070556640625;1.94999999507672;196;1 A
18.2735969538636;-0.199951171875;-0.0066253662109375;1.95999999505148;197;1 A
18.2835969538384;-0.19989013671875;-0.00662841796874999;1.96999999502623;198;1 A
18.2935969538131;-0.19989013671875;-0.00661621093750001;1.97999999500098;199;1 A
18.3035969537879;-0.199859619140625;-0.00660095214843751;1.98999999497573;200;1 A
18.3135969537626;-0.19989013671875;-0.00660400390625;1.99999999495049;201;1 A
18.3235969537374;-0.199920654296875;-0.00661621093750001;2.00999999492524;202;1 A
18.3335969537121;-0.199920654296875;-0.0066070556640625;2.01999999489999;203;1 A
18.3435969536869;-0.199951171875;-0.00661621093750001;2.02999999487474;204;1 A
18.3535969536616;-0.199920654296875;-0.006634521484375;2.0399999948495;205;1 A
18.3635969536364;-0.199859619140625;-0.00663146972656251;2.04999999482425;206;1 A
18.3735969536111;-0.19989013671875;-0.006671142578125;2.059999994799;207;1 A
18.3835969535859;-0.199951171875;-0.006683349609375;2.06999999477375;208;1 A
18.3935969535606;-0.199920654296875;-0.00668945312499999;2.0799999947485;209;1 A
18.4035969535354;-0.199920654296875;-0.00670776367187501;2.08999999472326;210;1 A
18.4135969535101;-0.199859619140625;-0.0067169189453125;2.09999999469801;211;1 A
18.4235969534849;-0.199920654296875;-0.0067291259765625;2.10999999467276;212;1 A
18.4335969534596;-0.199951171875;-0.00671997070312499;2.11999999464751;213;1 A
18.4435969534344;-0.199951171875;-0.006732177734375;2.12999999462227;214;1 A
18.4535969534091;-0.19976806640625;-0.00672607421875;2.13999999459702;215;1 A
18.4635969533839;-0.199920654296875;-0.00672607421875;2.14999999457177;216;1 A
18.4735969533587;-0.199859619140625;-0.0067291259765625;2.15999999454652;217;1 A
18.4835969533334;-0.199951171875;-0.00670166015625;2.16999999452128;218;1 A
18.4935969533082;-0.199920654296875;-0.0067138671875;2.17999999449603;219;1 A
18.5035969532829;-0.199920654296875;-0.0067138671875;2.18999999447078;220;1 A
18.5135969532577;-0.199920654296875;-0.00672607421875;2.19999999444553;221;1 A
18.5235969532324;-0.199951171875;-0.00675354003906251;2.20999999442029;222;1 A
18.5335969532072;-0.199951171875;-0.0067474365234375;2.21999999439504;223;1 A
18.5435969531819;-0.199920654296875;-0.00675048828124999;2.22999999436979;224;1 A
18.5535969531567;-0.199951171875;-0.006744384765625;2.23999999434454;225;1 A
18.5635969531314;-0.19989013671875;-0.00673828125000001;2.2499999943193;226;1 A
18.5735969531062;-0.1998291015625;-0.00670166015625;2.25999999429405;227;1 A
18.5835969530809;-0.199920654296875;-0.00665893554687499;2.2699999942688;228;1 A
18.5935969530557;-0.199859619140625;-0.0066497802734375;2.27999999424355;229;1 A
18.6035969530304;-0.199920654296875;-0.00662841796874999;2.28999999421831;230;1 A
18.6135969530052;-0.199920654296875;-0.0066497802734375;2.29999999419306;231;1 A
18.6235969529799;-0.199920654296875;-0.00664367675781249;2.30999999416781;232;1 A
18.6335969529547;-0.1998291015625;-0.00664672851562501;2.31999999414256;233;1 A
18.6435969529294;-0.199920654296875;-0.006683349609375;2.32999999411732;234;1 A
18.6535969529042;-0.19989013671875;-0.00670166015625;2.33999999409207;235;1 A
18.6635969528789;-0.20001220703125;-0.00672607421875;2.34999999406682;236;1 A
18.6735969528537;-0.199920654296875;-0.00673522949218749;2.35999999404157;237;1 A
18.6835969528285;-0.199981689453125;-0.00675354003906251;2.36999999401633;238;1 A
18.6935969528032;-0.19989013671875;-0.0067626953125;2.37999999399108;239;1 A
18.703596952778;-0.199920654296875;-0.006793212890625;2.38999999396583;240;1 A
18.7135969527527;-0.199859619140625;-0.0068206787109375;2.39999999394058;241;1 A
18.7235969527275;-0.19989013671875;-0.006817626953125;2.40999999391533;242;1 A
18.7335969527022;-0.199920654296875;-0.00685729980468749;2.41999999389009;243;1 A
18.743596952677;-0.199920654296875;-0.0068939208984375;2.42999999386484;244;1 A
18.7535969526517;-0.19989013671875;-0.00692138671875001;2.43999999383959;245;1 A
18.7635969526265;-0.199981689453125;-0.00695190429687501;2.44999999381434;246;1 A
18.7735969526012;-0.199920654296875;-0.00693664550781251;2.4599999937891;247;1 A
18.783596952576;-0.199951171875;-0.0069244384765625;2.46999999376385;248;1 A
18.7935969525507;-0.1998291015625;-0.006927490234375;2.4799999937386;249;1 A
18.8035969525255;-0.199951171875;-0.00691833496093749;2.48999999371335;250;1 A
18.8135969525002;-0.199859619140625;-0.0068939208984375;2.49999999368811;251;1 A
18.823596952475;-0.19989013671875;-0.00687561035156251;2.50999999366286;252;1 A
18.8335969524497;-0.19989013671875;-0.006866455078125;2.51999999363761;253;1 A
18.8435969524245;-0.199920654296875;-0.00684814453125;2.52999999361236;254;1 A
18.8535969523992;-0.19989013671875;-0.0068511962890625;2.53999999358712;255;1 A
18.863596952374;-0.199920654296875;-0.00682983398437501;2.54999999356187;256;1 A
18.8735969523487;-0.199859619140625;-0.006817626953125;2.55999999353662;257;1 A
18.8835969523235;-0.19989013671875;-0.0068206787109375;2.56999999351137;258;1 A
18.8935969522983;-0.199951171875;-0.00681457519531251;2.57999999348613;259;1 A
18.903596952273;-0.19989013671875;-0.00682373046875;2.58999999346088;260;1 A
18.9135969522478;-0.199951171875;-0.0068206787109375;2.59999999343563;261;1 A
18.9235969522225;-0.199920654296875;-0.00682983398437501;2.60999999341038;262;1 A
18.9335969521973;-0.199951171875;-0.0068359375;2.61999999338514;263;1 A
18.943596952172;-0.1998291015625;-0.0068695068359375;2.62999999335989;264;1 A
18.9535969521468;-0.199920654296875;-0.00687561035156251;2.63999999333464;265;1 A
18.9635969521215;-0.19989013671875;-0.00687255859374999;2.64999999330939;266;1 A
18.9735969520963;-0.199920654296875;-0.0069091796875;2.65999999328415;267;1 A
18.983596952071;-0.19989013671875;-0.00692138671875001;2.6699999932589;268;1 A
18.9935969520458;-0.199920654296875;-0.00694885253906249;2.67999999323365;269;1 A
19.0035969520205;-0.19989013671875;-0.0069732666015625;2.6899999932084;270;1 A
19.0135969519953;-0.199920654296875;-0.00697021484375;2.69999999318316;271;1 A
19.02359695197;-0.199951171875;-0.00698242187500001;2.70999999315791;272;1 A
19.0335969519448;-0.199920654296875;-0.006988525390625;2.71999999313266;273;1 A
19.0435969519195;-0.199920654296875;-0.0069915771484375;2.72999999310741;274;1 A
19.0535969518943;-0.199951171875;-0.00697937011718749;2.73999999308217;275;1 A
19.063596951869;-0.199981689453125;-0.0069610595703125;2.74999999305692;276;1 A
19.0735969518438;-0.20001220703125;-0.00696411132812499;2.75999999303167;277;1 A
19.0835969518185;-0.199920654296875;-0.0069549560546875;2.76999999300642;278;1 A
19.0935969517933;-0.19989013671875;-0.006976318359375;2.77999999298117;279;1 A
19.1035969517681;-0.1998291015625;-0.0069549560546875;2.78999999295593;280;1 A
19.1135969517428;-0.19989013671875;-0.00694885253906249;2.79999999293068;281;1 A
19.1235969517176;-0.199859619140625;-0.00697937011718749;2.80999999290543;282;1 A
19.1335969516923;-0.199920654296875;-0.0069854736328125;2.81999999288018;283;1 A
19.1435969516671;-0.199859619140625;-0.0070037841796875;2.82999999285494;284;1 A
19.1535969516418;-0.199920654296875;-0.0070037841796875;2.83999999282969;285;1 A
19.1635969516166;-0.19989013671875;-0.007000732421875;2.84999999280444;286;1 A
19.1735969515913;-0.20001220703125;-0.00701293945312501;2.85999999277919;287;1 A
19.1835969515661;-0.19989013671875;-0.00703125;2.86999999275395;288;1 A
19.1935969515408;-0.199920654296875;-0.00704345703125001;2.8799999927287;289;1 A
19.2035969515156;-0.199920654296875;-0.00702514648437499;2.88999999270345;290;1 A
19.2135969514903;-0.19989013671875;-0.00704345703125001;2.8999999926782;291;1 A
19.2235969514651;-0.19989013671875;-0.0070465087890625;2.90999999265296;292;1 A
19.2335969514398;-0.199951171875;-0.00705566406249999;2.91999999262771;293;1 A
19.2435969514146;-0.1998291015625;-0.0070648193359375;2.92999999260246;294;1 A
19.2535969513893;-0.19989013671875;-0.00703125;2.93999999257721;295;1 A
19.2635969513641;-0.1998291015625;-0.00702819824218751;2.94999999255197;296;1 A
19.2735969513388;-0.19989013671875;-0.00704345703125001;2.95999999252672;297;1 A
19.2835969513136;-0.19989013671875;-0.007049560546875;2.96999999250147;298;1 A
19.2935969512884;-0.199951171875;-0.00706787109375;2.97999999247622;299;1 A
19.3035969512631;-0.199920654296875;-0.00706787109375;2.98999999245098;300;1 A
19.3135969512379;-0.20001220703125;-0.00707092285156249;2.99999999242573;301;1 A
19.3235969512126;-0.199920654296875;-0.00707092285156249;3.00999999240048;302;1 A
19.3335969511874;-0.199981689453125;-0.00706787109375;3.01999999237523;303;1 A
19.3435969511621;-0.199920654296875;-0.00704040527343749;3.02999999234999;304;1 A
19.3535969511369;-0.199951171875;-0.00702514648437499;3.03999999232474;305;1 A
19.3635969511116;-0.19989013671875;-0.00704040527343749;3.04999999229949;306;1 A
19.3735969510864;-0.199920654296875;-0.00705566406249999;3.05999999227424;307;1 A
19.3835969510611;-0.1998291015625;-0.0070831298828125;3.069999992249;308;1 A
19.3935969510359;-0.19989013671875;-0.0070953369140625;3.07999999222375;309;1 A
19.4035969510106;-0.1998291015625;-0.00710144042968749;3.0899999921985;310;1 A
19.4135969509854;-0.199951171875;-0.00711669921874999;3.09999999217325;311;1 A
19.4235969509601;-0.199920654296875;-0.0071380615234375;3.109999992148;312;1 A
19.4335969509349;-0.199920654296875;-0.0071258544921875;3.11999999212276;313;1 A
19.4435969509096;-0.19989013671875;-0.0071075439453125;3.12999999209751;314;1 A
19.4535969508844;-0.199951171875;-0.00710449218750001;3.13999999207226;315;1 A
19.4635969508591;-0.19989013671875;-0.00708923339843751;3.14999999204701;316;1 A
19.4735969508339;-0.199920654296875;-0.00708923339843751;3.15999999202177;317;1 A
19.4835969508086;-0.199920654296875;-0.00707092285156249;3.16999999199652;318;1 A
19.4935969507834;-0.19989013671875;-0.0070159912109375;3.17999999197127;319;1 A
19.5035969507582;-0.199981689453125;-0.006976318359375;3.18999999194602;320;1 A
19.5135969507329;-0.19989013671875;-0.00694885253906249;3.19999999192078;321;1 A
19.5235969507077;-0.199951171875;-0.006927490234375;3.20999999189553;322;1 A
19.5335969506824;-0.199920654296875;-0.00689086914062501;3.21999999187028;323;1 A
19.5435969506572;-0.199920654296875;-0.00686035156250001;3.22999999184503;324;1 A
19.5535969506319;-0.199920654296875;-0.00684509277343751;3.23999999181979;325;1 A
19.5635969506067;-0.199859619140625;-0.0068328857421875;3.24999999179454;326;1 A
19.5735969505814;-0.199920654296875;-0.00682983398437501;3.25999999176929;327;1 A
19.5835969505562;-0.199951171875;-0.006787109375;3.26999999174404;328;1 A
19.5935969505309;-0.199920654296875;-0.00677490234375;3.2799999917188;329;1 A
19.6035969505057;-0.199920654296875;-0.00676879882812501;3.28999999169355;330;1 A
19.6135969504804;-0.199920654296875;-0.0067474365234375;3.2999999916683;331;1 A
19.6235969504552;-0.199859619140625;-0.006756591796875;3.30999999164305;332;1 A
19.6335969504299;-0.19989013671875;-0.00671997070312499;3.31999999161781;333;1 A
19.6435969504047;-0.199859619140625;-0.0066986083984375;3.32999999159256;334;1 A
19.6535969503794;-0.1998291015625;-0.0066802978515625;3.33999999156731;335;1 A
19.6635969503542;-0.19989013671875;-0.006671142578125;3.34999999154206;336;1 A
19.6735969503289;-0.199798583984375;-0.0066558837890625;3.35999999151682;337;1 A
19.6835969503037;-0.19989013671875;-0.00663146972656251;3.36999999149157;338;1 A
19.6935969502784;-0.199920654296875;-0.00664367675781249;3.37999999146632;339;1 A
19.7035969502532;-0.199951171875;-0.0066375732421875;3.38999999144107;340;1 A
19.713596950228;-0.199951171875;-0.0066558837890625;3.39999999141583;341;1 A
19.7235969502027;-0.199951171875;-0.00667419433593749;3.40999999139058;342;1 A
19.7335969501775;-0.19989013671875;-0.00665893554687499;3.41999999136533;343;1 A
19.7435969501522;-0.199951171875;-0.0066986083984375;3.42999999134008;344;1 A
19.753596950127;-0.19989013671875;-0.00671997070312499;3.43999999131483;345;1 A
19.7635969501017;-0.199951171875;-0.006744384765625;3.44999999128959;346;1 A
19.7735969500765;-0.19989013671875;-0.0067626953125;3.45999999126434;347;1 A
19.7835969500512;-0.199859619140625;-0.00675354003906251;3.46999999123909;348;1 A
19.793596950026;-0.199859619140625;-0.0067626953125;3.47999999121384;349;1 A
19.8035969500007;-0.199920654296875;-0.006756591796875;3.4899999911886;350;1 A
19.8135969499755;-0.19989013671875;-0.0067626953125;3.49999999116335;351;1 A
19.8235969499502;-0.20001220703125;-0.00675354003906251;3.5099999911381;352;1 A
19.833596949925;-0.199859619140625;-0.00676574707031249;3.51999999111285;353;1 A
19.8435969498997;-0.199920654296875;-0.00678100585937499;3.52999999108761;354;1 A
19.8535969498745;-0.19989013671875;-0.00677490234375;3.53999999106236;355;1 A
19.8635969498492;-0.199951171875;-0.006787109375;3.54999999103711;356;1 A
19.873596949824;-0.199951171875;-0.0067626953125;3.55999999101186;357;1 A
19.8835969497987;-0.199951171875;-0.0067413330078125;3.56999999098662;358;1 A
19.8935969497735;-0.19989013671875;-0.0067413330078125;3.57999999096137;359;1 A
19.9035969497482;-0.199859619140625;-0.00670471191406249;3.58999999093612;360;1 A
19.913596949723;-0.19989013671875;-0.00672302246093751;3.59999999091087;361;1 A
19.9235969496978;-0.199859619140625;-0.00670776367187501;3.60999999088563;362;1 A
19.9335969496725;-0.19989013671875;-0.006695556640625;3.61999999086038;363;1 A
19.9435969496473;-0.199859619140625;-0.00668945312499999;3.62999999083513;364;1 A
19.953596949622;-0.199859619140625;-0.00670471191406249;3.63999999080988;365;1 A
19.9635969495968;-0.199951171875;-0.00670166015625;3.64999999078464;366;1 A
19.9735969495715;-0.199951171875;-0.0066802978515625;3.65999999075939;367;1 A
19.9835969495463;-0.199951171875;-0.006683349609375;3.66999999073414;368;1 A
19.993596949521;-0.199920654296875;-0.0066802978515625;3.67999999070889;369;1 A
20.0035969494958;-0.199920654296875;-0.006683349609375;3.68999999068365;370;1 A
20.0135969494705;-0.19989013671875;-0.00668945312499999;3.6999999906584;371;1 A
20.0235969494453;-0.199920654296875;-0.0066802978515625;3.70999999063315;372;1 A
20.03359694942;-0.19989013671875;-0.006683349609375;3.7199999906079;373;1 A
20.0435969493948;-0.199951171875;-0.00670776367187501;3.72999999058266;374;1 A
20.0535969493695;-0.199920654296875;-0.0067291259765625;3.73999999055741;375;1 A
20.0635969493443;-0.19989013671875;-0.0067291259765625;3.74999999053216;376;1 A
20.073596949319;-0.1998291015625;-0.00675048828124999;3.75999999050691;377;1 A
20.0835969492938;-0.19989013671875;-0.0067596435546875;3.76999999048167;378;1 A
20.0935969492685;-0.199859619140625;-0.00676879882812501;3.77999999045642;379;1 A
20.1035969492433;-0.19989013671875;-0.00679626464843749;3.78999999043117;380;1 A
20.113596949218;-0.199920654296875;-0.0067779541015625;3.79999999040592;381;1 A
20.1235969491928;-0.199920654296875;-0.0067779541015625;3.80999999038067;382;1 A
20.1335969491676;-0.199920654296875;-0.00677490234375;3.81999999035543;383;1 A
20.1435969491423;-0.199920654296875;-0.00676879882812501;3.82999999033018;384;1 A
20.1535969491171;-0.19989013671875;-0.00675354003906251;3.83999999030493;385;1 A
20.1635969490918;-0.19989013671875;-0.00671997070312499;3.84999999027968;386;1 A
20.1735969490666;-0.199920654296875;-0.0067108154296875;3.85999999025444;387;1 A
20.1835969490413;-0.19989013671875;-0.006695556640625;3.86999999022919;388;1 A
20.1935969490161;-0.1998291015625;-0.00672607421875;3.87999999020394;389;1 A
20.2035969489908;-0.199859619140625;-0.0067291259765625;3.88999999017869;390;1 A
20.2135969489656;-0.199859619140625;-0.0067169189453125;3.89999999015345;391;1 A
20.2235969489403;-0.199920654296875;-0.00673828125000001;3.9099999901282;392;1 A
20.2335969489151;-0.199951171875;-0.00672607421875;3.91999999010295;393;1 A
20.2435969488898;-0.199951171875;-0.00673828125000001;3.9299999900777;394;1 A
20.2535969488646;-0.199920654296875;-0.0067291259765625;3.93999999005246;395;1 A
20.2635969488393;-0.199951171875;-0.00670471191406249;3.94999999002721;396;1 A
20.2735969488141;-0.199951171875;-0.00670471191406249;3.95999999000196;397;1 A
20.2835969487888;-0.199859619140625;-0.00670471191406249;3.96999998997671;398;1 A
20.2935969487636;-0.19989013671875;-0.0067138671875;3.97999998995147;399;1 A
20.3035969487383;-0.199920654296875;-0.0066986083984375;3.98999998992622;400;1 A
20.3135969487131;-0.19989013671875;-0.0066986083984375;3.99999998990097;401;1 A
20.3235969486879;-0.1998291015625;-0.00670471191406249;4.00999998987572;402;1 A
20.3335969486626;-0.199920654296875;-0.00670166015625;4.01999998985048;403;1 A
20.3435969486374;-0.19989013671875;-0.00672607421875;4.02999998982523;404;1 A
20.3535969486121;-0.199920654296875;-0.00669250488281251;4.03999998979998;405;1 A
20.3635969485869;-0.19989013671875;-0.00668945312499999;4.04999998977473;406;1 A
20.3735969485616;-0.199951171875;-0.00670471191406249;4.05999998974949;407;1 A
20.3835969485364;-0.199951171875;-0.00670471191406249;4.06999998972424;408;1 A
20.3935969485111;-0.199951171875;-0.0067108154296875;4.07999998969899;409;1 A
20.4035969484859;-0.19989013671875;-0.0067169189453125;4.08999998967374;410;1 A
20.4135969484606;-0.199920654296875;-0.0067626953125;4.0999999896485;411;1 A
20.4235969484354;-0.199859619140625;-0.00677490234375;4.10999998962325;412;1 A
20.4335969484101;-0.199920654296875;-0.00678405761718751;4.119999989598;413;1 A
20.4435969483849;-0.19989013671875;-0.00678100585937499;4.12999998957275;414;1 A
20.4535969483596;-0.19989013671875;-0.0067596435546875;4.1399999895475;415;1 A
20.4635969483344;-0.199859619140625;-0.00677490234375;4.14999998952226;416;1 A
20.4735969483091;-0.199920654296875;-0.00678405761718751;4.15999998949701;417;1 A
20.4835969482839;-0.19989013671875;-0.00682373046875;4.16999998947176;418;1 A
20.4935969482586;-0.199951171875;-0.00697937011718749;4.17999998944651;419;1 A
20.5035969482334;-0.199859619140625;-0.00681152343749999;4.18999998942127;420;1 A
20.5135969482081;-0.199981689453125;-0.0068389892578125;4.19999998939602;421;1 A
20.5235969481829;-0.199920654296875;-0.0068206787109375;4.20999998937077;422;1 A
20.5335969481577;-0.199920654296875;-0.00682678222656249;4.21999998934552;423;1 A
20.5435969481324;-0.199798583984375;-0.0069305419921875;4.22999998932028;424;1 A
20.5535969481072;-0.199493408203125;-0.0076751708984375;4.23999998929503;425;1 A
20.5635969480819;-0.199981689453125;-0.00688781738281249;4.24999998926978;426;1 A
20.5735969480567;-0.200103759765625;-0.006866455078125;4.25999998924453;427;1 A
20.5835969480314;-0.199859619140625;-0.00703125;4.26999998921929;428;1 A
20.5935969480062;-0.201446533203125;-0.006939697265625;4.27999998919404;429;1 A
20.6035969479809;-0.20001220703125;-0.006671142578125;4.28999998916879;430;1 A
20.6135969479557;-0.1998291015625;-0.007000732421875;4.29999998914354;431;1 A
20.6235969479304;-0.199859619140625;-0.00673522949218749;4.3099999891183;432;1 A
20.6335969479052;-0.199920654296875;-0.00677490234375;4.31999998909305;433;1 A
20.6435969478799;-0.199920654296875;-0.0068359375;4.3299999890678;434;1 A
20.6535969478547;-0.199951171875;-0.0068359375;4.33999998904255;435;1 A
20.6635969478294;-0.199951171875;-0.00684814453125;4.34999998901731;436;1 A
20.6735969478042;-0.199951171875;-0.006866455078125;4.35999998899206;437;1 A
20.6835969477789;-0.1998291015625;-0.00686035156250001;4.36999998896681;438;1 A
20.6935969477537;-0.19989013671875;-0.0068634033203125;4.37999998894156;439;1 A
20.7035969477284;-0.199859619140625;-0.00687255859374999;4.38999998891632;440;1 A
20.7135969477032;-0.19989013671875;-0.0068695068359375;4.39999998889107;441;1 A
20.7235969476779;-0.199859619140625;-0.006884765625;4.40999998886582;442;1 A
20.7335969476527;-0.199951171875;-0.0068695068359375;4.41999998884057;443;1 A
20.7435969476275;-0.199920654296875;-0.0068511962890625;4.42999998881533;444;1 A
20.7535969476022;-0.199920654296875;-0.00684814453125;4.43999998879008;445;1 A
20.763596947577;-0.199920654296875;-0.00684814453125;4.44999998876483;446;1 A
20.7735969475517;-0.19989013671875;-0.006854248046875;4.45999998873958;447;1 A
20.7835969475265;-0.199951171875;-0.0068328857421875;4.46999998871433;448;1 A
20.7935969475012;-0.199920654296875;-0.00682983398437501;4.47999998868909;449;1 A
20.803596947476;-0.19989013671875;-0.0068206787109375;4.48999998866384;450;1 A
20.8135969474507;-0.199859619140625;-0.00681152343749999;4.49999998863859;451;1 A
20.8235969474255;-0.199859619140625;-0.006817626953125;4.50999998861334;452;1 A
20.8335969474002;-0.199951171875;-0.00678100585937499;4.5199999885881;453;1 A
20.843596947375;-0.199920654296875;-0.00679626464843749;4.52999998856285;454;1 A
20.8535969473497;-0.199859619140625;-0.00679931640625001;4.5399999885376;455;1 A
20.8635969473245;-0.199951171875;-0.00681152343749999;4.54999998851235;456;1 A
20.8735969472992;-0.199920654296875;-0.00684814453125;4.55999998848711;457;1 A
20.883596947274;-0.199859619140625;-0.00684204101562499;4.56999998846186;458;1 A
20.8935969472487;-0.199951171875;-0.00685729980468749;4.57999998843661;459;1 A
20.9035969472235;-0.199920654296875;-0.0068695068359375;4.58999998841136;460;1 A
20.9135969471982;-0.199951171875;-0.00688781738281249;4.59999998838612;461;1 A
20.923596947173;-0.199981689453125;-0.00689697265625;4.60999998836087;462;1 A
20.9335969471477;-0.199920654296875;-0.006878662109375;4.61999998833562;463;1 A
20.9435969471225;-0.19989013671875;-0.006878662109375;4.62999998831037;464;1 A
20.9535969470973;-0.199920654296875;-0.006854248046875;4.63999998828513;465;1 A
20.963596947072;-0.19989013671875;-0.0068634033203125;4.64999998825988;466;1 A
20.9735969470468;-0.199859619140625;-0.00684509277343751;4.65999998823463;467;1 A
20.9835969470215;-0.199859619140625;-0.00681457519531251;4.66999998820938;468;1 A
20.9935969469963;-0.1998291015625;-0.00681152343749999;4.67999998818414;469;1 A
21.003596946971;-0.199920654296875;-0.006793212890625;4.68999998815889;470;1 A
21.0135969469458;-0.199920654296875;-0.006793212890625;4.69999998813364;471;1 A
21.0235969469205;-0.199920654296875;-0.00678405761718751;4.70999998810839;472;1 A
21.0335969468953;-0.199920654296875;-0.00678100585937499;4.71999998808315;473;1 A
21.04359694687;-0.199981689453125;-0.00678405761718751;4.7299999880579;474;1 A
21.0535969468448;-0.19989013671875;-0.006793212890625;4.73999998803265;475;1 A
21.0635969468195;-0.199951171875;-0.006805419921875;4.7499999880074;476;1 A
21.0735969467943;-0.199951171875;-0.006793212890625;4.75999998798216;477;1 A
21.083596946769;-0.199920654296875;-0.00681152343749999;4.76999998795691;478;1 A
21.0935969467438;-0.199920654296875;-0.0068206787109375;4.77999998793166;479;1 A
21.1035969467185;-0.199951171875;-0.00682373046875;4.78999998790641;480;1 A
21.1135969466933;-0.199920654296875;-0.00684814453125;4.79999998788116;481;1 A
21.123596946668;-0.1998291015625;-0.00684814453125;4.80999998785592;482;1 A
21.1335969466428;-0.1998291015625;-0.0068511962890625;4.81999998783067;483;1 A
21.1435969466175;-0.19989013671875;-0.0068634033203125;4.82999998780542;484;1 A
21.1535969465923;-0.199951171875;-0.0068695068359375;4.83999998778017;485;1 A
21.1635969465671;-0.199951171875;-0.00687255859374999;4.84999998775493;486;1 A
21.1735969465418;-0.199951171875;-0.006866455078125;4.85999998772968;487;1 A
21.1835969465166;-0.199920654296875;-0.0068511962890625;4.86999998770443;488;1 A
21.1935969464913;-0.199951171875;-0.0068389892578125;4.87999998767918;489;1 A
21.2035969464661;-0.20001220703125;-0.00682678222656249;4.88999998765394;490;1 A
21.2135969464408;-0.1998291015625;-0.006805419921875;4.89999998762869;491;1 A
21.2235969464156;-0.199951171875;-0.00678100585937499;4.90999998760344;492;1 A
21.2335969463903;-0.199798583984375;-0.00677490234375;4.91999998757819;493;1 A
21.2435969463651;-0.199920654296875;-0.0067718505859375;4.92999998755295;494;1 A
21.2535969463398;-0.199920654296875;-0.00678100585937499;4.9399999875277;495;1 A
21.2635969463146;-0.199920654296875;-0.00678405761718751;4.94999998750245;496;1 A
21.2735969462893;-0.1998291015625;-0.006787109375;4.9599999874772;497;1 A
21.2835969462641;-0.199981689453125;-0.0068023681640625;4.96999998745196;498;1 A
21.2935969462388;-0.19989013671875;-0.00682373046875;4.97999998742671;499;1 A
21.3035969462136;-0.199920654296875;-0.0068389892578125;4.98999998740146;500;1 A
21.3135969461883;-0.19989013671875;-0.00682678222656249;4.99999998737621;501;1 A
21.3235969461631;-0.199951171875;-0.006854248046875;5.00999998735097;502;1 A
21.3335969461378;-0.199859619140625;-0.00687255859374999;5.01999998732572;503;1 A
21.3435969461126;-0.19989013671875;-0.00689697265625;5.02999998730047;504;1 A
21.3535969460874;-0.199859619140625;-0.0069122314453125;5.03999998727522;505;1 A
21.3635969460621;-0.199920654296875;-0.00689086914062501;5.04999998724998;506;1 A
21.3735969460369;-0.1998291015625;-0.006884765625;5.05999998722473;507;1 A
21.3835969460116;-0.1998291015625;-0.006878662109375;5.06999998719948;508;1 A
21.3935969459864;-0.199859619140625;-0.00688781738281249;5.07999998717423;509;1 A
21.4035969459611;-0.199920654296875;-0.006884765625;5.08999998714899;510;1 A
21.4135969459359;-0.199920654296875;-0.006866455078125;5.09999998712374;511;1 A
21.4235969459106;-0.199951171875;-0.00684814453125;5.10999998709849;512;1 A
21.4335969458854;-0.19989013671875;-0.00682373046875;5.11999998707324;513;1 A
21.4435969458601;-0.199920654296875;-0.00682983398437501;5.129999987048;514;1 A
21.4535969458349;-0.19989013671875;-0.0068084716796875;5.13999998702275;515;1 A
21.4635969458096;-0.199920654296875;-0.006793212890625;5.1499999869975;516;1 A
21.4735969457844;-0.199920654296875;-0.006805419921875;5.15999998697225;517;1 A
21.4835969457591;-0.199920654296875;-0.006787109375;5.169999986947;518;1 A
21.4935969457339;-0.199920654296875;-0.00679931640625001;5.17999998692176;519;1 A
21.5035969457086;-0.199920654296875;-0.0067901611328125;5.18999998689651;520;1 A
21.5135969456834;-0.199859619140625;-0.0067901611328125;5.19999998687126;521;1 A
21.5235969456581;-0.199859619140625;-0.00679931640625001;5.20999998684601;522;1 A
21.5335969456329;-0.199859619140625;-0.006805419921875;5.21999998682077;523;1 A
21.5435969456076;-0.199951171875;-0.0068206787109375;5.22999998679552;524;1 A
21.5535969455824;-0.19989013671875;-0.00679931640625001;5.23999998677027;525;1 A
21.5635969455572;-0.20001220703125;-0.0068023681640625;5.24999998674502;526;1 A
21.5735969455319;-0.199920654296875;-0.00679626464843749;5.25999998671978;527;1 A
21.5835969455067;-0.199920654296875;-0.00677490234375;5.26999998669453;528;1 A
21.5935969454814;-0.199920654296875;-0.0067901611328125;5.27999998666928;529;1 A
21.6035969454562;-0.199951171875;-0.0067474365234375;5.28999998664403;530;1 A
21.6135969454309;-0.199981689453125;-0.0067413330078125;5.29999998661879;531;1 A
21.6235969454057;-0.199951171875;-0.0067474365234375;5.30999998659354;532;1 A
21.6335969453804;-0.199920654296875;-0.00675048828124999;5.31999998656829;533;1 A
21.6435969453552;-0.199920654296875;-0.0067626953125;5.32999998654304;534;1 A
21.6535969453299;-0.19989013671875;-0.00673828125000001;5.3399999865178;535;1 A
21.6635969453047;-0.199920654296875;-0.00672302246093751;5.34999998649255;536;1 A
21.6735969452794;-0.199920654296875;-0.00671997070312499;5.3599999864673;537;1 A
21.6835969452542;-0.199951171875;-0.0067138671875;5.36999998644205;538;1 A
21.6935969452289;-0.199981689453125;-0.00668945312499999;5.37999998641681;539;1 A
21.7035969452037;-0.199951171875;-0.00665283203125;5.38999998639156;540;1 A
21.7135969451784;-0.199920654296875;-0.00665283203125;5.39999998636631;541;1 A
21.7235969451532;-0.19989013671875;-0.00663146972656251;5.40999998634106;542;1 A
21.7335969451279;-0.199920654296875;-0.00662841796874999;5.41999998631582;543;1 A
21.7435969451027;-0.199859619140625;-0.00661315917968749;5.42999998629057;544;1 A
21.7535969450774;-0.19989013671875;-0.00659790039062499;5.43999998626532;545;1 A
21.7635969450522;-0.199859619140625;-0.00660400390625;5.44999998624007;546;1 A
21.773596945027;-0.199859619140625;-0.006610107421875;5.45999998621483;547;1 A
21.7835969450017;-0.199859619140625;-0.0066192626953125;5.46999998618958;548;1 A
21.7935969449765;-0.19989013671875;-0.00660400390625;5.47999998616433;549;1 A
21.8035969449512;-0.19989013671875;-0.0066070556640625;5.48999998613908;550;1 A
21.813596944926;-0.199951171875;-0.00659790039062499;5.49999998611383;551;1 A
21.8235969449007;-0.199981689453125;-0.00660400390625;5.50999998608859;552;1 A
21.8335969448755;-0.20001220703125;-0.0065948486328125;5.51999998606334;553;1 A
21.8435969448502;-0.19989013671875;-0.00657043457031251;5.52999998603809;554;1 A
21.853596944825;-0.19989013671875;-0.006573486328125;5.53999998601284;555;1 A
21.8635969447997;-0.199951171875;-0.0065765380859375;5.5499999859876;556;1 A
21.8735969447745;-0.199951171875;-0.0065887451171875;5.55999998596235;557;1 A
21.8835969447492;-0.19989013671875;-0.006610107421875;5.5699999859371;558;1 A
21.893596944724;-0.199920654296875;-0.0066192626953125;5.57999998591185;559;1 A
21.9035969446987;-0.19989013671875;-0.006634521484375;5.58999998588661;560;1 A
21.9135969446735;-0.19989013671875;-0.006671142578125;5.59999998586136;561;1 A
21.9235969446482;-0.199920654296875;-0.0066986083984375;5.60999998583611;562;1 A
21.933596944623;-0.199920654296875;-0.0066802978515625;5.61999998581086;563;1 A
21.9435969445977;-0.199920654296875;-0.0066802978515625;5.62999998578562;564;1 A
21.9535969445725;-0.199920654296875;-0.00667724609375001;5.63999998576037;565;1 A
21.9635969445472;-0.199920654296875;-0.006671142578125;5.64999998573512;566;1 A
21.973596944522;-0.199920654296875;-0.0066986083984375;5.65999998570987;567;1 A
21.9835969444968;-0.199920654296875;-0.006695556640625;5.66999998568463;568;1 A
21.9935969444715;-0.199920654296875;-0.00670166015625;5.67999998565938;569;1 A
22.0035969444463;-0.19989013671875;-0.0067138671875;5.68999998563413;570;1 A
22.013596944421;-0.199920654296875;-0.0067169189453125;5.69999998560888;571;1 A
22.0235969443958;-0.19989013671875;-0.00673522949218749;5.70999998558364;572;1 A
22.0335969443705;-0.19989013671875;-0.00670776367187501;5.71999998555839;573;1 A
22.0435969443453;-0.19989013671875;-0.00673828125000001;5.72999998553314;574;1 A
22.05359694432;-0.19989013671875;-0.006732177734375;5.73999998550789;575;1 A
22.0635969442948;-0.199920654296875;-0.00675354003906251;5.74999998548265;576;1 A
22.0735969442695;-0.199951171875;-0.00675354003906251;5.7599999854574;577;1 A
22.0835969442443;-0.199920654296875;-0.00671997070312499;5.76999998543215;578;1 A
22.093596944219;-0.199981689453125;-0.00673522949218749;5.7799999854069;579;1 A
22.1035969441938;-0.20001220703125;-0.00671997070312499;5.78999998538166;580;1 A
22.1135969441685;-0.199981689453125;-0.0067108154296875;5.79999998535641;581;1 A
22.1235969441433;-0.199951171875;-0.00668945312499999;5.80999998533116;582;1 A
22.133596944118;-0.199981689453125;-0.00664367675781249;5.81999998530591;583;1 A
22.1435969440928;-0.19989013671875;-0.006622314453125;5.82999998528066;584;1 A
22.1535969440675;-0.199920654296875;-0.00661315917968749;5.83999998525542;585;1 A
22.1635969440423;-0.199859619140625;-0.00661315917968749;5.84999998523017;586;1 A
22.173596944017;-0.19989013671875;-0.00659790039062499;5.85999998520492;587;1 A
22.1835969439918;-0.19989013671875;-0.00658264160156249;5.86999998517967;588;1 A
22.1935969439666;-0.199920654296875;-0.006591796875;5.87999998515443;589;1 A
22.2035969439413;-0.19989013671875;-0.006561279296875;5.88999998512918;590;1 A
22.2135969439161;-0.1998291015625;-0.00656738281249999;5.89999998510393;591;1 A
22.2235969438908;-0.199920654296875;-0.00653686523437499;5.90999998507868;592;1 A
22.2335969438656;-0.19989013671875;-0.0065155029296875;5.91999998505344;593;1 A
22.2435969438403;-0.19989013671875;-0.0065185546875;5.92999998502819;594;1 A
22.2535969438151;-0.199951171875;-0.00650634765624999;5.93999998500294;595;1 A
22.2635969437898;-0.199859619140625;-0.0065032958984375;5.94999998497769;596;1 A
22.2735969437646;-0.19989013671875;-0.00647888183593751;5.95999998495245;597;1 A
22.2835969437393;-0.19989013671875;-0.00646362304687501;5.9699999849272;598;1 A
22.2935969437141;-0.199859619140625;-0.00645751953125;5.97999998490195;599;1 A
22.3035969436888;-0.199951171875;-0.00645751953125;5.9899999848767;600;1 A
22.3135969436636;-0.199798583984375;-0.0064544677734375;5.99999998485146;601;1 A
22.3235969436383;-0.19989013671875;-0.006439208984375;6.00999998482621;602;1 A
22.3335969436131;-0.199920654296875;-0.0064544677734375;6.01999998480096;603;1 A
22.3435969435878;-0.20001220703125;-0.00646057128906249;6.02999998477571;604;1 A
22.3535969435626;-0.199920654296875;-0.00647888183593751;6.03999998475047;605;1 A
22.3635969435373;-0.199920654296875;-0.00650939941406251;6.04999998472522;606;1 A
22.3735969435121;-0.19989013671875;-0.0065185546875;6.05999998469997;607;1 A
22.3835969434869;-0.19989013671875;-0.00654296875;6.06999998467472;608;1 A
22.3935969434616;-0.19989013671875;-0.00657958984375;6.07999998464948;609;1 A
22.4035969434364;-0.19989013671875;-0.0065948486328125;6.08999998462423;610;1 A
22.4135969434111;-0.199920654296875;-0.006591796875;6.09999998459898;611;1 A
22.4235969433859;-0.199920654296875;-0.006591796875;6.10999998457373;612;1 A
22.4335969433606;-0.199951171875;-0.00659790039062499;6.11999998454849;613;1 A
22.4435969433354;-0.19989013671875;-0.0065887451171875;6.12999998452324;614;1 A
22.4535969433101;-0.199920654296875;-0.006610107421875;6.13999998449799;615;1 A
22.4635969432849;-0.199951171875;-0.0065948486328125;6.14999998447274;616;1 A
22.4735969432596;-0.199951171875;-0.00660095214843751;6.1599999844475;617;1 A
22.4835969432344;-0.199951171875;-0.006610107421875;6.16999998442225;618;1 A
22.4935969432091;-0.199951171875;-0.006622314453125;6.179999984397;619;1 A
22.5035969431839;-0.199920654296875;-0.006640625;6.18999998437175;620;1 A
22.5135969431586;-0.199951171875;-0.006640625;6.1999999843465;621;1 A
22.5235969431334;-0.199951171875;-0.0066497802734375;6.20999998432126;622;1 A
22.5335969431081;-0.199859619140625;-0.00665893554687499;6.21999998429601;623;1 A
22.5435969430829;-0.199920654296875;-0.0066986083984375;6.22999998427076;624;1 A
22.5535969430576;-0.19989013671875;-0.0066986083984375;6.23999998424551;625;1 A
22.5635969430324;-0.19989013671875;-0.0066864013671875;6.24999998422027;626;1 A
22.5735969430071;-0.199859619140625;-0.0067138671875;6.25999998419502;627;1 A
22.5835969429819;-0.199981689453125;-0.00670776367187501;6.26999998416977;628;1 A
22.5935969429567;-0.199859619140625;-0.00672302246093751;6.27999998414452;629;1 A
22.6035969429314;-0.199951171875;-0.0067169189453125;6.28999998411928;630;1 A
22.6135969429062;-0.199951171875;-0.0066802978515625;6.29999998409403;631;1 A
22.6235969428809;-0.199951171875;-0.006671142578125;6.30999998406878;632;1 A
22.6335969428557;-0.20001220703125;-0.0066680908203125;6.31999998404353;633;1 A
22.6435969428304;-0.199981689453125;-0.0066680908203125;6.32999998401829;634;1 A
22.6535969428052;-0.199859619140625;-0.00664367675781249;6.33999998399304;635;1 A
22.6635969427799;-0.199951171875;-0.0066192626953125;6.34999998396779;636;1 A
22.6735969427547;-0.199859619140625;-0.0066192626953125;6.35999998394254;637;1 A
22.6835969427294;-0.199859619140625;-0.00661621093750001;6.3699999839173;638;1 A
22.6935969427042;-0.199859619140625;-0.00663146972656251;6.37999998389205;639;1 A
22.7035969426789;-0.19989013671875;-0.00659790039062499;6.3899999838668;640;1 A
22.7135969426537;-0.199920654296875;-0.0065948486328125;6.39999998384155;641;1 A
22.7235969426284;-0.199951171875;-0.006610107421875;6.40999998381631;642;1 A
22.7335969426032;-0.199951171875;-0.00660095214843751;6.41999998379106;643;1 A
22.7435969425779;-0.199920654296875;-0.006622314453125;6.42999998376581;644;1 A
22.7535969425527;-0.199920654296875;-0.006610107421875;6.43999998374056;645;1 A
22.7635969425274;-0.199981689453125;-0.006610107421875;6.44999998371532;646;1 A
22.7735969425022;-0.199920654296875;-0.00661315917968749;6.45999998369007;647;1 A
22.7835969424769;-0.199920654296875;-0.006622314453125;6.46999998366482;648;1 A
22.7935969424517;-0.199920654296875;-0.00662841796874999;6.47999998363957;649;1 A
22.8035969424265;-0.199981689453125;-0.006622314453125;6.48999998361433;650;1 A
22.8135969424012;-0.19989013671875;-0.00664672851562501;6.49999998358908;651;1 A
22.823596942376;-0.199920654296875;-0.00664672851562501;6.50999998356383;652;1 A
22.8335969423507;-0.19989013671875;-0.00666198730468751;6.51999998353858;653;1 A
22.8435969423255;-0.199951171875;-0.00666198730468751;6.52999998351333;654;1 A
22.8535969423002;-0.199920654296875;-0.006640625;6.53999998348809;655;1 A
22.863596942275;-0.199920654296875;-0.0066558837890625;6.54999998346284;656;1 A
22.8735969422497;-0.199920654296875;-0.006671142578125;6.55999998343759;657;1 A
22.8835969422245;-0.199920654296875;-0.00668945312499999;6.56999998341234;658;1 A
22.8935969421992;-0.199920654296875;-0.00670776367187501;6.5799999833871;659;1 A
22.903596942174;-0.199951171875;-0.00670471191406249;6.58999998336185;660;1 A
22.9135969421487;-0.199920654296875;-0.00671997070312499;6.5999999833366;661;1 A
22.9235969421235;-0.199920654296875;-0.006732177734375;6.60999998331135;662;1 A
22.9335969420982;-0.199859619140625;-0.0067596435546875;6.61999998328611;663;1 A
22.943596942073;-0.199951171875;-0.00675354003906251;6.62999998326086;664;1 A
22.9535969420477;-0.199951171875;-0.00676879882812501;6.63999998323561;665;1 A
22.9635969420225;-0.199920654296875;-0.006793212890625;6.64999998321036;666;1 A
22.9735969419972;-0.199951171875;-0.006805419921875;6.65999998318512;667;1 A
22.983596941972;-0.199951171875;-0.0068389892578125;6.66999998315987;668;1 A
22.9935969419467;-0.199920654296875;-0.00684204101562499;6.67999998313462;669;1 A
23.0035969419215;-0.199920654296875;-0.0068389892578125;6.68999998310937;670;1 A
23.0135969418963;-0.199920654296875;-0.00684814453125;6.69999998308413;671;1 A
23.023596941871;-0.199920654296875;-0.0068634033203125;6.70999998305888;672;1 A
23.0335969418458;-0.19989013671875;-0.00684814453125;6.71999998303363;673;1 A
23.0435969418205;-0.19989013671875;-0.0068389892578125;6.72999998300838;674;1 A
23.0535969417953;-0.199920654296875;-0.00682983398437501;6.73999998298314;675;1 A
23.06359694177;-0.199859619140625;-0.0068084716796875;6.74999998295789;676;1 A
23.0735969417448;-0.199920654296875;-0.00681457519531251;6.75999998293264;677;1 A
23.0835969417195;-0.19989013671875;-0.00682373046875;6.76999998290739;678;1 A
23.0935969416943;-0.19989013671875;-0.00681152343749999;6.77999998288215;679;1 A
23.103596941669;-0.199920654296875;-0.0068328857421875;6.7899999828569;680;1 A
23.1135969416438;-0.199920654296875;-0.006854248046875;6.79999998283165;681;1 A
23.1235969416185;-0.199859619140625;-0.006866455078125;6.8099999828064;682;1 A
23.1335969415933;-0.199920654296875;-0.0068695068359375;6.81999998278116;683;1 A
23.143596941568;-0.199920654296875;-0.00687561035156251;6.82999998275591;684;1 A
23.1535969415428;-0.19989013671875;-0.0068817138671875;6.83999998273066;685;1 A
23.1635969415175;-0.199920654296875;-0.006884765625;6.84999998270541;686;1 A
23.1735969414923;-0.199920654296875;-0.0068939208984375;6.85999998268016;687;1 A
23.183596941467;-0.199859619140625;-0.00685729980468749;6.86999998265492;688;1 A
23.1935969414418;-0.199920654296875;-0.0068695068359375;6.87999998262967;689;1 A
23.2035969414165;-0.19989013671875;-0.006878662109375;6.88999998260442;690;1 A
23.2135969413913;-0.19989013671875;-0.006884765625;6.89999998257917;691;1 A
23.2235969413661;-0.199920654296875;-0.006939697265625;6.90999998255393;692;1 A
23.2335969413408;-0.19989013671875;-0.0069427490234375;6.91999998252868;693;1 A
23.2435969413156;-0.199920654296875;-0.006976318359375;6.92999998250343;694;1 A
23.2535969412903;-0.199981689453125;-0.00700988769531249;6.93999998247818;695;1 A
23.2635969412651;-0.199920654296875;-0.007037353515625;6.94999998245294;696;1 A
23.2735969412398;-0.199951171875;-0.0070526123046875;6.95999998242769;697;1 A
23.2835969412146;-0.199859619140625;-0.00704040527343749;6.96999998240244;698;1 A
23.2935969411893;-0.199951171875;-0.0070465087890625;6.97999998237719;699;1 A
23.3035969411641;-0.19989013671875;-0.00703125;6.98999998235195;700;1 A
