Time (s);WE(1).Potential (V);WE(1).Current (A);Corrected time (s);Index;Current range
24.0408319393027;0.600799560546875;1.04583740234375;0;1;1 A
24.0508319392775;0.60003662109375;0.74920654296875;0.00999999997475243;2;1 A
24.0608319392522;0.5997314453125;0.6158447265625;0.0199999999495049;3;1 A
24.070831939227;0.59967041015625;0.535888671875;0.0299999999242573;4;1 A
24.0808319392017;0.59967041015625;0.48187255859375;0.0399999998990097;5;1 A
24.0908319391765;0.599609375;0.44110107421875;0.0499999998737621;6;1 A
24.1008319391512;0.599578857421875;0.409912109375;0.0599999998485146;7;1 A
24.110831939126;0.599639892578125;0.385589599609375;0.069999999823267;8;1 A
24.1208319391008;0.59954833984375;0.365753173828125;0.0799999997980194;9;1 A
24.1308319390755;0.599609375;0.34912109375;0.0899999997727718;10;1 A
24.1408319390503;0.5994873046875;0.334564208984375;0.0999999997475243;11;1 A
24.150831939025;0.599639892578125;0.322418212890625;0.109999999722277;12;1 A
24.1608319389998;0.599609375;0.3115234375;0.119999999697029;13;1 A
24.1708319389745;0.599639892578125;0.302703857421875;0.129999999671782;14;1 A
24.1808319389493;0.59954833984375;0.294586181640625;0.139999999646534;15;1 A
24.190831938924;0.599578857421875;0.28717041015625;0.149999999621286;16;1 A
24.2008319388988;0.59954833984375;0.281494140625;0.159999999596039;17;1 A
24.2108319388735;0.599609375;0.275726318359375;0.169999999570791;18;1 A
24.2208319388483;0.599517822265625;0.270965576171875;0.179999999545544;19;1 A
24.230831938823;0.599639892578125;0.26641845703125;0.189999999520296;20;1 A
24.2408319387978;0.59954833984375;0.26239013671875;0.199999999495049;21;1 A
24.2508319387725;0.59954833984375;0.258880615234375;0.209999999469801;22;1 A
24.2608319387473;0.599578857421875;0.255645751953125;0.219999999444553;23;1 A
24.270831938722;0.599700927734375;0.252777099609375;0.229999999419306;24;1 A
24.2808319386968;0.599639892578125;0.249298095703125;0.239999999394058;25;1 A
24.2908319386715;0.599639892578125;0.247222900390625;0.249999999368811;26;1 A
24.3008319386463;0.599609375;0.244659423828125;0.259999999343563;27;1 A
24.310831938621;0.599578857421875;0.2423095703125;0.269999999318316;28;1 A
24.3208319385958;0.599578857421875;0.24090576171875;0.279999999293068;29;1 A
24.3308319385706;0.599578857421875;0.238616943359375;0.28999999926782;30;1 A
24.3408319385453;0.59954833984375;0.23797607421875;0.299999999242573;31;1 A
24.3508319385201;0.59954833984375;0.23724365234375;0.309999999217325;32;1 A
24.3608319384948;0.599578857421875;0.235931396484375;0.319999999192078;33;1 A
24.3708319384696;0.59954833984375;0.2347412109375;0.32999999916683;34;1 A
24.3808319384443;0.59954833984375;0.2333984375;0.339999999141583;35;1 A
24.3908319384191;0.599609375;0.232421875;0.349999999116335;36;1 A
24.4008319383938;0.599609375;0.23101806640625;0.359999999091087;37;1 A
24.4108319383686;0.599639892578125;0.230438232421875;0.36999999906584;38;1 A
24.4208319383433;0.59954833984375;0.229278564453125;0.379999999040592;39;1 A
24.4308319383181;0.59954833984375;0.229156494140625;0.389999999015345;40;1 A
24.4408319382928;0.5994873046875;0.2301025390625;0.399999998990097;41;1 A
24.4508319382676;0.59954833984375;0.22967529296875;0.40999999896485;42;1 A
24.4608319382423;0.59954833984375;0.230224609375;0.419999998939602;43;1 A
24.4708319382171;0.599578857421875;0.22998046875;0.429999998914354;44;1 A
24.4808319381918;0.59954833984375;0.2298583984375;0.439999998889107;45;1 A
24.4908319381666;0.59954833984375;0.22998046875;0.449999998863859;46;1 A
24.5008319381413;0.599639892578125;0.229400634765625;0.459999998838612;47;1 A
24.5108319381161;0.599639892578125;0.229278564453125;0.469999998813364;48;1 A
24.5208319380909;0.599578857421875;0.228668212890625;0.479999998788116;49;1 A
24.5308319380656;0.59967041015625;0.229400634765625;0.489999998762869;50;1 A
24.5408319380404;0.599578857421875;0.22930908203125;0.499999998737621;51;1 A
24.5508319380151;0.599517822265625;0.22894287109375;0.509999998712374;52;1 A
24.5608319379899;0.599578857421875;0.22857666015625;0.519999998687126;53;1 A
24.5708319379646;0.599639892578125;0.227294921875;0.529999998661879;54;1 A
24.5808319379394;0.59954833984375;0.2279052734375;0.539999998636631;55;1 A
24.5908319379141;0.59954833984375;0.228363037109375;0.549999998611383;56;1 A
24.6008319378889;0.59954833984375;0.22833251953125;0.559999998586136;57;1 A
24.6108319378636;0.59954833984375;0.228515625;0.569999998560888;58;1 A
24.6208319378384;0.599578857421875;0.22869873046875;0.579999998535641;59;1 A
24.6308319378131;0.599517822265625;0.228973388671875;0.589999998510393;60;1 A
24.6408319377879;0.599578857421875;0.229217529296875;0.599999998485146;61;1 A
24.6508319377626;0.599639892578125;0.229827880859375;0.609999998459898;62;1 A
24.6608319377374;0.599639892578125;0.228668212890625;0.61999999843465;63;1 A
24.6708319377121;0.5994873046875;0.228973388671875;0.629999998409403;64;1 A
24.6808319376869;0.599578857421875;0.2301025390625;0.639999998384155;65;1 A
24.6908319376616;0.599578857421875;0.230194091796875;0.649999998358908;66;1 A
24.7008319376364;0.599517822265625;0.231170654296875;0.65999999833366;67;1 A
24.7108319376111;0.599609375;0.230804443359375;0.669999998308413;68;1 A
24.7208319375859;0.59954833984375;0.2313232421875;0.679999998283165;69;1 A
24.7308319375607;0.5994873046875;0.2320556640625;0.689999998257917;70;1 A
24.7408319375354;0.59954833984375;0.232177734375;0.69999999823267;71;1 A
24.7508319375102;0.599578857421875;0.2318115234375;0.709999998207422;72;1 A
24.7608319374849;0.59954833984375;0.231201171875;0.719999998182175;73;1 A
24.7708319374597;0.599578857421875;0.23187255859375;0.729999998156927;74;1 A
24.7808319374344;0.599609375;0.231689453125;0.73999999813168;75;1 A
24.7908319374092;0.599578857421875;0.2318115234375;0.749999998106432;76;1 A
24.8008319373839;0.599609375;0.232147216796875;0.759999998081184;77;1 A
24.8108319373587;0.59954833984375;0.231597900390625;0.769999998055937;78;1 A
24.8208319373334;0.599639892578125;0.232574462890625;0.779999998030689;79;1 A
24.8308319373082;0.599517822265625;0.2322998046875;0.789999998005442;80;1 A
24.8408319372829;0.599609375;0.23187255859375;0.799999997980194;81;1 A
24.8508319372577;0.599517822265625;0.231903076171875;0.809999997954947;82;1 A
24.8608319372324;0.599578857421875;0.231689453125;0.819999997929699;83;1 A
24.8708319372072;0.59954833984375;0.232177734375;0.829999997904451;84;1 A
24.8808319371819;0.599578857421875;0.2320556640625;0.839999997879204;85;1 A
24.8908319371567;0.59954833984375;0.23193359375;0.849999997853956;86;1 A
24.9008319371314;0.599639892578125;0.231292724609375;0.859999997828709;87;1 A
24.9108319371062;0.5994873046875;0.231536865234375;0.869999997803461;88;1 A
24.9208319370809;0.599639892578125;0.23223876953125;0.879999997778214;89;1 A
24.9308319370557;0.59954833984375;0.23193359375;0.889999997752966;90;1 A
24.9408319370305;0.599609375;0.232757568359375;0.899999997727718;91;1 A
24.9508319370052;0.599639892578125;0.23272705078125;0.909999997702471;92;1 A
24.96083193698;0.599578857421875;0.23291015625;0.919999997677223;93;1 A
24.9708319369547;0.5994873046875;0.23333740234375;0.929999997651976;94;1 A
24.9808319369295;0.59954833984375;0.232818603515625;0.939999997626728;95;1 A
24.9908319369042;0.59954833984375;0.232635498046875;0.949999997601481;96;1 A
25.000831936879;0.599609375;0.232421875;0.959999997576233;97;1 A
25.0108319368537;0.599578857421875;0.233001708984375;0.969999997550985;98;1 A
25.0208319368285;0.599578857421875;0.232940673828125;0.979999997525738;99;1 A
25.0308319368032;0.599609375;0.23333740234375;0.98999999750049;100;1 A
25.040831936778;0.59967041015625;0.23345947265625;0.999999997475243;101;1 A
25.0508319367527;0.599578857421875;0.232696533203125;1.00999999745;102;1 A
25.0608319367275;0.599639892578125;0.233795166015625;1.01999999742475;103;1 A
25.0708319367022;0.599517822265625;0.233856201171875;1.0299999973995;104;1 A
25.080831936677;0.599578857421875;0.234130859375;1.03999999737425;105;1 A
25.0908319366517;0.59954833984375;0.235321044921875;1.049999997349;106;1 A
25.1008319366265;0.59954833984375;0.23553466796875;1.05999999732376;107;1 A
25.1108319366012;0.599517822265625;0.2362060546875;1.06999999729851;108;1 A
25.120831936576;0.599578857421875;0.235931396484375;1.07999999727326;109;1 A
25.1308319365507;0.599578857421875;0.235504150390625;1.08999999724801;110;1 A
25.1408319365255;0.599639892578125;0.23486328125;1.09999999722277;111;1 A
25.1508319365003;0.599517822265625;0.23486328125;1.10999999719752;112;1 A
25.160831936475;0.599609375;0.235076904296875;1.11999999717227;113;1 A
25.1708319364498;0.599639892578125;0.234344482421875;1.12999999714702;114;1 A
25.1808319364245;0.59954833984375;0.23468017578125;1.13999999712178;115;1 A
25.1908319363993;0.59954833984375;0.234283447265625;1.14999999709653;116;1 A
25.200831936374;0.59967041015625;0.23480224609375;1.15999999707128;117;1 A
25.2108319363488;0.599517822265625;0.23565673828125;1.16999999704603;118;1 A
25.2208319363235;0.599517822265625;0.235321044921875;1.17999999702079;119;1 A
25.2308319362983;0.59954833984375;0.2354736328125;1.18999999699554;120;1 A
25.240831936273;0.59954833984375;0.235565185546875;1.19999999697029;121;1 A
25.2508319362478;0.599609375;0.236541748046875;1.20999999694504;122;1 A
25.2608319362225;0.599578857421875;0.23675537109375;1.2199999969198;123;1 A
25.2708319361973;0.599578857421875;0.236907958984375;1.22999999689455;124;1 A
25.280831936172;0.599700927734375;0.23681640625;1.2399999968693;125;1 A
25.2908319361468;0.599578857421875;0.2362060546875;1.24999999684405;126;1 A
25.3008319361215;0.599609375;0.236968994140625;1.25999999681881;127;1 A
25.3108319360963;0.599578857421875;0.236358642578125;1.26999999679356;128;1 A
25.320831936071;0.599578857421875;0.236053466796875;1.27999999676831;129;1 A
25.3308319360458;0.599517822265625;0.23651123046875;1.28999999674306;130;1 A
25.3408319360205;0.599517822265625;0.236175537109375;1.29999999671782;131;1 A
25.3508319359953;0.59954833984375;0.236724853515625;1.30999999669257;132;1 A
25.3608319359701;0.59954833984375;0.236602783203125;1.31999999666732;133;1 A
25.3708319359448;0.599578857421875;0.236175537109375;1.32999999664207;134;1 A
25.3808319359196;0.599578857421875;0.23590087890625;1.33999999661683;135;1 A
25.3908319358943;0.599609375;0.236236572265625;1.34999999659158;136;1 A
25.4008319358691;0.599609375;0.236724853515625;1.35999999656633;137;1 A
25.4108319358438;0.599517822265625;0.23663330078125;1.36999999654108;138;1 A
25.4208319358186;0.599609375;0.237030029296875;1.37999999651583;139;1 A
25.4308319357933;0.59967041015625;0.2362060546875;1.38999999649059;140;1 A
25.4408319357681;0.599609375;0.236236572265625;1.39999999646534;141;1 A
25.4508319357428;0.59954833984375;0.236419677734375;1.40999999644009;142;1 A
25.4608319357176;0.59954833984375;0.23577880859375;1.41999999641484;143;1 A
25.4708319356923;0.599578857421875;0.235809326171875;1.4299999963896;144;1 A
25.4808319356671;0.599609375;0.23553466796875;1.43999999636435;145;1 A
25.4908319356418;0.59954833984375;0.235626220703125;1.4499999963391;146;1 A
25.5008319356166;0.59954833984375;0.2354736328125;1.45999999631385;147;1 A
25.5108319355913;0.599578857421875;0.2349853515625;1.46999999628861;148;1 A
25.5208319355661;0.599609375;0.234619140625;1.47999999626336;149;1 A
25.5308319355408;0.59954833984375;0.233978271484375;1.48999999623811;150;1 A
25.5408319355156;0.599609375;0.234588623046875;1.49999999621286;151;1 A
25.5508319354904;0.599639892578125;0.23394775390625;1.50999999618762;152;1 A
25.5608319354651;0.599609375;0.23358154296875;1.51999999616237;153;1 A
25.5708319354399;0.59954833984375;0.2337646484375;1.52999999613712;154;1 A
25.5808319354146;0.599578857421875;0.233551025390625;1.53999999611187;155;1 A
25.5908319353894;0.599609375;0.234466552734375;1.54999999608663;156;1 A
25.6008319353641;0.599517822265625;0.23468017578125;1.55999999606138;157;1 A
25.6108319353389;0.599578857421875;0.23468017578125;1.56999999603613;158;1 A
25.6208319353136;0.599639892578125;0.23486328125;1.57999999601088;159;1 A
25.6308319352884;0.599578857421875;0.2354736328125;1.58999999598564;160;1 A
25.6408319352631;0.599578857421875;0.236114501953125;1.59999999596039;161;1 A
25.6508319352379;0.599578857421875;0.236175537109375;1.60999999593514;162;1 A
25.6608319352126;0.599578857421875;0.236663818359375;1.61999999590989;163;1 A
25.6708319351874;0.599639892578125;0.235870361328125;1.62999999588465;164;1 A
25.6808319351621;0.59954833984375;0.23602294921875;1.6399999958594;165;1 A
25.6908319351369;0.599639892578125;0.236175537109375;1.64999999583415;166;1 A
25.7008319351116;0.599578857421875;0.235382080078125;1.6599999958089;167;1 A
25.7108319350864;0.59954833984375;0.235870361328125;1.66999999578366;168;1 A
25.7208319350611;0.599609375;0.235595703125;1.67999999575841;169;1 A
25.7308319350359;0.599578857421875;0.235595703125;1.68999999573316;170;1 A
25.7408319350106;0.599517822265625;0.235748291015625;1.69999999570791;171;1 A
25.7508319349854;0.599578857421875;0.235595703125;1.70999999568267;172;1 A
25.7608319349602;0.599639892578125;0.23529052734375;1.71999999565742;173;1 A
25.7708319349349;0.59954833984375;0.234649658203125;1.72999999563217;174;1 A
25.7808319349097;0.599639892578125;0.235076904296875;1.73999999560692;175;1 A
25.7908319348844;0.599639892578125;0.234619140625;1.74999999558167;176;1 A
25.8008319348592;0.599639892578125;0.234619140625;1.75999999555643;177;1 A
25.8108319348339;0.599578857421875;0.235076904296875;1.76999999553118;178;1 A
25.8208319348087;0.599517822265625;0.235137939453125;1.77999999550593;179;1 A
25.8308319347834;0.599639892578125;0.236602783203125;1.78999999548068;180;1 A
25.8408319347582;0.599639892578125;0.23748779296875;1.79999999545544;181;1 A
25.8508319347329;0.599609375;0.238250732421875;1.80999999543019;182;1 A
25.8608319347077;0.59954833984375;0.2391357421875;1.81999999540494;183;1 A
25.8708319346824;0.59967041015625;0.23968505859375;1.82999999537969;184;1 A
25.8808319346572;0.599609375;0.239715576171875;1.83999999535445;185;1 A
25.8908319346319;0.59954833984375;0.239105224609375;1.8499999953292;186;1 A
25.9008319346067;0.599578857421875;0.23876953125;1.85999999530395;187;1 A
25.9108319345814;0.599639892578125;0.237701416015625;1.8699999952787;188;1 A
25.9208319345562;0.599578857421875;0.237884521484375;1.87999999525346;189;1 A
25.9308319345309;0.599609375;0.238067626953125;1.88999999522821;190;1 A
25.9408319345057;0.599517822265625;0.23736572265625;1.89999999520296;191;1 A
25.9508319344804;0.599578857421875;0.238128662109375;1.90999999517771;192;1 A
25.9608319344552;0.599609375;0.238037109375;1.91999999515247;193;1 A
25.97083193443;0.599609375;0.238311767578125;1.92999999512722;194;1 A
25.9808319344047;0.59954833984375;0.238555908203125;1.93999999510197;195;1 A
25.9908319343795;0.59954833984375;0.238128662109375;1.94999999507672;196;1 A
26.0008319343542;0.599578857421875;0.23797607421875;1.95999999505148;197;1 A
26.010831934329;0.599609375;0.237579345703125;1.96999999502623;198;1 A
26.0208319343037;0.599609375;0.2379150390625;1.97999999500098;199;1 A
26.0308319342785;0.599639892578125;0.2374267578125;1.98999999497573;200;1 A
26.0408319342532;0.599609375;0.237335205078125;1.99999999495049;201;1 A
26.050831934228;0.599578857421875;0.237579345703125;2.00999999492524;202;1 A
26.0608319342027;0.59954833984375;0.237396240234375;2.01999999489999;203;1 A
26.0708319341775;0.599639892578125;0.23846435546875;2.02999999487474;204;1 A
26.0808319341522;0.599578857421875;0.238494873046875;2.0399999948495;205;1 A
26.090831934127;0.599609375;0.238006591796875;2.04999999482425;206;1 A
26.1008319341017;0.599578857421875;0.237548828125;2.059999994799;207;1 A
26.1108319340765;0.599639892578125;0.23699951171875;2.06999999477375;208;1 A
26.1208319340512;0.59954833984375;0.236541748046875;2.0799999947485;209;1 A
26.130831934026;0.599578857421875;0.23590087890625;2.08999999472326;210;1 A
26.1408319340007;0.599609375;0.235595703125;2.09999999469801;211;1 A
26.1508319339755;0.599609375;0.23486328125;2.10999999467276;212;1 A
26.1608319339502;0.599578857421875;0.23541259765625;2.11999999464751;213;1 A
26.170831933925;0.599609375;0.23577880859375;2.12999999462227;214;1 A
26.1808319338998;0.59954833984375;0.235504150390625;2.13999999459702;215;1 A
26.1908319338745;0.599578857421875;0.23651123046875;2.14999999457177;216;1 A
26.2008319338493;0.599517822265625;0.236328125;2.15999999454652;217;1 A
26.210831933824;0.599578857421875;0.236724853515625;2.16999999452128;218;1 A
26.2208319337988;0.599517822265625;0.2369384765625;2.17999999449603;219;1 A
26.2308319337735;0.599578857421875;0.23638916015625;2.18999999447078;220;1 A
26.2408319337483;0.59954833984375;0.236053466796875;2.19999999444553;221;1 A
26.250831933723;0.59954833984375;0.235504150390625;2.20999999442029;222;1 A
26.2608319336978;0.599578857421875;0.235687255859375;2.21999999439504;223;1 A
26.2708319336725;0.599517822265625;0.23541259765625;2.22999999436979;224;1 A
26.2808319336473;0.59954833984375;0.235626220703125;2.23999999434454;225;1 A
26.290831933622;0.599609375;0.235870361328125;2.2499999943193;226;1 A
26.3008319335968;0.59954833984375;0.235748291015625;2.25999999429405;227;1 A
26.3108319335715;0.59967041015625;0.236846923828125;2.2699999942688;228;1 A
26.3208319335463;0.599517822265625;0.236602783203125;2.27999999424355;229;1 A
26.330831933521;0.599578857421875;0.236114501953125;2.28999999421831;230;1 A
26.3408319334958;0.599578857421875;0.23590087890625;2.29999999419306;231;1 A
26.3508319334705;0.599761962890625;0.235595703125;2.30999999416781;232;1 A
26.3608319334453;0.599273681640625;0.235687255859375;2.31999999414256;233;1 A
26.37083193342;0.599609375;0.2352294921875;2.32999999411732;234;1 A
26.3808319333948;0.59954833984375;0.23492431640625;2.33999999409207;235;1 A
26.3908319333696;0.599639892578125;0.23394775390625;2.34999999406682;236;1 A
26.4008319333443;0.599517822265625;0.233917236328125;2.35999999404157;237;1 A
26.4108319333191;0.599609375;0.23388671875;2.36999999401633;238;1 A
26.4208319332938;0.59954833984375;0.2333984375;2.37999999399108;239;1 A
26.4308319332686;0.599639892578125;0.234039306640625;2.38999999396583;240;1 A
26.4408319332433;0.599609375;0.23297119140625;2.39999999394058;241;1 A
26.4508319332181;0.59967041015625;0.232574462890625;2.40999999391533;242;1 A
26.4608319331928;0.599578857421875;0.23193359375;2.41999999389009;243;1 A
26.4708319331676;0.599517822265625;0.230621337890625;2.42999999386484;244;1 A
26.4808319331423;0.599578857421875;0.22998046875;2.43999999383959;245;1 A
26.4908319331171;0.59954833984375;0.229248046875;2.44999999381434;246;1 A
26.5008319330918;0.59954833984375;0.229095458984375;2.4599999937891;247;1 A
26.5108319330666;0.599578857421875;0.228302001953125;2.46999999376385;248;1 A
26.5208319330413;0.59954833984375;0.228057861328125;2.4799999937386;249;1 A
26.5308319330161;0.599609375;0.227569580078125;2.48999999371335;250;1 A
26.5408319329908;0.59954833984375;0.227325439453125;2.49999999368811;251;1 A
26.5508319329656;0.599639892578125;0.22845458984375;2.50999999366286;252;1 A
26.5608319329403;0.599578857421875;0.22808837890625;2.51999999363761;253;1 A
26.5708319329151;0.599578857421875;0.228179931640625;2.52999999361236;254;1 A
26.5808319328899;0.59954833984375;0.22808837890625;2.53999999358712;255;1 A
26.5908319328646;0.59967041015625;0.227691650390625;2.54999999356187;256;1 A
26.6008319328394;0.59954833984375;0.22796630859375;2.55999999353662;257;1 A
26.6108319328141;0.599578857421875;0.2275390625;2.56999999351137;258;1 A
26.6208319327889;0.59954833984375;0.22772216796875;2.57999999348613;259;1 A
26.6308319327636;0.599517822265625;0.2279052734375;2.58999999346088;260;1 A
26.6408319327384;0.59954833984375;0.22882080078125;2.59999999343563;261;1 A
26.6508319327131;0.59954833984375;0.229095458984375;2.60999999341038;262;1 A
26.6608319326879;0.599609375;0.228668212890625;2.61999999338514;263;1 A
26.6708319326626;0.599609375;0.229034423828125;2.62999999335989;264;1 A
26.6808319326374;0.599609375;0.2283935546875;2.63999999333464;265;1 A
26.6908319326121;0.599609375;0.22900390625;2.64999999330939;266;1 A
26.7008319325869;0.599639892578125;0.22943115234375;2.65999999328415;267;1 A
26.7108319325616;0.599609375;0.2288818359375;2.6699999932589;268;1 A
26.7208319325364;0.59954833984375;0.229034423828125;2.67999999323365;269;1 A
26.7308319325111;0.59954833984375;0.228973388671875;2.6899999932084;270;1 A
26.7408319324859;0.599578857421875;0.22955322265625;2.69999999318316;271;1 A
26.7508319324606;0.59954833984375;0.2296142578125;2.70999999315791;272;1 A
26.7608319324354;0.59954833984375;0.2298583984375;2.71999999313266;273;1 A
26.7708319324101;0.59954833984375;0.229827880859375;2.72999999310741;274;1 A
26.7808319323849;0.59954833984375;0.230255126953125;2.73999999308217;275;1 A
26.7908319323597;0.599639892578125;0.231842041015625;2.74999999305692;276;1 A
26.8008319323344;0.59954833984375;0.232025146484375;2.75999999303167;277;1 A
26.8108319323092;0.599578857421875;0.233062744140625;2.76999999300642;278;1 A
26.8208319322839;0.599609375;0.2335205078125;2.77999999298117;279;1 A
26.8308319322587;0.59967041015625;0.233123779296875;2.78999999295593;280;1 A
26.8408319322334;0.599639892578125;0.233245849609375;2.79999999293068;281;1 A
26.8508319322082;0.59954833984375;0.23291015625;2.80999999290543;282;1 A
26.8608319321829;0.599517822265625;0.2322998046875;2.81999999288018;283;1 A
26.8708319321577;0.599517822265625;0.23126220703125;2.82999999285494;284;1 A
26.8808319321324;0.599517822265625;0.2314453125;2.83999999282969;285;1 A
26.8908319321072;0.5994873046875;0.2303466796875;2.84999999280444;286;1 A
26.9008319320819;0.599578857421875;0.22967529296875;2.85999999277919;287;1 A
26.9108319320567;0.59954833984375;0.2288818359375;2.86999999275395;288;1 A
26.9208319320314;0.599578857421875;0.227386474609375;2.8799999927287;289;1 A
26.9308319320062;0.599609375;0.2271728515625;2.88999999270345;290;1 A
26.9408319319809;0.59967041015625;0.226806640625;2.8999999926782;291;1 A
26.9508319319557;0.599761962890625;0.2261962890625;2.90999999265296;292;1 A
26.9608319319304;0.599578857421875;0.226654052734375;2.91999999262771;293;1 A
26.9708319319052;0.59954833984375;0.226409912109375;2.92999999260246;294;1 A
26.9808319318799;0.599578857421875;0.227203369140625;2.93999999257721;295;1 A
26.9908319318547;0.59954833984375;0.22760009765625;2.94999999255197;296;1 A
27.0008319318295;0.5994873046875;0.2279052734375;2.95999999252672;297;1 A
27.0108319318042;0.59954833984375;0.228240966796875;2.96999999250147;298;1 A
27.020831931779;0.59954833984375;0.228729248046875;2.97999999247622;299;1 A
27.0308319317537;0.599609375;0.2298583984375;2.98999999245098;300;1 A
27.0408319317285;0.599578857421875;0.229400634765625;2.99999999242573;301;1 A
27.0508319317032;0.599578857421875;0.230194091796875;3.00999999240048;302;1 A
27.060831931678;0.599578857421875;0.230377197265625;3.01999999237523;303;1 A
27.0708319316527;0.59967041015625;0.230377197265625;3.02999999234999;304;1 A
27.0808319316275;0.599639892578125;0.23114013671875;3.03999999232474;305;1 A
27.0908319316022;0.59954833984375;0.230804443359375;3.04999999229949;306;1 A
27.100831931577;0.599578857421875;0.230926513671875;3.05999999227424;307;1 A
27.1108319315517;0.599578857421875;0.23089599609375;3.069999992249;308;1 A
27.1208319315265;0.59954833984375;0.230926513671875;3.07999999222375;309;1 A
27.1308319315012;0.5994873046875;0.230255126953125;3.0899999921985;310;1 A
27.140831931476;0.599578857421875;0.2296142578125;3.09999999217325;311;1 A
27.1508319314507;0.599578857421875;0.229278564453125;3.109999992148;312;1 A
27.1608319314255;0.599609375;0.228424072265625;3.11999999212276;313;1 A
27.1708319314002;0.599609375;0.22943115234375;3.12999999209751;314;1 A
27.180831931375;0.599700927734375;0.2308349609375;3.13999999207226;315;1 A
27.1908319313497;0.59967041015625;0.2313232421875;3.14999999204701;316;1 A
27.2008319313245;0.599517822265625;0.232025146484375;3.15999999202177;317;1 A
27.2108319312993;0.599609375;0.231414794921875;3.16999999199652;318;1 A
27.220831931274;0.599609375;0.23126220703125;3.17999999197127;319;1 A
27.2308319312488;0.599578857421875;0.23065185546875;3.18999999194602;320;1 A
27.2408319312235;0.59954833984375;0.229522705078125;3.19999999192078;321;1 A
27.2508319311983;0.599578857421875;0.228485107421875;3.20999999189553;322;1 A
27.260831931173;0.59954833984375;0.227752685546875;3.21999999187028;323;1 A
27.2708319311478;0.599639892578125;0.22772216796875;3.22999999184503;324;1 A
27.2808319311225;0.599609375;0.227020263671875;3.23999999181979;325;1 A
27.2908319310973;0.59954833984375;0.227142333984375;3.24999999179454;326;1 A
27.300831931072;0.599609375;0.22686767578125;3.25999999176929;327;1 A
27.3108319310468;0.59967041015625;0.226654052734375;3.26999999174404;328;1 A
27.3208319310215;0.59967041015625;0.22705078125;3.2799999917188;329;1 A
27.3308319309963;0.599578857421875;0.226409912109375;3.28999999169355;330;1 A
27.340831930971;0.599578857421875;0.226287841796875;3.2999999916683;331;1 A
27.3508319309458;0.59954833984375;0.226104736328125;3.30999999164305;332;1 A
27.3608319309205;0.599578857421875;0.226043701171875;3.31999999161781;333;1 A
27.3708319308953;0.599578857421875;0.225677490234375;3.32999999159256;334;1 A
27.38083193087;0.599578857421875;0.225372314453125;3.33999999156731;335;1 A
27.3908319308448;0.599456787109375;0.225341796875;3.34999999154206;336;1 A
27.4008319308195;0.599639892578125;0.22503662109375;3.35999999151682;337;1 A
27.4108319307943;0.599609375;0.2265625;3.36999999149157;338;1 A
27.4208319307691;0.599609375;0.22711181640625;3.37999999146632;339;1 A
27.4308319307438;0.5997314453125;0.22747802734375;3.38999999144107;340;1 A
27.4408319307186;0.599609375;0.228759765625;3.39999999141583;341;1 A
27.4508319306933;0.599639892578125;0.229217529296875;3.40999999139058;342;1 A
27.4608319306681;0.599639892578125;0.230560302734375;3.41999999136533;343;1 A
27.4708319306428;0.599578857421875;0.231292724609375;3.42999999134008;344;1 A
27.4808319306176;0.599639892578125;0.2315673828125;3.43999999131483;345;1 A
27.4908319305923;0.59954833984375;0.23114013671875;3.44999999128959;346;1 A
27.5008319305671;0.5994873046875;0.230621337890625;3.45999999126434;347;1 A
27.5108319305418;0.599578857421875;0.230438232421875;3.46999999123909;348;1 A
27.5208319305166;0.599578857421875;0.22955322265625;3.47999999121384;349;1 A
27.5308319304913;0.599578857421875;0.229278564453125;3.4899999911886;350;1 A
27.5408319304661;0.599639892578125;0.228118896484375;3.49999999116335;351;1 A
27.5508319304408;0.59967041015625;0.22747802734375;3.5099999911381;352;1 A
27.5608319304156;0.599578857421875;0.227813720703125;3.51999999111285;353;1 A
27.5708319303903;0.599517822265625;0.227142333984375;3.52999999108761;354;1 A
27.5808319303651;0.599609375;0.227630615234375;3.53999999106236;355;1 A
27.5908319303398;0.599578857421875;0.2283935546875;3.54999999103711;356;1 A
27.6008319303146;0.599609375;0.22918701171875;3.55999999101186;357;1 A
27.6108319302894;0.5994873046875;0.230255126953125;3.56999999098662;358;1 A
27.6208319302641;0.599578857421875;0.23101806640625;3.57999999096137;359;1 A
27.6308319302389;0.599517822265625;0.23138427734375;3.58999999093612;360;1 A
27.6408319302136;0.599578857421875;0.23138427734375;3.59999999091087;361;1 A
27.6508319301884;0.599609375;0.232818603515625;3.60999999088563;362;1 A
27.6608319301631;0.599609375;0.232940673828125;3.61999999086038;363;1 A
27.6708319301379;0.599700927734375;0.23284912109375;3.62999999083513;364;1 A
27.6808319301126;0.599578857421875;0.23382568359375;3.63999999080988;365;1 A
27.6908319300874;0.599639892578125;0.233734130859375;3.64999999078464;366;1 A
27.7008319300621;0.599639892578125;0.234344482421875;3.65999999075939;367;1 A
27.7108319300369;0.599578857421875;0.23382568359375;3.66999999073414;368;1 A
27.7208319300116;0.59954833984375;0.23260498046875;3.67999999070889;369;1 A
27.7308319299864;0.59954833984375;0.231353759765625;3.68999999068365;370;1 A
27.7408319299611;0.599578857421875;0.22991943359375;3.6999999906584;371;1 A
27.7508319299359;0.59942626953125;0.2288818359375;3.70999999063315;372;1 A
27.7608319299106;0.599578857421875;0.22760009765625;3.7199999906079;373;1 A
27.7708319298854;0.59954833984375;0.227203369140625;3.72999999058266;374;1 A
27.7808319298601;0.599609375;0.226104736328125;3.73999999055741;375;1 A
27.7908319298349;0.59967041015625;0.225830078125;3.74999999053216;376;1 A
27.8008319298096;0.599639892578125;0.226531982421875;3.75999999050691;377;1 A
27.8108319297844;0.59954833984375;0.2261962890625;3.76999999048167;378;1 A
27.8208319297592;0.599639892578125;0.227081298828125;3.77999999045642;379;1 A
27.8308319297339;0.59954833984375;0.227508544921875;3.78999999043117;380;1 A
27.8408319297087;0.59967041015625;0.2275390625;3.79999999040592;381;1 A
27.8508319296834;0.599456787109375;0.227386474609375;3.80999999038067;382;1 A
27.8608319296582;0.5994873046875;0.2264404296875;3.81999999035543;383;1 A
27.8708319296329;0.5994873046875;0.22613525390625;3.82999999033018;384;1 A
27.8808319296077;0.599578857421875;0.225677490234375;3.83999999030493;385;1 A
27.8908319295824;0.599578857421875;0.226318359375;3.84999999027968;386;1 A
27.9008319295572;0.599578857421875;0.2261962890625;3.85999999025444;387;1 A
27.9108319295319;0.599700927734375;0.22613525390625;3.86999999022919;388;1 A
27.9208319295067;0.59967041015625;0.22637939453125;3.87999999020394;389;1 A
27.9308319294814;0.599609375;0.225677490234375;3.88999999017869;390;1 A
27.9408319294562;0.599609375;0.22650146484375;3.89999999015345;391;1 A
27.9508319294309;0.59954833984375;0.2265625;3.9099999901282;392;1 A
27.9608319294057;0.599609375;0.22637939453125;3.91999999010295;393;1 A
27.9708319293804;0.599609375;0.2266845703125;3.9299999900777;394;1 A
27.9808319293552;0.599609375;0.2269287109375;3.93999999005246;395;1 A
27.9908319293299;0.5994873046875;0.22772216796875;3.94999999002721;396;1 A
28.0008319293047;0.59954833984375;0.228118896484375;3.95999999000196;397;1 A
28.0108319292794;0.59954833984375;0.22894287109375;3.96999998997671;398;1 A
28.0208319292542;0.599609375;0.22900390625;3.97999998995147;399;1 A
28.030831929229;0.599700927734375;0.230010986328125;3.98999998992622;400;1 A
28.0408319292037;0.599609375;0.231231689453125;3.99999998990097;401;1 A
28.0508319291785;0.599639892578125;0.231048583984375;4.00999998987572;402;1 A
28.0608319291532;0.599639892578125;0.232208251953125;4.01999998985048;403;1 A
28.070831929128;0.599578857421875;0.232421875;4.02999998982523;404;1 A
28.0808319291027;0.599639892578125;0.23297119140625;4.03999998979998;405;1 A
28.0908319290775;0.599578857421875;0.2333984375;4.04999998977473;406;1 A
28.1008319290522;0.599578857421875;0.23291015625;4.05999998974949;407;1 A
28.110831929027;0.59954833984375;0.233123779296875;4.06999998972424;408;1 A
28.1208319290017;0.599609375;0.2333984375;4.07999998969899;409;1 A
28.1308319289765;0.599578857421875;0.234619140625;4.08999998967374;410;1 A
28.1408319289512;0.59954833984375;0.235015869140625;4.0999999896485;411;1 A
28.150831928926;0.59967041015625;0.23529052734375;4.10999998962325;412;1 A
28.1608319289007;0.599578857421875;0.235626220703125;4.119999989598;413;1 A
28.1708319288755;0.599578857421875;0.2353515625;4.12999998957275;414;1 A
28.1808319288502;0.599578857421875;0.236724853515625;4.1399999895475;415;1 A
28.190831928825;0.59954833984375;0.2371826171875;4.14999998952226;416;1 A
28.2008319287997;0.599578857421875;0.23724365234375;4.15999998949701;417;1 A
28.2108319287745;0.59967041015625;0.237548828125;4.16999998947176;418;1 A
28.2208319287492;0.5994873046875;0.23699951171875;4.17999998944651;419;1 A
28.230831928724;0.599456787109375;0.236572265625;4.18999998942127;420;1 A
28.2408319286988;0.59954833984375;0.23590087890625;4.19999998939602;421;1 A
28.2508319286735;0.599517822265625;0.235443115234375;4.20999998937077;422;1 A
28.2608319286483;0.599578857421875;0.234405517578125;4.21999998934552;423;1 A
28.270831928623;0.59967041015625;0.23394775390625;4.22999998932028;424;1 A
28.2808319285978;0.599639892578125;0.233642578125;4.23999998929503;425;1 A
28.2908319285725;0.59954833984375;0.23248291015625;4.24999998926978;426;1 A
28.3008319285473;0.599639892578125;0.232757568359375;4.25999998924453;427;1 A
28.310831928522;0.599639892578125;0.232025146484375;4.26999998921929;428;1 A
28.3208319284968;0.599578857421875;0.231719970703125;4.27999998919404;429;1 A
28.3308319284715;0.599578857421875;0.2318115234375;4.28999998916879;430;1 A
28.3408319284463;0.59954833984375;0.231109619140625;4.29999998914354;431;1 A
28.350831928421;0.599578857421875;0.231048583984375;4.3099999891183;432;1 A
28.3608319283958;0.59954833984375;0.2305908203125;4.31999998909305;433;1 A
28.3708319283705;0.599517822265625;0.2305908203125;4.3299999890678;434;1 A
28.3808319283453;0.599578857421875;0.229888916015625;4.33999998904255;435;1 A
28.39083192832;0.5997314453125;0.22998046875;4.34999998901731;436;1 A
28.4008319282948;0.599578857421875;0.229705810546875;4.35999998899206;437;1 A
28.4108319282695;0.599578857421875;0.229034423828125;4.36999998896681;438;1 A
28.4208319282443;0.599578857421875;0.229949951171875;4.37999998894156;439;1 A
28.430831928219;0.599639892578125;0.229461669921875;4.38999998891632;440;1 A
28.4408319281938;0.599578857421875;0.229034423828125;4.39999998889107;441;1 A
28.4508319281686;0.599609375;0.229736328125;4.40999998886582;442;1 A
28.4608319281433;0.59954833984375;0.229888916015625;4.41999998884057;443;1 A
28.4708319281181;0.599517822265625;0.230316162109375;4.42999998881533;444;1 A
28.4808319280928;0.599609375;0.229766845703125;4.43999998879008;445;1 A
28.4908319280676;0.5994873046875;0.2291259765625;4.44999998876483;446;1 A
28.5008319280423;0.59954833984375;0.228057861328125;4.45999998873958;447;1 A
28.5108319280171;0.599700927734375;0.227386474609375;4.46999998871433;448;1 A
28.5208319279918;0.599609375;0.22686767578125;4.47999998868909;449;1 A
28.5308319279666;0.599578857421875;0.225860595703125;4.48999998866384;450;1 A
28.5408319279413;0.599609375;0.2261962890625;4.49999998863859;451;1 A
28.5508319279161;0.599639892578125;0.22607421875;4.50999998861334;452;1 A
28.5608319278908;0.599609375;0.22662353515625;4.5199999885881;453;1 A
28.5708319278656;0.599578857421875;0.227325439453125;4.52999998856285;454;1 A
28.5808319278403;0.599639892578125;0.226959228515625;4.5399999885376;455;1 A
28.5908319278151;0.599609375;0.2271728515625;4.54999998851235;456;1 A
28.6008319277898;0.59954833984375;0.2269287109375;4.55999998848711;457;1 A
28.6108319277646;0.59954833984375;0.226898193359375;4.56999998846186;458;1 A
28.6208319277393;0.599578857421875;0.2261962890625;4.57999998843661;459;1 A
28.6308319277141;0.5997314453125;0.2257080078125;4.58999998841136;460;1 A
28.6408319276889;0.59954833984375;0.225494384765625;4.59999998838612;461;1 A
28.6508319276636;0.59954833984375;0.225494384765625;4.60999998836087;462;1 A
28.6608319276384;0.59954833984375;0.22705078125;4.61999998833562;463;1 A
28.6708319276131;0.59954833984375;0.227630615234375;4.62999998831037;464;1 A
28.6808319275879;0.59954833984375;0.227691650390625;4.63999998828513;465;1 A
28.6908319275626;0.599609375;0.228424072265625;4.64999998825988;466;1 A
28.7008319275374;0.59954833984375;0.228271484375;4.65999998823463;467;1 A
28.7108319275121;0.59954833984375;0.22869873046875;4.66999998820938;468;1 A
28.7208319274869;0.59954833984375;0.229766845703125;4.67999998818414;469;1 A
28.7308319274616;0.59954833984375;0.229217529296875;4.68999998815889;470;1 A
28.7408319274364;0.599517822265625;0.22869873046875;4.69999998813364;471;1 A
28.7508319274111;0.599700927734375;0.229034423828125;4.70999998810839;472;1 A
28.7608319273859;0.599578857421875;0.22930908203125;4.71999998808315;473;1 A
28.7708319273606;0.599609375;0.2286376953125;4.7299999880579;474;1 A
28.7808319273354;0.599639892578125;0.228424072265625;4.73999998803265;475;1 A
28.7908319273101;0.599639892578125;0.2274169921875;4.7499999880074;476;1 A
28.8008319272849;0.599609375;0.227630615234375;4.75999998798216;477;1 A
28.8108319272596;0.599578857421875;0.228515625;4.76999998795691;478;1 A
28.8208319272344;0.599578857421875;0.22900390625;4.77999998793166;479;1 A
28.8308319272091;0.599609375;0.228302001953125;4.78999998790641;480;1 A
28.8408319271839;0.599609375;0.227569580078125;4.79999998788116;481;1 A
28.8508319271587;0.599578857421875;0.227752685546875;4.80999998785592;482;1 A
28.8608319271334;0.59954833984375;0.22784423828125;4.81999998783067;483;1 A
28.8708319271082;0.59979248046875;0.2279052734375;4.82999998780542;484;1 A
28.8808319270829;0.59954833984375;0.227874755859375;4.83999998778017;485;1 A
28.8908319270577;0.599609375;0.227874755859375;4.84999998775493;486;1 A
28.9008319270324;0.599609375;0.229278564453125;4.85999998772968;487;1 A
28.9108319270072;0.59954833984375;0.229339599609375;4.86999998770443;488;1 A
28.9208319269819;0.59954833984375;0.229583740234375;4.87999998767918;489;1 A
28.9308319269567;0.599639892578125;0.2298583984375;4.88999998765394;490;1 A
28.9408319269314;0.599609375;0.22930908203125;4.89999998762869;491;1 A
28.9508319269062;0.59954833984375;0.229583740234375;4.90999998760344;492;1 A
28.9608319268809;0.599578857421875;0.229034423828125;4.91999998757819;493;1 A
28.9708319268557;0.59954833984375;0.228057861328125;4.92999998755295;494;1 A
28.9808319268304;0.59954833984375;0.2274169921875;4.9399999875277;495;1 A
28.9908319268052;0.599761962890625;0.227142333984375;4.94999998750245;496;1 A
29.0008319267799;0.599578857421875;0.227203369140625;4.9599999874772;497;1 A
29.0108319267547;0.599609375;0.227752685546875;4.96999998745196;498;1 A
29.0208319267294;0.59954833984375;0.228759765625;4.97999998742671;499;1 A
29.0308319267042;0.599639892578125;0.22796630859375;4.98999998740146;500;1 A
29.0408319266789;0.599578857421875;0.228668212890625;4.99999998737621;501;1 A
29.0508319266537;0.599639892578125;0.229644775390625;5.00999998735097;502;1 A
29.0608319266285;0.59954833984375;0.22955322265625;5.01999998732572;503;1 A
29.0708319266032;0.599578857421875;0.230743408203125;5.02999998730047;504;1 A
29.080831926578;0.599609375;0.23077392578125;5.03999998727522;505;1 A
29.0908319265527;0.599578857421875;0.231170654296875;5.04999998724998;506;1 A
29.1008319265275;0.599517822265625;0.231536865234375;5.05999998722473;507;1 A
29.1108319265022;0.599700927734375;0.231292724609375;5.06999998719948;508;1 A
29.120831926477;0.599517822265625;0.231414794921875;5.07999998717423;509;1 A
29.1308319264517;0.599609375;0.23150634765625;5.08999998714899;510;1 A
29.1408319264265;0.599578857421875;0.232666015625;5.09999998712374;511;1 A
29.1508319264012;0.599578857421875;0.232879638671875;5.10999998709849;512;1 A
29.160831926376;0.59954833984375;0.23333740234375;5.11999998707324;513;1 A
29.1708319263507;0.599639892578125;0.233795166015625;5.129999987048;514;1 A
29.1808319263255;0.599639892578125;0.23370361328125;5.13999998702275;515;1 A
29.1908319263002;0.599578857421875;0.234375;5.1499999869975;516;1 A
29.200831926275;0.59954833984375;0.233795166015625;5.15999998697225;517;1 A
29.2108319262497;0.599609375;0.23321533203125;5.169999986947;518;1 A
29.2208319262245;0.599578857421875;0.232757568359375;5.17999998692176;519;1 A
29.2308319261992;0.5997314453125;0.232391357421875;5.18999998689651;520;1 A
29.240831926174;0.59954833984375;0.23199462890625;5.19999998687126;521;1 A
29.2508319261487;0.599609375;0.23126220703125;5.20999998684601;522;1 A
29.2608319261235;0.599609375;0.23126220703125;5.21999998682077;523;1 A
29.2708319260983;0.599639892578125;0.230743408203125;5.22999998679552;524;1 A
29.280831926073;0.59954833984375;0.231689453125;5.23999998677027;525;1 A
29.2908319260478;0.599578857421875;0.23248291015625;5.24999998674502;526;1 A
29.3008319260225;0.599578857421875;0.232147216796875;5.25999998671978;527;1 A
29.3108319259973;0.599639892578125;0.232879638671875;5.26999998669453;528;1 A
29.320831925972;0.59954833984375;0.23248291015625;5.27999998666928;529;1 A
29.3308319259468;0.599578857421875;0.232757568359375;5.28999998664403;530;1 A
29.3408319259215;0.5994873046875;0.233123779296875;5.29999998661879;531;1 A
29.3508319258963;0.5997314453125;0.232818603515625;5.30999998659354;532;1 A
29.360831925871;0.59954833984375;0.232635498046875;5.31999998656829;533;1 A
29.3708319258458;0.59954833984375;0.232330322265625;5.32999998654304;534;1 A
29.3808319258205;0.5994873046875;0.23223876953125;5.3399999865178;535;1 A
29.3908319257953;0.59954833984375;0.231048583984375;5.34999998649255;536;1 A
29.40083192577;0.599609375;0.230377197265625;5.3599999864673;537;1 A
29.4108319257448;0.599639892578125;0.229461669921875;5.36999998644205;538;1 A
29.4208319257195;0.59954833984375;0.228515625;5.37999998641681;539;1 A
29.4308319256943;0.599609375;0.22906494140625;5.38999998639156;540;1 A
29.440831925669;0.59954833984375;0.228485107421875;5.39999998636631;541;1 A
29.4508319256438;0.599609375;0.228240966796875;5.40999998634106;542;1 A
29.4608319256185;0.599517822265625;0.228302001953125;5.41999998631582;543;1 A
29.4708319255933;0.59967041015625;0.22821044921875;5.42999998629057;544;1 A
29.4808319255681;0.599578857421875;0.228271484375;5.43999998626532;545;1 A
29.4908319255428;0.599609375;0.227996826171875;5.44999998624007;546;1 A
29.5008319255176;0.599517822265625;0.22833251953125;5.45999998621483;547;1 A
29.5108319254923;0.59954833984375;0.227874755859375;5.46999998618958;548;1 A
29.5208319254671;0.599578857421875;0.228485107421875;5.47999998616433;549;1 A
29.5308319254418;0.599578857421875;0.2283935546875;5.48999998613908;550;1 A
29.5408319254166;0.599609375;0.227508544921875;5.49999998611383;551;1 A
29.5508319253913;0.599578857421875;0.227386474609375;5.50999998608859;552;1 A
29.5608319253661;0.599578857421875;0.226409912109375;5.51999998606334;553;1 A
29.5708319253408;0.599609375;0.226226806640625;5.52999998603809;554;1 A
29.5808319253156;0.599456787109375;0.22589111328125;5.53999998601284;555;1 A
29.5908319252903;0.599700927734375;0.225006103515625;5.5499999859876;556;1 A
29.6008319252651;0.59954833984375;0.22467041015625;5.55999998596235;557;1 A
29.6108319252398;0.599639892578125;0.224456787109375;5.5699999859371;558;1 A
29.6208319252146;0.599517822265625;0.224853515625;5.57999998591185;559;1 A
29.6308319251893;0.59967041015625;0.22454833984375;5.58999998588661;560;1 A
29.6408319251641;0.59954833984375;0.224609375;5.59999998586136;561;1 A
29.6508319251388;0.599639892578125;0.22418212890625;5.60999998583611;562;1 A
29.6608319251136;0.599578857421875;0.223724365234375;5.61999998581086;563;1 A
29.6708319250884;0.599609375;0.22479248046875;5.62999998578562;564;1 A
29.6808319250631;0.599609375;0.22479248046875;5.63999998576037;565;1 A
29.6908319250379;0.599609375;0.2259521484375;5.64999998573512;566;1 A
29.7008319250126;0.599517822265625;0.227386474609375;5.65999998570987;567;1 A
29.7108319249874;0.599700927734375;0.228424072265625;5.66999998568463;568;1 A
29.7208319249621;0.59954833984375;0.22967529296875;5.67999998565938;569;1 A
29.7308319249369;0.599609375;0.22991943359375;5.68999998563413;570;1 A
29.7408319249116;0.5994873046875;0.2301025390625;5.69999998560888;571;1 A
29.7508319248864;0.599578857421875;0.229766845703125;5.70999998558364;572;1 A
29.7608319248611;0.59954833984375;0.230224609375;5.71999998555839;573;1 A
29.7708319248359;0.59954833984375;0.230194091796875;5.72999998553314;574;1 A
29.7808319248106;0.599578857421875;0.229522705078125;5.73999998550789;575;1 A
29.7908319247854;0.59954833984375;0.2296142578125;5.74999998548265;576;1 A
29.8008319247601;0.59954833984375;0.22869873046875;5.7599999854574;577;1 A
29.8108319247349;0.599639892578125;0.228790283203125;5.76999998543215;578;1 A
29.8208319247096;0.599609375;0.228729248046875;5.7799999854069;579;1 A
29.8308319246844;0.599700927734375;0.227813720703125;5.78999998538166;580;1 A
29.8408319246591;0.599517822265625;0.227081298828125;5.79999998535641;581;1 A
29.8508319246339;0.59967041015625;0.226043701171875;5.80999998533116;582;1 A
29.8608319246086;0.599517822265625;0.225341796875;5.81999998530591;583;1 A
29.8708319245834;0.599517822265625;0.223968505859375;5.82999998528066;584;1 A
29.8808319245582;0.5994873046875;0.223297119140625;5.83999998525542;585;1 A
29.8908319245329;0.599639892578125;0.222869873046875;5.84999998523017;586;1 A
29.9008319245077;0.599639892578125;0.222900390625;5.85999998520492;587;1 A
29.9108319244824;0.5994873046875;0.224334716796875;5.86999998517967;588;1 A
29.9208319244572;0.599578857421875;0.224029541015625;5.87999998515443;589;1 A
29.9308319244319;0.599639892578125;0.224151611328125;5.88999998512918;590;1 A
29.9408319244067;0.599609375;0.224029541015625;5.89999998510393;591;1 A
29.9508319243814;0.599700927734375;0.2236328125;5.90999998507868;592;1 A
29.9608319243562;0.599578857421875;0.22406005859375;5.91999998505344;593;1 A
29.9708319243309;0.59954833984375;0.223358154296875;5.92999998502819;594;1 A
29.9808319243057;0.59954833984375;0.222900390625;5.93999998500294;595;1 A
29.9908319242804;0.59954833984375;0.222259521484375;5.94999998497769;596;1 A
30.0008319242552;0.59954833984375;0.222442626953125;5.95999998495245;597;1 A
30.0108319242299;0.59954833984375;0.22210693359375;5.9699999849272;598;1 A
30.0208319242047;0.599609375;0.221649169921875;5.97999998490195;599;1 A
30.0308319241794;0.599578857421875;0.22210693359375;5.9899999848767;600;1 A
30.0408319241542;0.599517822265625;0.2216796875;5.99999998485146;601;1 A
30.0508319241289;0.59954833984375;0.222747802734375;6.00999998482621;602;1 A
30.0608319241037;0.599578857421875;0.223480224609375;6.01999998480096;603;1 A
30.0708319240784;0.599639892578125;0.22320556640625;6.02999998477571;604;1 A
30.0808319240532;0.59954833984375;0.22393798828125;6.03999998475047;605;1 A
30.090831924028;0.59954833984375;0.2247314453125;6.04999998472522;606;1 A
30.1008319240027;0.599517822265625;0.22601318359375;6.05999998469997;607;1 A
30.1108319239775;0.600006103515625;0.226593017578125;6.06999998467472;608;1 A
30.1208319239522;0.59954833984375;0.227020263671875;6.07999998464948;609;1 A
30.130831923927;0.599578857421875;0.22711181640625;6.08999998462423;610;1 A
30.1408319239017;0.599578857421875;0.227508544921875;6.09999998459898;611;1 A
30.1508319238765;0.599578857421875;0.228790283203125;6.10999998457373;612;1 A
30.1608319238512;0.599578857421875;0.228546142578125;6.11999998454849;613;1 A
30.170831923826;0.599609375;0.22918701171875;6.12999998452324;614;1 A
30.1808319238007;0.599578857421875;0.22900390625;6.13999998449799;615;1 A
30.1908319237755;0.599700927734375;0.22882080078125;6.14999998447274;616;1 A
30.2008319237502;0.599609375;0.229248046875;6.1599999844475;617;1 A
30.210831923725;0.599609375;0.228424072265625;6.16999998442225;618;1 A
30.2208319236997;0.599517822265625;0.2275390625;6.179999984397;619;1 A
30.2308319236745;0.59954833984375;0.226165771484375;6.18999998437175;620;1 A
30.2408319236492;0.599578857421875;0.225433349609375;6.1999999843465;621;1 A
30.250831923624;0.599578857421875;0.22479248046875;6.20999998432126;622;1 A
30.2608319235987;0.599578857421875;0.224334716796875;6.21999998429601;623;1 A
30.2708319235735;0.599578857421875;0.224395751953125;6.22999998427076;624;1 A
30.2808319235482;0.59954833984375;0.2235107421875;6.23999998424551;625;1 A
30.290831923523;0.59954833984375;0.2239990234375;6.24999998422027;626;1 A
30.3008319234978;0.599609375;0.22406005859375;6.25999998419502;627;1 A
30.3108319234725;0.59967041015625;0.223602294921875;6.26999998416977;628;1 A
30.3208319234473;0.59954833984375;0.22442626953125;6.27999998414452;629;1 A
30.330831923422;0.59967041015625;0.224822998046875;6.28999998411928;630;1 A
30.3408319233968;0.5994873046875;0.225830078125;6.29999998409403;631;1 A
30.3508319233715;0.59979248046875;0.2264404296875;6.30999998406878;632;1 A
30.3608319233463;0.59954833984375;0.2264404296875;6.31999998404353;633;1 A
30.370831923321;0.599578857421875;0.225921630859375;6.32999998401829;634;1 A
30.3808319232958;0.599578857421875;0.225494384765625;6.33999998399304;635;1 A
30.3908319232705;0.59954833984375;0.225799560546875;6.34999998396779;636;1 A
30.4008319232453;0.599578857421875;0.224945068359375;6.35999998394254;637;1 A
30.41083192322;0.599609375;0.225006103515625;6.3699999839173;638;1 A
30.4208319231948;0.599609375;0.224517822265625;6.37999998389205;639;1 A
30.4308319231695;0.599700927734375;0.22412109375;6.3899999838668;640;1 A
30.4408319231443;0.599609375;0.224456787109375;6.39999998384155;641;1 A
30.450831923119;0.59954833984375;0.223907470703125;6.40999998381631;642;1 A
30.4608319230938;0.599609375;0.2239990234375;6.41999998379106;643;1 A
30.4708319230685;0.59954833984375;0.2239990234375;6.42999998376581;644;1 A
30.4808319230433;0.59954833984375;0.22442626953125;6.43999998374056;645;1 A
30.490831923018;0.59954833984375;0.224151611328125;6.44999998371532;646;1 A
30.5008319229928;0.599578857421875;0.223846435546875;6.45999998369007;647;1 A
30.5108319229676;0.599578857421875;0.22393798828125;6.46999998366482;648;1 A
30.5208319229423;0.59954833984375;0.2232666015625;6.47999998363957;649;1 A
30.5308319229171;0.599578857421875;0.224334716796875;6.48999998361433;650;1 A
30.5408319228918;0.599578857421875;0.224578857421875;6.49999998358908;651;1 A
30.5508319228666;0.599639892578125;0.224456787109375;6.50999998356383;652;1 A
30.5608319228413;0.599578857421875;0.2257080078125;6.51999998353858;653;1 A
30.5708319228161;0.59954833984375;0.226226806640625;6.52999998351333;654;1 A
30.5808319227908;0.599517822265625;0.2279052734375;6.53999998348809;655;1 A
30.5908319227656;0.600006103515625;0.229461669921875;6.54999998346284;656;1 A
30.6008319227403;0.59954833984375;0.23046875;6.55999998343759;657;1 A
30.6108319227151;0.599609375;0.231536865234375;6.56999998341234;658;1 A
30.6208319226898;0.59954833984375;0.23223876953125;6.5799999833871;659;1 A
30.6308319226646;0.599517822265625;0.233123779296875;6.58999998336185;660;1 A
30.6408319226393;0.599578857421875;0.232421875;6.5999999833366;661;1 A
30.6508319226141;0.599609375;0.2320556640625;6.60999998331135;662;1 A
30.6608319225888;0.599578857421875;0.230865478515625;6.61999998328611;663;1 A
30.6708319225636;0.59967041015625;0.22998046875;6.62999998326086;664;1 A
30.6808319225383;0.599517822265625;0.229888916015625;6.63999998323561;665;1 A
30.6908319225131;0.599578857421875;0.22894287109375;6.64999998321036;666;1 A
30.7008319224879;0.599609375;0.229034423828125;6.65999998318512;667;1 A
30.7108319224626;0.599578857421875;0.229583740234375;6.66999998315987;668;1 A
30.7208319224374;0.59954833984375;0.230316162109375;6.67999998313462;669;1 A
30.7308319224121;0.59954833984375;0.230712890625;6.68999998310937;670;1 A
30.7408319223869;0.599639892578125;0.231048583984375;6.69999998308413;671;1 A
30.7508319223616;0.599700927734375;0.2314453125;6.70999998305888;672;1 A
30.7608319223364;0.59954833984375;0.230682373046875;6.71999998303363;673;1 A
30.7708319223111;0.599578857421875;0.23095703125;6.72999998300838;674;1 A
30.7808319222859;0.59967041015625;0.23028564453125;6.73999998298314;675;1 A
30.7908319222606;0.59954833984375;0.2291259765625;6.74999998295789;676;1 A
30.8008319222354;0.59954833984375;0.228851318359375;6.75999998293264;677;1 A
30.8108319222101;0.599609375;0.2275390625;6.76999998290739;678;1 A
30.8208319221849;0.59954833984375;0.227447509765625;6.77999998288215;679;1 A
30.8308319221596;0.599700927734375;0.22760009765625;6.7899999828569;680;1 A
30.8408319221344;0.5994873046875;0.227752685546875;6.79999998283165;681;1 A
30.8508319221091;0.599578857421875;0.228302001953125;6.8099999828064;682;1 A
30.8608319220839;0.599578857421875;0.22882080078125;6.81999998278116;683;1 A
30.8708319220586;0.59954833984375;0.229583740234375;6.82999998275591;684;1 A
30.8808319220334;0.599639892578125;0.229278564453125;6.83999998273066;685;1 A
30.8908319220081;0.59967041015625;0.2293701171875;6.84999998270541;686;1 A
30.9008319219829;0.599609375;0.228759765625;6.85999998268016;687;1 A
30.9108319219577;0.599639892578125;0.228912353515625;6.86999998265492;688;1 A
30.9208319219324;0.599639892578125;0.230194091796875;6.87999998262967;689;1 A
30.9308319219072;0.59967041015625;0.230255126953125;6.88999998260442;690;1 A
30.9408319218819;0.599578857421875;0.23065185546875;6.89999998257917;691;1 A
30.9508319218567;0.59954833984375;0.230926513671875;6.90999998255393;692;1 A
30.9608319218314;0.59954833984375;0.231292724609375;6.91999998252868;693;1 A
30.9708319218062;0.599609375;0.231689453125;6.92999998250343;694;1 A
30.9808319217809;0.59954833984375;0.231689453125;6.93999998247818;695;1 A
30.9908319217557;0.599639892578125;0.231964111328125;6.94999998245294;696;1 A
31.0008319217304;0.599578857421875;0.231781005859375;6.95999998242769;697;1 A
31.0108319217052;0.599578857421875;0.232757568359375;6.96999998240244;698;1 A
31.0208319216799;0.599639892578125;0.23284912109375;6.97999998237719;699;1 A
31.0308319216547;0.59954833984375;0.232574462890625;6.98999998235195;700;1 A
