Time (s);WE(1).Potential (V);WE(1).Current (A);Corrected time (s);Index;Current range
46.8290968817679;0.650360107421875;1.01806640625;0;1;1 A
46.8390968817426;0.64996337890625;0.73638916015625;0.00999999997475243;2;1 A
46.8490968817174;0.6497802734375;0.6085205078125;0.0199999999495049;3;1 A
46.8590968816922;0.649658203125;0.531005859375;0.0299999999242573;4;1 A
46.8690968816669;0.6495361328125;0.47674560546875;0.0399999998990097;5;1 A
46.8790968816417;0.64971923828125;0.436981201171875;0.0499999998737621;6;1 A
46.8890968816164;0.649658203125;0.40655517578125;0.0599999998485146;7;1 A
46.8990968815912;0.649627685546875;0.382568359375;0.069999999823267;8;1 A
46.9090968815659;0.64959716796875;0.3634033203125;0.0799999997980194;9;1 A
46.9190968815407;0.6495361328125;0.346160888671875;0.0899999997727718;10;1 A
46.9290968815154;0.64947509765625;0.33203125;0.0999999997475243;11;1 A
46.9390968814902;0.6495361328125;0.32061767578125;0.109999999722277;12;1 A
46.9490968814649;0.649566650390625;0.310546875;0.119999999697029;13;1 A
46.9590968814397;0.649566650390625;0.30230712890625;0.129999999671782;14;1 A
46.9690968814144;0.64959716796875;0.294189453125;0.139999999646534;15;1 A
46.9790968813892;0.649505615234375;0.286895751953125;0.149999999621286;16;1 A
46.9890968813639;0.649505615234375;0.280303955078125;0.159999999596039;17;1 A
46.9990968813387;0.649627685546875;0.274322509765625;0.169999999570791;18;1 A
47.0090968813134;0.649627685546875;0.268798828125;0.179999999545544;19;1 A
47.0190968812882;0.649566650390625;0.263946533203125;0.189999999520296;20;1 A
47.0290968812629;0.64959716796875;0.26055908203125;0.199999999495049;21;1 A
47.0390968812377;0.64959716796875;0.2568359375;0.209999999469801;22;1 A
47.0490968812124;0.649658203125;0.253875732421875;0.219999999444553;23;1 A
47.0590968811872;0.649505615234375;0.251251220703125;0.229999999419306;24;1 A
47.069096881162;0.6495361328125;0.24908447265625;0.239999999394058;25;1 A
47.0790968811367;0.649566650390625;0.2479248046875;0.249999999368811;26;1 A
47.0890968811115;0.64959716796875;0.24627685546875;0.259999999343563;27;1 A
47.0990968810862;0.64959716796875;0.24481201171875;0.269999999318316;28;1 A
47.109096881061;0.6495361328125;0.243133544921875;0.279999999293068;29;1 A
47.1190968810357;0.649566650390625;0.242156982421875;0.28999999926782;30;1 A
47.1290968810105;0.649658203125;0.240997314453125;0.299999999242573;31;1 A
47.1390968809852;0.64959716796875;0.23992919921875;0.309999999217325;32;1 A
47.14909688096;0.649627685546875;0.23883056640625;0.319999999192078;33;1 A
47.1590968809347;0.649566650390625;0.236572265625;0.32999999916683;34;1 A
47.1690968809095;0.649566650390625;0.23577880859375;0.339999999141583;35;1 A
47.1790968808842;0.649505615234375;0.23419189453125;0.349999999116335;36;1 A
47.189096880859;0.6495361328125;0.232452392578125;0.359999999091087;37;1 A
47.1990968808337;0.64947509765625;0.231842041015625;0.36999999906584;38;1 A
47.2090968808085;0.649566650390625;0.230712890625;0.379999999040592;39;1 A
47.2190968807832;0.64947509765625;0.230926513671875;0.389999999015345;40;1 A
47.229096880758;0.649505615234375;0.231292724609375;0.399999998990097;41;1 A
47.2390968807327;0.649566650390625;0.231658935546875;0.40999999896485;42;1 A
47.2490968807075;0.649627685546875;0.23162841796875;0.419999998939602;43;1 A
47.2590968806823;0.649505615234375;0.23138427734375;0.429999998914354;44;1 A
47.269096880657;0.649688720703125;0.231536865234375;0.439999998889107;45;1 A
47.2790968806318;0.649627685546875;0.230621337890625;0.449999998863859;46;1 A
47.2890968806065;0.649627685546875;0.230560302734375;0.459999998838612;47;1 A
47.2990968805813;0.649566650390625;0.230010986328125;0.469999998813364;48;1 A
47.309096880556;0.64947509765625;0.229644775390625;0.479999998788116;49;1 A
47.3190968805308;0.64959716796875;0.22998046875;0.489999998762869;50;1 A
47.3290968805055;0.6495361328125;0.22930908203125;0.499999998737621;51;1 A
47.3390968804803;0.6495361328125;0.22900390625;0.509999998712374;52;1 A
47.349096880455;0.6495361328125;0.228668212890625;0.519999998687126;53;1 A
47.3590968804298;0.649566650390625;0.228729248046875;0.529999998661879;54;1 A
47.3690968804045;0.649627685546875;0.22857666015625;0.539999998636631;55;1 A
47.3790968803793;0.649627685546875;0.228240966796875;0.549999998611383;56;1 A
47.389096880354;0.649658203125;0.22784423828125;0.559999998586136;57;1 A
47.3990968803288;0.6495361328125;0.22711181640625;0.569999998560888;58;1 A
47.4090968803035;0.6495361328125;0.22802734375;0.579999998535641;59;1 A
47.4190968802783;0.649627685546875;0.228240966796875;0.589999998510393;60;1 A
47.429096880253;0.649566650390625;0.228240966796875;0.599999998485146;61;1 A
47.4390968802278;0.649627685546875;0.2288818359375;0.609999998459898;62;1 A
47.4490968802025;0.64959716796875;0.22821044921875;0.61999999843465;63;1 A
47.4590968801773;0.649505615234375;0.22802734375;0.629999998409403;64;1 A
47.4690968801521;0.64947509765625;0.22723388671875;0.639999998384155;65;1 A
47.4790968801268;0.64959716796875;0.22637939453125;0.649999998358908;66;1 A
47.4890968801016;0.649566650390625;0.225738525390625;0.65999999833366;67;1 A
47.4990968800763;0.649505615234375;0.22576904296875;0.669999998308413;68;1 A
47.5090968800511;0.649627685546875;0.226409912109375;0.679999998283165;69;1 A
47.5190968800258;0.649566650390625;0.226287841796875;0.689999998257917;70;1 A
47.5290968800006;0.649688720703125;0.227325439453125;0.69999999823267;71;1 A
47.5390968799753;0.64959716796875;0.227447509765625;0.709999998207422;72;1 A
47.5490968799501;0.649505615234375;0.228271484375;0.719999998182175;73;1 A
47.5590968799248;0.649627685546875;0.229522705078125;0.729999998156927;74;1 A
47.5690968798996;0.64959716796875;0.22918701171875;0.73999999813168;75;1 A
47.5790968798743;0.649627685546875;0.22943115234375;0.749999998106432;76;1 A
47.5890968798491;0.649566650390625;0.229034423828125;0.759999998081184;77;1 A
47.5990968798238;0.64959716796875;0.22869873046875;0.769999998055937;78;1 A
47.6090968797986;0.649566650390625;0.2281494140625;0.779999998030689;79;1 A
47.6190968797733;0.64959716796875;0.227386474609375;0.789999998005442;80;1 A
47.6290968797481;0.649566650390625;0.226806640625;0.799999997980194;81;1 A
47.6390968797228;0.64959716796875;0.2257080078125;0.809999997954947;82;1 A
47.6490968796976;0.649566650390625;0.225982666015625;0.819999997929699;83;1 A
47.6590968796723;0.649627685546875;0.2252197265625;0.829999997904451;84;1 A
47.6690968796471;0.649566650390625;0.224761962890625;0.839999997879204;85;1 A
47.6790968796219;0.649566650390625;0.225341796875;0.849999997853956;86;1 A
47.6890968795966;0.649566650390625;0.225311279296875;0.859999997828709;87;1 A
47.6990968795714;0.649566650390625;0.226318359375;0.869999997803461;88;1 A
47.7090968795461;0.649444580078125;0.226806640625;0.879999997778214;89;1 A
47.7190968795209;0.649627685546875;0.226776123046875;0.889999997752966;90;1 A
47.7290968794956;0.649566650390625;0.2266845703125;0.899999997727718;91;1 A
47.7390968794704;0.6495361328125;0.22686767578125;0.909999997702471;92;1 A
47.7490968794451;0.64959716796875;0.22698974609375;0.919999997677223;93;1 A
47.7590968794199;0.649566650390625;0.22662353515625;0.929999997651976;94;1 A
47.7690968793946;0.649627685546875;0.226959228515625;0.939999997626728;95;1 A
47.7790968793694;0.649627685546875;0.22662353515625;0.949999997601481;96;1 A
47.7890968793441;0.649444580078125;0.227142333984375;0.959999997576233;97;1 A
47.7990968793189;0.649688720703125;0.22808837890625;0.969999997550985;98;1 A
47.8090968792936;0.649566650390625;0.2281494140625;0.979999997525738;99;1 A
47.8190968792684;0.649658203125;0.229583740234375;0.98999999750049;100;1 A
47.8290968792431;0.6495361328125;0.2301025390625;0.999999997475243;101;1 A
47.8390968792179;0.649658203125;0.230133056640625;1.00999999745;102;1 A
47.8490968791926;0.649627685546875;0.230255126953125;1.01999999742475;103;1 A
47.8590968791674;0.64959716796875;0.23040771484375;1.0299999973995;104;1 A
47.8690968791421;0.649566650390625;0.230316162109375;1.03999999737425;105;1 A
47.8790968791169;0.649627685546875;0.2298583984375;1.049999997349;106;1 A
47.8890968790917;0.649505615234375;0.23028564453125;1.05999999732376;107;1 A
47.8990968790664;0.649505615234375;0.22979736328125;1.06999999729851;108;1 A
47.9090968790412;0.64959716796875;0.229522705078125;1.07999999727326;109;1 A
47.9190968790159;0.649627685546875;0.22955322265625;1.08999999724801;110;1 A
47.9290968789907;0.649627685546875;0.2286376953125;1.09999999722277;111;1 A
47.9390968789654;0.6495361328125;0.228668212890625;1.10999999719752;112;1 A
47.9490968789402;0.64947509765625;0.2279052734375;1.11999999717227;113;1 A
47.9590968789149;0.649658203125;0.22723388671875;1.12999999714702;114;1 A
47.9690968788897;0.6495361328125;0.22747802734375;1.13999999712178;115;1 A
47.9790968788644;0.649566650390625;0.227386474609375;1.14999999709653;116;1 A
47.9890968788392;0.64959716796875;0.22723388671875;1.15999999707128;117;1 A
47.9990968788139;0.649505615234375;0.226470947265625;1.16999999704603;118;1 A
48.0090968787887;0.649566650390625;0.225982666015625;1.17999999702079;119;1 A
48.0190968787634;0.6495361328125;0.2247314453125;1.18999999699554;120;1 A
48.0290968787382;0.64947509765625;0.224609375;1.19999999697029;121;1 A
48.0390968787129;0.6495361328125;0.224853515625;1.20999999694504;122;1 A
48.0490968786877;0.649627685546875;0.22430419921875;1.2199999969198;123;1 A
48.0590968786624;0.649627685546875;0.22528076171875;1.22999999689455;124;1 A
48.0690968786372;0.649566650390625;0.22564697265625;1.2399999968693;125;1 A
48.0790968786119;0.649627685546875;0.22637939453125;1.24999999684405;126;1 A
48.0890968785867;0.649658203125;0.22723388671875;1.25999999681881;127;1 A
48.0990968785615;0.649658203125;0.22747802734375;1.26999999679356;128;1 A
48.1090968785362;0.649658203125;0.22802734375;1.27999999676831;129;1 A
48.119096878511;0.649627685546875;0.22808837890625;1.28999999674306;130;1 A
48.1290968784857;0.649566650390625;0.22900390625;1.29999999671782;131;1 A
48.1390968784605;0.649566650390625;0.2286376953125;1.30999999669257;132;1 A
48.1490968784352;0.649566650390625;0.228424072265625;1.31999999666732;133;1 A
48.15909687841;0.6495361328125;0.228607177734375;1.32999999664207;134;1 A
48.1690968783847;0.649627685546875;0.228240966796875;1.33999999661683;135;1 A
48.1790968783595;0.649566650390625;0.229583740234375;1.34999999659158;136;1 A
48.1890968783342;0.64947509765625;0.23016357421875;1.35999999656633;137;1 A
48.199096878309;0.649658203125;0.230743408203125;1.36999999654108;138;1 A
48.2090968782837;0.64959716796875;0.231658935546875;1.37999999651583;139;1 A
48.2190968782585;0.649505615234375;0.23211669921875;1.38999999649059;140;1 A
48.2290968782332;0.649627685546875;0.232818603515625;1.39999999646534;141;1 A
48.239096878208;0.64959716796875;0.23333740234375;1.40999999644009;142;1 A
48.2490968781827;0.649627685546875;0.234527587890625;1.41999999641484;143;1 A
48.2590968781575;0.6495361328125;0.23541259765625;1.4299999963896;144;1 A
48.2690968781322;0.64947509765625;0.23687744140625;1.43999999636435;145;1 A
48.279096878107;0.6495361328125;0.23834228515625;1.4499999963391;146;1 A
48.2890968780818;0.649566650390625;0.238433837890625;1.45999999631385;147;1 A
48.2990968780565;0.6495361328125;0.239410400390625;1.46999999628861;148;1 A
48.3090968780313;0.6495361328125;0.23968505859375;1.47999999626336;149;1 A
48.319096878006;0.649566650390625;0.2398681640625;1.48999999623811;150;1 A
48.3290968779808;0.649688720703125;0.23992919921875;1.49999999621286;151;1 A
48.3390968779555;0.64959716796875;0.239227294921875;1.50999999618762;152;1 A
48.3490968779303;0.649658203125;0.239105224609375;1.51999999616237;153;1 A
48.359096877905;0.649566650390625;0.23895263671875;1.52999999613712;154;1 A
48.3690968778798;0.649658203125;0.23956298828125;1.53999999611187;155;1 A
48.3790968778545;0.649566650390625;0.23931884765625;1.54999999608663;156;1 A
48.3890968778293;0.64959716796875;0.239044189453125;1.55999999606138;157;1 A
48.399096877804;0.6495361328125;0.238861083984375;1.56999999603613;158;1 A
48.4090968777788;0.649566650390625;0.237701416015625;1.57999999601088;159;1 A
48.4190968777535;0.649566650390625;0.238067626953125;1.58999999598564;160;1 A
48.4290968777283;0.649505615234375;0.237640380859375;1.59999999596039;161;1 A
48.439096877703;0.64959716796875;0.236846923828125;1.60999999593514;162;1 A
48.4490968776778;0.649627685546875;0.2366943359375;1.61999999590989;163;1 A
48.4590968776525;0.649566650390625;0.2359619140625;1.62999999588465;164;1 A
48.4690968776273;0.649627685546875;0.235382080078125;1.6399999958594;165;1 A
48.479096877602;0.64959716796875;0.234405517578125;1.64999999583415;166;1 A
48.4890968775768;0.649566650390625;0.23370361328125;1.6599999958089;167;1 A
48.4990968775516;0.64959716796875;0.232879638671875;1.66999999578366;168;1 A
48.5090968775263;0.649566650390625;0.233062744140625;1.67999999575841;169;1 A
48.5190968775011;0.64959716796875;0.23345947265625;1.68999999573316;170;1 A
48.5290968774758;0.649566650390625;0.232818603515625;1.69999999570791;171;1 A
48.5390968774506;0.649566650390625;0.233154296875;1.70999999568267;172;1 A
48.5490968774253;0.64959716796875;0.232635498046875;1.71999999565742;173;1 A
48.5590968774001;0.64959716796875;0.232452392578125;1.72999999563217;174;1 A
48.5690968773748;0.649658203125;0.232452392578125;1.73999999560692;175;1 A
48.5790968773496;0.649566650390625;0.2315673828125;1.74999999558167;176;1 A
48.5890968773243;0.64959716796875;0.2313232421875;1.75999999555643;177;1 A
48.5990968772991;0.649566650390625;0.2315673828125;1.76999999553118;178;1 A
48.6090968772738;0.649658203125;0.2325439453125;1.77999999550593;179;1 A
48.6190968772486;0.64959716796875;0.232574462890625;1.78999999548068;180;1 A
48.6290968772233;0.649566650390625;0.232330322265625;1.79999999545544;181;1 A
48.6390968771981;0.64959716796875;0.231597900390625;1.80999999543019;182;1 A
48.6490968771728;0.649688720703125;0.230499267578125;1.81999999540494;183;1 A
48.6590968771476;0.6495361328125;0.231201171875;1.82999999537969;184;1 A
48.6690968771223;0.649444580078125;0.230926513671875;1.83999999535445;185;1 A
48.6790968770971;0.64959716796875;0.230743408203125;1.8499999953292;186;1 A
48.6890968770718;0.64959716796875;0.230560302734375;1.85999999530395;187;1 A
48.6990968770466;0.6495361328125;0.229827880859375;1.8699999952787;188;1 A
48.7090968770214;0.649658203125;0.22991943359375;1.87999999525346;189;1 A
48.7190968769961;0.649566650390625;0.229400634765625;1.88999999522821;190;1 A
48.7290968769709;0.649658203125;0.229034423828125;1.89999999520296;191;1 A
48.7390968769456;0.649566650390625;0.228271484375;1.90999999517771;192;1 A
48.7490968769204;0.649566650390625;0.22833251953125;1.91999999515247;193;1 A
48.7590968768951;0.649688720703125;0.228302001953125;1.92999999512722;194;1 A
48.7690968768699;0.649566650390625;0.22760009765625;1.93999999510197;195;1 A
48.7790968768446;0.649566650390625;0.228118896484375;1.94999999507672;196;1 A
48.7890968768194;0.649566650390625;0.227508544921875;1.95999999505148;197;1 A
48.7990968767941;0.6495361328125;0.228240966796875;1.96999999502623;198;1 A
48.8090968767689;0.649566650390625;0.2293701171875;1.97999999500098;199;1 A
48.8190968767436;0.6495361328125;0.229156494140625;1.98999999497573;200;1 A
48.8290968767184;0.64959716796875;0.229522705078125;1.99999999495049;201;1 A
48.8390968766931;0.64959716796875;0.22943115234375;2.00999999492524;202;1 A
48.8490968766679;0.649627685546875;0.229583740234375;2.01999999489999;203;1 A
48.8590968766426;0.649627685546875;0.2291259765625;2.02999999487474;204;1 A
48.8690968766174;0.649566650390625;0.2288818359375;2.0399999948495;205;1 A
48.8790968765921;0.649566650390625;0.228851318359375;2.04999999482425;206;1 A
48.8890968765669;0.649627685546875;0.228912353515625;2.059999994799;207;1 A
48.8990968765416;0.649505615234375;0.23046875;2.06999999477375;208;1 A
48.9090968765164;0.64947509765625;0.230377197265625;2.0799999947485;209;1 A
48.9190968764912;0.64959716796875;0.23016357421875;2.08999999472326;210;1 A
48.9290968764659;0.6495361328125;0.2301025390625;2.09999999469801;211;1 A
48.9390968764407;0.6495361328125;0.229644775390625;2.10999999467276;212;1 A
48.9490968764154;0.64959716796875;0.230072021484375;2.11999999464751;213;1 A
48.9590968763902;0.6495361328125;0.22991943359375;2.12999999462227;214;1 A
48.9690968763649;0.64959716796875;0.229766845703125;2.13999999459702;215;1 A
48.9790968763397;0.64959716796875;0.229461669921875;2.14999999457177;216;1 A
48.9890968763144;0.64947509765625;0.22967529296875;2.15999999454652;217;1 A
48.9990968762892;0.64959716796875;0.229339599609375;2.16999999452128;218;1 A
49.0090968762639;0.6495361328125;0.22796630859375;2.17999999449603;219;1 A
49.0190968762387;0.649627685546875;0.227264404296875;2.18999999447078;220;1 A
49.0290968762134;0.6495361328125;0.225372314453125;2.19999999444553;221;1 A
49.0390968761882;0.649658203125;0.22467041015625;2.20999999442029;222;1 A
49.0490968761629;0.64959716796875;0.223785400390625;2.21999999439504;223;1 A
49.0590968761377;0.649566650390625;0.22222900390625;2.22999999436979;224;1 A
49.0690968761124;0.649566650390625;0.222137451171875;2.23999999434454;225;1 A
49.0790968760872;0.64959716796875;0.2218017578125;2.2499999943193;226;1 A
49.0890968760619;0.64959716796875;0.221923828125;2.25999999429405;227;1 A
49.0990968760367;0.64959716796875;0.222076416015625;2.2699999942688;228;1 A
49.1090968760114;0.649505615234375;0.22216796875;2.27999999424355;229;1 A
49.1190968759862;0.649566650390625;0.221954345703125;2.28999999421831;230;1 A
49.129096875961;0.649627685546875;0.2215576171875;2.29999999419306;231;1 A
49.1390968759357;0.649627685546875;0.222198486328125;2.30999999416781;232;1 A
49.1490968759105;0.64947509765625;0.221282958984375;2.31999999414256;233;1 A
49.1590968758852;0.649627685546875;0.220947265625;2.32999999411732;234;1 A
49.16909687586;0.649566650390625;0.2205810546875;2.33999999409207;235;1 A
49.1790968758347;0.6495361328125;0.22003173828125;2.34999999406682;236;1 A
49.1890968758095;0.64959716796875;0.220550537109375;2.35999999404157;237;1 A
49.1990968757842;0.6495361328125;0.22064208984375;2.36999999401633;238;1 A
49.209096875759;0.6495361328125;0.2210693359375;2.37999999399108;239;1 A
49.2190968757337;0.6495361328125;0.2216796875;2.38999999396583;240;1 A
49.2290968757085;0.64947509765625;0.222625732421875;2.39999999394058;241;1 A
49.2390968756832;0.649505615234375;0.223052978515625;2.40999999391533;242;1 A
49.249096875658;0.649505615234375;0.22320556640625;2.41999999389009;243;1 A
49.2590968756327;0.649688720703125;0.224273681640625;2.42999999386484;244;1 A
49.2690968756075;0.64959716796875;0.224639892578125;2.43999999383959;245;1 A
49.2790968755822;0.64959716796875;0.22650146484375;2.44999999381434;246;1 A
49.289096875557;0.6495361328125;0.2271728515625;2.4599999937891;247;1 A
49.2990968755317;0.64959716796875;0.2259521484375;2.46999999376385;248;1 A
49.3090968755065;0.64959716796875;0.225494384765625;2.4799999937386;249;1 A
49.3190968754813;0.64959716796875;0.22418212890625;2.48999999371335;250;1 A
49.329096875456;0.64959716796875;0.223785400390625;2.49999999368811;251;1 A
49.3390968754308;0.649658203125;0.22320556640625;2.50999999366286;252;1 A
49.3490968754055;0.649505615234375;0.22247314453125;2.51999999363761;253;1 A
49.3590968753803;0.649505615234375;0.22198486328125;2.52999999361236;254;1 A
49.369096875355;0.649627685546875;0.22149658203125;2.53999999358712;255;1 A
49.3790968753298;0.6495361328125;0.22222900390625;2.54999999356187;256;1 A
49.3890968753045;0.64947509765625;0.22174072265625;2.55999999353662;257;1 A
49.3990968752793;0.649627685546875;0.222381591796875;2.56999999351137;258;1 A
49.409096875254;0.64959716796875;0.22186279296875;2.57999999348613;259;1 A
49.4190968752288;0.64959716796875;0.22119140625;2.58999999346088;260;1 A
49.4290968752035;0.649658203125;0.221588134765625;2.59999999343563;261;1 A
49.4390968751783;0.649566650390625;0.2210693359375;2.60999999341038;262;1 A
49.449096875153;0.649566650390625;0.220977783203125;2.61999999338514;263;1 A
49.4590968751278;0.649505615234375;0.2210693359375;2.62999999335989;264;1 A
49.4690968751025;0.649566650390625;0.221527099609375;2.63999999333464;265;1 A
49.4790968750773;0.6495361328125;0.221832275390625;2.64999999330939;266;1 A
49.489096875052;0.6495361328125;0.2218017578125;2.65999999328415;267;1 A
49.4990968750268;0.649627685546875;0.22216796875;2.6699999932589;268;1 A
49.5090968750015;0.6495361328125;0.221832275390625;2.67999999323365;269;1 A
49.5190968749763;0.649566650390625;0.22265625;2.6899999932084;270;1 A
49.5290968749511;0.649688720703125;0.222442626953125;2.69999999318316;271;1 A
49.5390968749258;0.64959716796875;0.221649169921875;2.70999999315791;272;1 A
49.5490968749006;0.649658203125;0.2222900390625;2.71999999313266;273;1 A
49.5590968748753;0.649627685546875;0.222259521484375;2.72999999310741;274;1 A
49.5690968748501;0.649566650390625;0.223175048828125;2.73999999308217;275;1 A
49.5790968748248;0.649627685546875;0.223968505859375;2.74999999305692;276;1 A
49.5890968747996;0.6495361328125;0.22430419921875;2.75999999303167;277;1 A
49.5990968747743;0.649505615234375;0.224853515625;2.76999999300642;278;1 A
49.6090968747491;0.64959716796875;0.225128173828125;2.77999999298117;279;1 A
49.6190968747238;0.6495361328125;0.225860595703125;2.78999999295593;280;1 A
49.6290968746986;0.649505615234375;0.22509765625;2.79999999293068;281;1 A
49.6390968746733;0.649566650390625;0.225189208984375;2.80999999290543;282;1 A
49.6490968746481;0.649658203125;0.22479248046875;2.81999999288018;283;1 A
49.6590968746228;0.6495361328125;0.22430419921875;2.82999999285494;284;1 A
49.6690968745976;0.649658203125;0.22479248046875;2.83999999282969;285;1 A
49.6790968745723;0.649505615234375;0.22406005859375;2.84999999280444;286;1 A
49.6890968745471;0.649566650390625;0.223968505859375;2.85999999277919;287;1 A
49.6990968745218;0.64947509765625;0.2239990234375;2.86999999275395;288;1 A
49.7090968744966;0.649505615234375;0.2237548828125;2.8799999927287;289;1 A
49.7190968744713;0.64947509765625;0.223419189453125;2.88999999270345;290;1 A
49.7290968744461;0.649566650390625;0.222625732421875;2.8999999926782;291;1 A
49.7390968744209;0.649566650390625;0.22210693359375;2.90999999265296;292;1 A
49.7490968743956;0.649566650390625;0.2210693359375;2.91999999262771;293;1 A
49.7590968743704;0.649505615234375;0.221466064453125;2.92999999260246;294;1 A
49.7690968743451;0.649658203125;0.22137451171875;2.93999999257721;295;1 A
49.7790968743199;0.649627685546875;0.2205810546875;2.94999999255197;296;1 A
49.7890968742946;0.649627685546875;0.220977783203125;2.95999999252672;297;1 A
49.7990968742694;0.64959716796875;0.220001220703125;2.96999999250147;298;1 A
49.8090968742441;0.649658203125;0.2200927734375;2.97999999247622;299;1 A
49.8190968742189;0.649627685546875;0.22027587890625;2.98999999245098;300;1 A
49.8290968741936;0.64959716796875;0.220245361328125;2.99999999242573;301;1 A
49.8390968741684;0.649505615234375;0.221038818359375;3.00999999240048;302;1 A
49.8490968741431;0.64959716796875;0.222137451171875;3.01999999237523;303;1 A
49.8590968741179;0.6495361328125;0.223663330078125;3.02999999234999;304;1 A
49.8690968740926;0.64947509765625;0.22430419921875;3.03999999232474;305;1 A
49.8790968740674;0.6495361328125;0.2254638671875;3.04999999229949;306;1 A
49.8890968740421;0.64959716796875;0.226226806640625;3.05999999227424;307;1 A
49.8990968740169;0.649566650390625;0.227203369140625;3.069999992249;308;1 A
49.9090968739916;0.649658203125;0.22918701171875;3.07999999222375;309;1 A
49.9190968739664;0.6495361328125;0.22943115234375;3.0899999921985;310;1 A
49.9290968739411;0.649627685546875;0.230072021484375;3.09999999217325;311;1 A
49.9390968739159;0.6495361328125;0.23040771484375;3.109999992148;312;1 A
49.9490968738907;0.649566650390625;0.230499267578125;3.11999999212276;313;1 A
49.9590968738654;0.649505615234375;0.2308349609375;3.12999999209751;314;1 A
49.9690968738402;0.649566650390625;0.23052978515625;3.13999999207226;315;1 A
49.9790968738149;0.64959716796875;0.23028564453125;3.14999999204701;316;1 A
49.9890968737897;0.649566650390625;0.229400634765625;3.15999999202177;317;1 A
49.9990968737644;0.6495361328125;0.23004150390625;3.16999999199652;318;1 A
50.0090968737392;0.649627685546875;0.2301025390625;3.17999999197127;319;1 A
50.0190968737139;0.64959716796875;0.229522705078125;3.18999999194602;320;1 A
50.0290968736887;0.64959716796875;0.22998046875;3.19999999192078;321;1 A
50.0390968736634;0.64959716796875;0.229278564453125;3.20999999189553;322;1 A
50.0490968736382;0.64959716796875;0.229339599609375;3.21999999187028;323;1 A
50.0590968736129;0.649688720703125;0.228759765625;3.22999999184503;324;1 A
50.0690968735877;0.649566650390625;0.2279052734375;3.23999999181979;325;1 A
50.0790968735624;0.6495361328125;0.2281494140625;3.24999999179454;326;1 A
50.0890968735372;0.649627685546875;0.228485107421875;3.25999999176929;327;1 A
50.0990968735119;0.649566650390625;0.22906494140625;3.26999999174404;328;1 A
50.1090968734867;0.64947509765625;0.228729248046875;3.2799999917188;329;1 A
50.1190968734614;0.649658203125;0.228668212890625;3.28999999169355;330;1 A
50.1290968734362;0.649627685546875;0.228179931640625;3.2999999916683;331;1 A
50.1390968734109;0.649566650390625;0.22802734375;3.30999999164305;332;1 A
50.1490968733857;0.649627685546875;0.228668212890625;3.31999999161781;333;1 A
50.1590968733605;0.649627685546875;0.227691650390625;3.32999999159256;334;1 A
50.1690968733352;0.649658203125;0.2279052734375;3.33999999156731;335;1 A
50.17909687331;0.64959716796875;0.227874755859375;3.34999999154206;336;1 A
50.1890968732847;0.64947509765625;0.22747802734375;3.35999999151682;337;1 A
50.1990968732595;0.64959716796875;0.227203369140625;3.36999999149157;338;1 A
50.2090968732342;0.649566650390625;0.226348876953125;3.37999999146632;339;1 A
50.219096873209;0.64959716796875;0.225860595703125;3.38999999144107;340;1 A
50.2290968731837;0.649627685546875;0.225128173828125;3.39999999141583;341;1 A
50.2390968731585;0.649566650390625;0.225555419921875;3.40999999139058;342;1 A
50.2490968731332;0.649566650390625;0.225433349609375;3.41999999136533;343;1 A
50.259096873108;0.64959716796875;0.225006103515625;3.42999999134008;344;1 A
50.2690968730827;0.6495361328125;0.22540283203125;3.43999999131483;345;1 A
50.2790968730575;0.649627685546875;0.2249755859375;3.44999999128959;346;1 A
50.2890968730322;0.649627685546875;0.225860595703125;3.45999999126434;347;1 A
50.299096873007;0.649658203125;0.22589111328125;3.46999999123909;348;1 A
50.3090968729817;0.649566650390625;0.2254638671875;3.47999999121384;349;1 A
50.3190968729565;0.649566650390625;0.2257080078125;3.4899999911886;350;1 A
50.3290968729312;0.649627685546875;0.225677490234375;3.49999999116335;351;1 A
50.339096872906;0.649627685546875;0.2259521484375;3.5099999911381;352;1 A
50.3490968728808;0.649505615234375;0.225921630859375;3.51999999111285;353;1 A
50.3590968728555;0.649627685546875;0.226226806640625;3.52999999108761;354;1 A
50.3690968728303;0.649566650390625;0.2257080078125;3.53999999106236;355;1 A
50.379096872805;0.649566650390625;0.225616455078125;3.54999999103711;356;1 A
50.3890968727798;0.64959716796875;0.226593017578125;3.55999999101186;357;1 A
50.3990968727545;0.64959716796875;0.22589111328125;3.56999999098662;358;1 A
50.4090968727293;0.649566650390625;0.225555419921875;3.57999999096137;359;1 A
50.419096872704;0.64959716796875;0.22454833984375;3.58999999093612;360;1 A
50.4290968726788;0.649505615234375;0.223480224609375;3.59999999091087;361;1 A
50.4390968726535;0.649627685546875;0.2230224609375;3.60999999088563;362;1 A
50.4490968726283;0.6495361328125;0.22186279296875;3.61999999086038;363;1 A
50.459096872603;0.649688720703125;0.22137451171875;3.62999999083513;364;1 A
50.4690968725778;0.64959716796875;0.220977783203125;3.63999999080988;365;1 A
50.4790968725525;0.649627685546875;0.22161865234375;3.64999999078464;366;1 A
50.4890968725273;0.649566650390625;0.22161865234375;3.65999999075939;367;1 A
50.499096872502;0.649566650390625;0.22137451171875;3.66999999073414;368;1 A
50.5090968724768;0.649566650390625;0.221343994140625;3.67999999070889;369;1 A
50.5190968724515;0.649658203125;0.220489501953125;3.68999999068365;370;1 A
50.5290968724263;0.64959716796875;0.22119140625;3.6999999906584;371;1 A
50.539096872401;0.649566650390625;0.221221923828125;3.70999999063315;372;1 A
50.5490968723758;0.649566650390625;0.2210693359375;3.7199999906079;373;1 A
50.5590968723506;0.6495361328125;0.22210693359375;3.72999999058266;374;1 A
50.5690968723253;0.64959716796875;0.22259521484375;3.73999999055741;375;1 A
50.5790968723001;0.64959716796875;0.2236328125;3.74999999053216;376;1 A
50.5890968722748;0.6495361328125;0.224029541015625;3.75999999050691;377;1 A
50.5990968722496;0.649566650390625;0.224395751953125;3.76999999048167;378;1 A
50.6090968722243;0.64959716796875;0.22467041015625;3.77999999045642;379;1 A
50.6190968721991;0.649566650390625;0.225311279296875;3.78999999043117;380;1 A
50.6290968721738;0.649566650390625;0.226348876953125;3.79999999040592;381;1 A
50.6390968721486;0.64959716796875;0.225738525390625;3.80999999038067;382;1 A
50.6490968721233;0.64959716796875;0.226043701171875;3.81999999035543;383;1 A
50.6590968720981;0.649566650390625;0.225738525390625;3.82999999033018;384;1 A
50.6690968720728;0.649444580078125;0.22564697265625;3.83999999030493;385;1 A
50.6790968720476;0.649627685546875;0.22613525390625;3.84999999027968;386;1 A
50.6890968720223;0.64959716796875;0.22564697265625;3.85999999025444;387;1 A
50.6990968719971;0.64959716796875;0.225921630859375;3.86999999022919;388;1 A
50.7090968719718;0.649627685546875;0.22601318359375;3.87999999020394;389;1 A
50.7190968719466;0.64959716796875;0.22650146484375;3.88999999017869;390;1 A
50.7290968719213;0.649658203125;0.226165771484375;3.89999999015345;391;1 A
50.7390968718961;0.64959716796875;0.2259521484375;3.9099999901282;392;1 A
50.7490968718708;0.649505615234375;0.22613525390625;3.91999999010295;393;1 A
50.7590968718456;0.6495361328125;0.2255859375;3.9299999900777;394;1 A
50.7690968718204;0.6495361328125;0.22686767578125;3.93999999005246;395;1 A
50.7790968717951;0.649627685546875;0.2271728515625;3.94999999002721;396;1 A
50.7890968717699;0.64947509765625;0.2266845703125;3.95999999000196;397;1 A
50.7990968717446;0.6495361328125;0.22711181640625;3.96999998997671;398;1 A
50.8090968717194;0.649566650390625;0.226806640625;3.97999998995147;399;1 A
50.8190968716941;0.649627685546875;0.22723388671875;3.98999998992622;400;1 A
50.8290968716689;0.649566650390625;0.22711181640625;3.99999998990097;401;1 A
50.8390968716436;0.649627685546875;0.22662353515625;4.00999998987572;402;1 A
50.8490968716184;0.649627685546875;0.22589111328125;4.01999998985048;403;1 A
50.8590968715931;0.64959716796875;0.225616455078125;4.02999998982523;404;1 A
50.8690968715679;0.64959716796875;0.225799560546875;4.03999998979998;405;1 A
50.8790968715426;0.649505615234375;0.2249755859375;4.04999998977473;406;1 A
50.8890968715174;0.649627685546875;0.225372314453125;4.05999998974949;407;1 A
50.8990968714921;0.6495361328125;0.225189208984375;4.06999998972424;408;1 A
50.9090968714669;0.649505615234375;0.225372314453125;4.07999998969899;409;1 A
50.9190968714416;0.6495361328125;0.22613525390625;4.08999998967374;410;1 A
50.9290968714164;0.649566650390625;0.225494384765625;4.0999999896485;411;1 A
50.9390968713911;0.649627685546875;0.225494384765625;4.10999998962325;412;1 A
50.9490968713659;0.649627685546875;0.2252197265625;4.119999989598;413;1 A
50.9590968713406;0.64959716796875;0.225372314453125;4.12999998957275;414;1 A
50.9690968713154;0.649658203125;0.225189208984375;4.1399999895475;415;1 A
50.9790968712902;0.64959716796875;0.2252197265625;4.14999998952226;416;1 A
50.9890968712649;0.64959716796875;0.2257080078125;4.15999998949701;417;1 A
50.9990968712397;0.64959716796875;0.22564697265625;4.16999998947176;418;1 A
51.0090968712144;0.64959716796875;0.22698974609375;4.17999998944651;419;1 A
51.0190968711892;0.649627685546875;0.226837158203125;4.18999998942127;420;1 A
51.0290968711639;0.649566650390625;0.226898193359375;4.19999998939602;421;1 A
51.0390968711387;0.649505615234375;0.22772216796875;4.20999998937077;422;1 A
51.0490968711134;0.64959716796875;0.22747802734375;4.21999998934552;423;1 A
51.0590968710882;0.64959716796875;0.22808837890625;4.22999998932028;424;1 A
51.0690968710629;0.649505615234375;0.2281494140625;4.23999998929503;425;1 A
51.0790968710377;0.649566650390625;0.2283935546875;4.24999998926978;426;1 A
51.0890968710124;0.649658203125;0.229156494140625;4.25999998924453;427;1 A
51.0990968709872;0.6495361328125;0.230072021484375;4.26999998921929;428;1 A
51.1090968709619;0.649688720703125;0.23089599609375;4.27999998919404;429;1 A
51.1190968709367;0.649505615234375;0.230438232421875;4.28999998916879;430;1 A
51.1290968709114;0.649658203125;0.230682373046875;4.29999998914354;431;1 A
51.1390968708862;0.649505615234375;0.230194091796875;4.3099999891183;432;1 A
51.1490968708609;0.64947509765625;0.23052978515625;4.31999998909305;433;1 A
51.1590968708357;0.6495361328125;0.231842041015625;4.3299999890678;434;1 A
51.1690968708104;0.6495361328125;0.232025146484375;4.33999998904255;435;1 A
51.1790968707852;0.64959716796875;0.23333740234375;4.34999998901731;436;1 A
51.18909687076;0.64959716796875;0.23394775390625;4.35999998899206;437;1 A
51.1990968707347;0.64959716796875;0.234619140625;4.36999998896681;438;1 A
51.2090968707095;0.649688720703125;0.23492431640625;4.37999998894156;439;1 A
51.2190968706842;0.649627685546875;0.2347412109375;4.38999998891632;440;1 A
51.229096870659;0.64959716796875;0.234710693359375;4.39999998889107;441;1 A
51.2390968706337;0.64959716796875;0.234130859375;4.40999998886582;442;1 A
51.2490968706085;0.649658203125;0.234832763671875;4.41999998884057;443;1 A
51.2590968705832;0.649566650390625;0.23443603515625;4.42999998881533;444;1 A
51.269096870558;0.6495361328125;0.23382568359375;4.43999998879008;445;1 A
51.2790968705327;0.649505615234375;0.234283447265625;4.44999998876483;446;1 A
51.2890968705075;0.649627685546875;0.233673095703125;4.45999998873958;447;1 A
51.2990968704822;0.649505615234375;0.233673095703125;4.46999998871433;448;1 A
51.309096870457;0.64947509765625;0.233245849609375;4.47999998868909;449;1 A
51.3190968704317;0.649566650390625;0.23223876953125;4.48999998866384;450;1 A
51.3290968704065;0.649627685546875;0.231231689453125;4.49999998863859;451;1 A
51.3390968703812;0.64959716796875;0.230133056640625;4.50999998861334;452;1 A
51.349096870356;0.649688720703125;0.228973388671875;4.5199999885881;453;1 A
51.3590968703307;0.649566650390625;0.227325439453125;4.52999998856285;454;1 A
51.3690968703055;0.649627685546875;0.226776123046875;4.5399999885376;455;1 A
51.3790968702803;0.649566650390625;0.225738525390625;4.54999998851235;456;1 A
51.389096870255;0.649566650390625;0.225677490234375;4.55999998848711;457;1 A
51.3990968702298;0.6495361328125;0.22625732421875;4.56999998846186;458;1 A
51.4090968702045;0.649566650390625;0.22540283203125;4.57999998843661;459;1 A
51.4190968701793;0.649566650390625;0.225433349609375;4.58999998841136;460;1 A
51.429096870154;0.64959716796875;0.2247314453125;4.59999998838612;461;1 A
51.4390968701288;0.64959716796875;0.224395751953125;4.60999998836087;462;1 A
51.4490968701035;0.64959716796875;0.224273681640625;4.61999998833562;463;1 A
51.4590968700783;0.649658203125;0.223968505859375;4.62999998831037;464;1 A
51.469096870053;0.649505615234375;0.224273681640625;4.63999998828513;465;1 A
51.4790968700278;0.649505615234375;0.224456787109375;4.64999998825988;466;1 A
51.4890968700025;0.649658203125;0.226226806640625;4.65999998823463;467;1 A
51.4990968699773;0.649627685546875;0.22711181640625;4.66999998820938;468;1 A
51.509096869952;0.64959716796875;0.227996826171875;4.67999998818414;469;1 A
51.5190968699268;0.649505615234375;0.2296142578125;4.68999998815889;470;1 A
51.5290968699015;0.64959716796875;0.230377197265625;4.69999998813364;471;1 A
51.5390968698763;0.649566650390625;0.232177734375;4.70999998810839;472;1 A
51.549096869851;0.649505615234375;0.23284912109375;4.71999998808315;473;1 A
51.5590968698258;0.649566650390625;0.232421875;4.7299999880579;474;1 A
51.5690968698005;0.649566650390625;0.231781005859375;4.73999998803265;475;1 A
51.5790968697753;0.649566650390625;0.23089599609375;4.7499999880074;476;1 A
51.5890968697501;0.649658203125;0.23028564453125;4.75999998798216;477;1 A
51.5990968697248;0.649566650390625;0.22943115234375;4.76999998795691;478;1 A
51.6090968696996;0.64959716796875;0.229095458984375;4.77999998793166;479;1 A
51.6190968696743;0.649566650390625;0.2283935546875;4.78999998790641;480;1 A
51.6290968696491;0.649566650390625;0.2291259765625;4.79999998788116;481;1 A
51.6390968696238;0.64959716796875;0.23065185546875;4.80999998785592;482;1 A
51.6490968695986;0.6495361328125;0.23101806640625;4.81999998783067;483;1 A
51.6590968695733;0.649627685546875;0.232330322265625;4.82999998780542;484;1 A
51.6690968695481;0.649658203125;0.232635498046875;4.83999998778017;485;1 A
51.6790968695228;0.64959716796875;0.232269287109375;4.84999998775493;486;1 A
51.6890968694976;0.649627685546875;0.2314453125;4.85999998772968;487;1 A
51.6990968694723;0.64959716796875;0.229766845703125;4.86999998770443;488;1 A
51.7090968694471;0.649505615234375;0.22833251953125;4.87999998767918;489;1 A
51.7190968694218;0.649566650390625;0.226959228515625;4.88999998765394;490;1 A
51.7290968693966;0.649658203125;0.226531982421875;4.89999998762869;491;1 A
51.7390968693713;0.64971923828125;0.225311279296875;4.90999998760344;492;1 A
51.7490968693461;0.649566650390625;0.224609375;4.91999998757819;493;1 A
51.7590968693208;0.649566650390625;0.224365234375;4.92999998755295;494;1 A
51.7690968692956;0.649566650390625;0.224029541015625;4.9399999875277;495;1 A
51.7790968692703;0.6495361328125;0.225128173828125;4.94999998750245;496;1 A
51.7890968692451;0.649505615234375;0.225677490234375;4.9599999874772;497;1 A
51.7990968692199;0.649627685546875;0.225860595703125;4.96999998745196;498;1 A
51.8090968691946;0.649566650390625;0.2264404296875;4.97999998742671;499;1 A
51.8190968691694;0.64959716796875;0.22662353515625;4.98999998740146;500;1 A
51.8290968691441;0.649566650390625;0.226776123046875;4.99999998737621;501;1 A
51.8390968691189;0.6495361328125;0.226531982421875;5.00999998735097;502;1 A
51.8490968690936;0.64959716796875;0.226715087890625;5.01999998732572;503;1 A
51.8590968690684;0.649658203125;0.2264404296875;5.02999998730047;504;1 A
51.8690968690431;0.649566650390625;0.227264404296875;5.03999998727522;505;1 A
51.8790968690179;0.649627685546875;0.22845458984375;5.04999998724998;506;1 A
51.8890968689926;0.649505615234375;0.2283935546875;5.05999998722473;507;1 A
51.8990968689674;0.64959716796875;0.22943115234375;5.06999998719948;508;1 A
51.9090968689421;0.64959716796875;0.229644775390625;5.07999998717423;509;1 A
51.9190968689169;0.64959716796875;0.23016357421875;5.08999998714899;510;1 A
51.9290968688916;0.649505615234375;0.23095703125;5.09999998712374;511;1 A
51.9390968688664;0.64959716796875;0.2305908203125;5.10999998709849;512;1 A
51.9490968688411;0.649505615234375;0.230438232421875;5.11999998707324;513;1 A
51.9590968688159;0.649566650390625;0.23016357421875;5.129999987048;514;1 A
51.9690968687906;0.649627685546875;0.230255126953125;5.13999998702275;515;1 A
51.9790968687654;0.649688720703125;0.22918701171875;5.1499999869975;516;1 A
51.9890968687401;0.649444580078125;0.228607177734375;5.15999998697225;517;1 A
51.9990968687149;0.64959716796875;0.228607177734375;5.169999986947;518;1 A
52.0090968686897;0.649688720703125;0.22845458984375;5.17999998692176;519;1 A
52.0190968686644;0.649658203125;0.22967529296875;5.18999998689651;520;1 A
52.0290968686392;0.649505615234375;0.229400634765625;5.19999998687126;521;1 A
52.0390968686139;0.649566650390625;0.22857666015625;5.20999998684601;522;1 A
52.0490968685887;0.64959716796875;0.228240966796875;5.21999998682077;523;1 A
52.0590968685634;0.649566650390625;0.227142333984375;5.22999998679552;524;1 A
52.0690968685382;0.64959716796875;0.226470947265625;5.23999998677027;525;1 A
52.0790968685129;0.649566650390625;0.225433349609375;5.24999998674502;526;1 A
52.0890968684877;0.649566650390625;0.22479248046875;5.25999998671978;527;1 A
52.0990968684624;0.64959716796875;0.223876953125;5.26999998669453;528;1 A
52.1090968684372;0.6495361328125;0.22381591796875;5.27999998666928;529;1 A
52.1190968684119;0.649566650390625;0.223846435546875;5.28999998664403;530;1 A
52.1290968683867;0.6495361328125;0.223052978515625;5.29999998661879;531;1 A
52.1390968683614;0.64959716796875;0.22381591796875;5.30999998659354;532;1 A
52.1490968683362;0.649566650390625;0.223876953125;5.31999998656829;533;1 A
52.1590968683109;0.649658203125;0.224761962890625;5.32999998654304;534;1 A
52.1690968682857;0.6495361328125;0.225921630859375;5.3399999865178;535;1 A
52.1790968682604;0.64959716796875;0.2257080078125;5.34999998649255;536;1 A
52.1890968682352;0.649505615234375;0.2265625;5.3599999864673;537;1 A
52.1990968682099;0.64959716796875;0.227630615234375;5.36999998644205;538;1 A
52.2090968681847;0.64959716796875;0.22900390625;5.37999998641681;539;1 A
52.2190968681595;0.649688720703125;0.229644775390625;5.38999998639156;540;1 A
52.2290968681342;0.649505615234375;0.23040771484375;5.39999998636631;541;1 A
52.239096868109;0.64959716796875;0.230499267578125;5.40999998634106;542;1 A
52.2490968680837;0.64959716796875;0.2296142578125;5.41999998631582;543;1 A
52.2590968680585;0.649658203125;0.2298583984375;5.42999998629057;544;1 A
52.2690968680332;0.64947509765625;0.22845458984375;5.43999998626532;545;1 A
52.279096868008;0.649627685546875;0.227813720703125;5.44999998624007;546;1 A
52.2890968679827;0.649688720703125;0.227813720703125;5.45999998621483;547;1 A
52.2990968679575;0.64959716796875;0.22723388671875;5.46999998618958;548;1 A
52.3090968679322;0.649566650390625;0.227447509765625;5.47999998616433;549;1 A
52.319096867907;0.649505615234375;0.227142333984375;5.48999998613908;550;1 A
52.3290968678817;0.649505615234375;0.22711181640625;5.49999998611383;551;1 A
52.3390968678565;0.6495361328125;0.226898193359375;5.50999998608859;552;1 A
52.3490968678312;0.649566650390625;0.227508544921875;5.51999998606334;553;1 A
52.359096867806;0.649627685546875;0.228057861328125;5.52999998603809;554;1 A
52.3690968677807;0.649566650390625;0.22747802734375;5.53999998601284;555;1 A
52.3790968677555;0.649627685546875;0.227447509765625;5.5499999859876;556;1 A
52.3890968677302;0.649566650390625;0.2264404296875;5.55999998596235;557;1 A
52.399096867705;0.649627685546875;0.2266845703125;5.5699999859371;558;1 A
52.4090968676798;0.649627685546875;0.227325439453125;5.57999998591185;559;1 A
52.4190968676545;0.6495361328125;0.227386474609375;5.58999998588661;560;1 A
52.4290968676293;0.6495361328125;0.228607177734375;5.59999998586136;561;1 A
52.439096867604;0.649566650390625;0.22930908203125;5.60999998583611;562;1 A
52.4490968675788;0.6495361328125;0.230133056640625;5.61999998581086;563;1 A
52.4590968675535;0.649627685546875;0.23046875;5.62999998578562;564;1 A
52.4690968675283;0.6500244140625;0.230499267578125;5.63999998576037;565;1 A
52.479096867503;0.649566650390625;0.230377197265625;5.64999998573512;566;1 A
52.4890968674778;0.64959716796875;0.22991943359375;5.65999998570987;567;1 A
52.4990968674525;0.649658203125;0.23077392578125;5.66999998568463;568;1 A
52.5090968674273;0.64959716796875;0.23052978515625;5.67999998565938;569;1 A
52.519096867402;0.64959716796875;0.2308349609375;5.68999998563413;570;1 A
52.5290968673768;0.649566650390625;0.231109619140625;5.69999998560888;571;1 A
52.5390968673515;0.64959716796875;0.2305908203125;5.70999998558364;572;1 A
52.5490968673263;0.649658203125;0.230865478515625;5.71999998555839;573;1 A
52.559096867301;0.649505615234375;0.230194091796875;5.72999998553314;574;1 A
52.5690968672758;0.649505615234375;0.229339599609375;5.73999998550789;575;1 A
52.5790968672505;0.6495361328125;0.228179931640625;5.74999998548265;576;1 A
52.5890968672253;0.649627685546875;0.227294921875;5.7599999854574;577;1 A
52.5990968672;0.649566650390625;0.226348876953125;5.76999998543215;578;1 A
52.6090968671748;0.649566650390625;0.22552490234375;5.7799999854069;579;1 A
52.6190968671496;0.649566650390625;0.225799560546875;5.78999998538166;580;1 A
52.6290968671243;0.649627685546875;0.2255859375;5.79999998535641;581;1 A
52.6390968670991;0.649627685546875;0.22625732421875;5.80999998533116;582;1 A
52.6490968670738;0.649658203125;0.226593017578125;5.81999998530591;583;1 A
52.6590968670486;0.649627685546875;0.22607421875;5.82999998528066;584;1 A
52.6690968670233;0.649566650390625;0.22674560546875;5.83999998525542;585;1 A
52.6790968669981;0.6495361328125;0.226593017578125;5.84999998523017;586;1 A
52.6890968669728;0.64959716796875;0.226531982421875;5.85999998520492;587;1 A
52.6990968669476;0.649566650390625;0.226043701171875;5.86999998517967;588;1 A
52.7090968669223;0.6495361328125;0.225433349609375;5.87999998515443;589;1 A
52.7190968668971;0.649566650390625;0.22509765625;5.88999998512918;590;1 A
52.7290968668718;0.649627685546875;0.22491455078125;5.89999998510393;591;1 A
52.7390968668466;0.649627685546875;0.225921630859375;5.90999998507868;592;1 A
52.7490968668213;0.64959716796875;0.22601318359375;5.91999998505344;593;1 A
52.7590968667961;0.649566650390625;0.22698974609375;5.92999998502819;594;1 A
52.7690968667708;0.649566650390625;0.22833251953125;5.93999998500294;595;1 A
52.7790968667456;0.64959716796875;0.229217529296875;5.94999998497769;596;1 A
52.7890968667203;0.649658203125;0.23077392578125;5.95999998495245;597;1 A
52.7990968666951;0.6495361328125;0.2310791015625;5.9699999849272;598;1 A
52.8090968666698;0.649566650390625;0.2313232421875;5.97999998490195;599;1 A
52.8190968666446;0.649566650390625;0.231414794921875;5.9899999848767;600;1 A
52.8290968666194;0.649627685546875;0.2318115234375;5.99999998485146;601;1 A
52.8390968665941;0.649566650390625;0.231842041015625;6.00999998482621;602;1 A
52.8490968665689;0.64959716796875;0.231201171875;6.01999998480096;603;1 A
52.8590968665436;0.64959716796875;0.231048583984375;6.02999998477571;604;1 A
52.8690968665184;0.64959716796875;0.2303466796875;6.03999998475047;605;1 A
52.8790968664931;0.649627685546875;0.231048583984375;6.04999998472522;606;1 A
52.8890968664679;0.649658203125;0.2318115234375;6.05999998469997;607;1 A
52.8990968664426;0.64959716796875;0.23138427734375;6.06999998467472;608;1 A
52.9090968664174;0.649566650390625;0.231842041015625;6.07999998464948;609;1 A
52.9190968663921;0.649566650390625;0.23126220703125;6.08999998462423;610;1 A
52.9290968663669;0.649658203125;0.231201171875;6.09999998459898;611;1 A
52.9390968663416;0.649627685546875;0.231109619140625;6.10999998457373;612;1 A
52.9490968663164;0.649566650390625;0.230377197265625;6.11999998454849;613;1 A
52.9590968662911;0.649505615234375;0.23004150390625;6.12999998452324;614;1 A
52.9690968662659;0.649566650390625;0.229705810546875;6.13999998449799;615;1 A
52.9790968662406;0.64959716796875;0.229949951171875;6.14999998447274;616;1 A
52.9890968662154;0.649658203125;0.229095458984375;6.1599999844475;617;1 A
52.9990968661901;0.649566650390625;0.228973388671875;6.16999998442225;618;1 A
53.0090968661649;0.64959716796875;0.229095458984375;6.179999984397;619;1 A
53.0190968661396;0.649566650390625;0.22918701171875;6.18999998437175;620;1 A
53.0290968661144;0.649627685546875;0.23040771484375;6.1999999843465;621;1 A
53.0390968660892;0.649566650390625;0.23089599609375;6.20999998432126;622;1 A
53.0490968660639;0.6495361328125;0.231536865234375;6.21999998429601;623;1 A
53.0590968660387;0.649566650390625;0.232330322265625;6.22999998427076;624;1 A
53.0690968660134;0.64959716796875;0.23284912109375;6.23999998424551;625;1 A
53.0790968659882;0.649505615234375;0.233062744140625;6.24999998422027;626;1 A
53.0890968659629;0.649566650390625;0.232818603515625;6.25999998419502;627;1 A
53.0990968659377;0.649566650390625;0.232940673828125;6.26999998416977;628;1 A
53.1090968659124;0.649566650390625;0.232666015625;6.27999998414452;629;1 A
53.1190968658872;0.6495361328125;0.2333984375;6.28999998411928;630;1 A
53.1290968658619;0.64959716796875;0.233795166015625;6.29999998409403;631;1 A
53.1390968658367;0.649627685546875;0.23333740234375;6.30999998406878;632;1 A
53.1490968658114;0.64959716796875;0.234100341796875;6.31999998404353;633;1 A
53.1590968657862;0.64959716796875;0.233917236328125;6.32999998401829;634;1 A
53.1690968657609;0.649749755859375;0.23419189453125;6.33999998399304;635;1 A
53.1790968657357;0.649658203125;0.234039306640625;6.34999998396779;636;1 A
53.1890968657104;0.649566650390625;0.233428955078125;6.35999998394254;637;1 A
53.1990968656852;0.6495361328125;0.233306884765625;6.3699999839173;638;1 A
53.2090968656599;0.649627685546875;0.233184814453125;6.37999998389205;639;1 A
53.2190968656347;0.6495361328125;0.233367919921875;6.3899999838668;640;1 A
53.2290968656094;0.649658203125;0.232696533203125;6.39999998384155;641;1 A
53.2390968655842;0.6495361328125;0.232696533203125;6.40999998381631;642;1 A
53.249096865559;0.64959716796875;0.232086181640625;6.41999998379106;643;1 A
53.2590968655337;0.6495361328125;0.2313232421875;6.42999998376581;644;1 A
53.2690968655085;0.64971923828125;0.2314453125;6.43999998374056;645;1 A
53.2790968654832;0.649505615234375;0.230255126953125;6.44999998371532;646;1 A
53.289096865458;0.649566650390625;0.229949951171875;6.45999998369007;647;1 A
53.2990968654327;0.649566650390625;0.22998046875;6.46999998366482;648;1 A
53.3090968654075;0.64959716796875;0.229949951171875;6.47999998363957;649;1 A
53.3190968653822;0.649505615234375;0.2298583984375;6.48999998361433;650;1 A
53.329096865357;0.649505615234375;0.229095458984375;6.49999998358908;651;1 A
53.3390968653317;0.649627685546875;0.22882080078125;6.50999998356383;652;1 A
53.3490968653065;0.649658203125;0.228057861328125;6.51999998353858;653;1 A
53.3590968652812;0.649505615234375;0.22845458984375;6.52999998351333;654;1 A
53.369096865256;0.64959716796875;0.228729248046875;6.53999998348809;655;1 A
53.3790968652307;0.649627685546875;0.22833251953125;6.54999998346284;656;1 A
53.3890968652055;0.64959716796875;0.22943115234375;6.55999998343759;657;1 A
53.3990968651802;0.64959716796875;0.2294921875;6.56999998341234;658;1 A
53.409096865155;0.649688720703125;0.230438232421875;6.5799999833871;659;1 A
53.4190968651297;0.64971923828125;0.231231689453125;6.58999998336185;660;1 A
53.4290968651045;0.649566650390625;0.23126220703125;6.5999999833366;661;1 A
53.4390968650793;0.649383544921875;0.231781005859375;6.60999998331135;662;1 A
53.449096865054;0.64959716796875;0.232025146484375;6.61999998328611;663;1 A
53.4590968650288;0.64959716796875;0.232269287109375;6.62999998326086;664;1 A
53.4690968650035;0.6495361328125;0.231536865234375;6.63999998323561;665;1 A
53.4790968649783;0.6495361328125;0.2310791015625;6.64999998321036;666;1 A
53.489096864953;0.64959716796875;0.229827880859375;6.65999998318512;667;1 A
53.4990968649278;0.649627685546875;0.228973388671875;6.66999998315987;668;1 A
53.5090968649025;0.64959716796875;0.229248046875;6.67999998313462;669;1 A
53.5190968648773;0.6495361328125;0.228271484375;6.68999998310937;670;1 A
53.529096864852;0.649566650390625;0.22833251953125;6.69999998308413;671;1 A
53.5390968648268;0.649658203125;0.2288818359375;6.70999998305888;672;1 A
53.5490968648015;0.649627685546875;0.229583740234375;6.71999998303363;673;1 A
53.5590968647763;0.64959716796875;0.230499267578125;6.72999998300838;674;1 A
53.569096864751;0.6495361328125;0.230316162109375;6.73999998298314;675;1 A
53.5790968647258;0.649627685546875;0.230255126953125;6.74999998295789;676;1 A
53.5890968647005;0.649627685546875;0.230010986328125;6.75999998293264;677;1 A
53.5990968646753;0.6495361328125;0.23095703125;6.76999998290739;678;1 A
53.60909686465;0.649505615234375;0.23126220703125;6.77999998288215;679;1 A
53.6190968646248;0.649566650390625;0.23101806640625;6.7899999828569;680;1 A
53.6290968645995;0.649566650390625;0.231719970703125;6.79999998283165;681;1 A
53.6390968645743;0.64959716796875;0.231231689453125;6.8099999828064;682;1 A
53.6490968645491;0.649688720703125;0.231903076171875;6.81999998278116;683;1 A
53.6590968645238;0.64971923828125;0.232269287109375;6.82999998275591;684;1 A
53.6690968644986;0.649505615234375;0.23162841796875;6.83999998273066;685;1 A
53.6790968644733;0.649627685546875;0.231597900390625;6.84999998270541;686;1 A
53.6890968644481;0.64959716796875;0.231414794921875;6.85999998268016;687;1 A
53.6990968644228;0.64959716796875;0.231781005859375;6.86999998265492;688;1 A
53.7090968643976;0.649627685546875;0.231658935546875;6.87999998262967;689;1 A
53.7190968643723;0.649566650390625;0.2318115234375;6.88999998260442;690;1 A
53.7290968643471;0.649566650390625;0.231842041015625;6.89999998257917;691;1 A
53.7390968643218;0.64959716796875;0.232452392578125;6.90999998255393;692;1 A
53.7490968642966;0.64959716796875;0.234161376953125;6.91999998252868;693;1 A
53.7590968642713;0.6495361328125;0.234222412109375;6.92999998250343;694;1 A
53.7690968642461;0.649566650390625;0.23480224609375;6.93999998247818;695;1 A
53.7790968642208;0.64959716796875;0.235107421875;6.94999998245294;696;1 A
53.7890968641956;0.64959716796875;0.235198974609375;6.95999998242769;697;1 A
53.7990968641703;0.649658203125;0.235809326171875;6.96999998240244;698;1 A
53.8090968641451;0.6495361328125;0.23565673828125;6.97999998237719;699;1 A
53.8190968641198;0.64959716796875;0.2354736328125;6.98999998235195;700;1 A
