Time (s);WE(1).Potential (V);WE(1).Current (A);Corrected time (s);Index;Current range
69.9266728234521;0.700897216796875;1.0302734375;0;1;1 A
69.9366728234269;0.699981689453125;0.74127197265625;0.00999999997475243;2;1 A
69.9466728234016;0.69970703125;0.6103515625;0.0199999999495049;3;1 A
69.9566728233764;0.69976806640625;0.531005859375;0.0299999999242573;4;1 A
69.9666728233511;0.699737548828125;0.47796630859375;0.0399999998990097;5;1 A
69.9766728233259;0.69976806640625;0.43878173828125;0.0499999998737621;6;1 A
69.9866728233006;0.699615478515625;0.40667724609375;0.0599999998485146;7;1 A
69.9966728232754;0.699737548828125;0.380950927734375;0.069999999823267;8;1 A
70.0066728232501;0.699615478515625;0.36114501953125;0.0799999997980194;9;1 A
70.0166728232249;0.699676513671875;0.344970703125;0.0899999997727718;10;1 A
70.0266728231996;0.699676513671875;0.331878662109375;0.0999999997475243;11;1 A
70.0366728231744;0.699676513671875;0.3199462890625;0.109999999722277;12;1 A
70.0466728231492;0.699554443359375;0.31005859375;0.119999999697029;13;1 A
70.0566728231239;0.69964599609375;0.30194091796875;0.129999999671782;14;1 A
70.0666728230987;0.69964599609375;0.294342041015625;0.139999999646534;15;1 A
70.0766728230734;0.699615478515625;0.287628173828125;0.149999999621286;16;1 A
70.0866728230482;0.69964599609375;0.281158447265625;0.159999999596039;17;1 A
70.0966728230229;0.6995849609375;0.27606201171875;0.169999999570791;18;1 A
70.1066728229977;0.699615478515625;0.2713623046875;0.179999999545544;19;1 A
70.1166728229724;0.699676513671875;0.26715087890625;0.189999999520296;20;1 A
70.1266728229472;0.699676513671875;0.263031005859375;0.199999999495049;21;1 A
70.1366728229219;0.69970703125;0.259490966796875;0.209999999469801;22;1 A
70.1466728228967;0.699737548828125;0.257781982421875;0.219999999444553;23;1 A
70.1566728228714;0.699615478515625;0.255462646484375;0.229999999419306;24;1 A
70.1666728228462;0.69964599609375;0.25421142578125;0.239999999394058;25;1 A
70.1766728228209;0.6995849609375;0.25335693359375;0.249999999368811;26;1 A
70.1866728227957;0.69952392578125;0.252044677734375;0.259999999343563;27;1 A
70.1966728227704;0.69964599609375;0.251190185546875;0.269999999318316;28;1 A
70.2066728227452;0.699615478515625;0.24957275390625;0.279999999293068;29;1 A
70.2166728227199;0.699676513671875;0.24798583984375;0.28999999926782;30;1 A
70.2266728226947;0.69964599609375;0.245513916015625;0.299999999242573;31;1 A
70.2366728226694;0.69970703125;0.244049072265625;0.309999999217325;32;1 A
70.2466728226442;0.69964599609375;0.242340087890625;0.319999999192078;33;1 A
70.256672822619;0.6995849609375;0.2403564453125;0.32999999916683;34;1 A
70.2666728225937;0.699676513671875;0.23968505859375;0.339999999141583;35;1 A
70.2766728225685;0.6995849609375;0.238311767578125;0.349999999116335;36;1 A
70.2866728225432;0.69964599609375;0.2381591796875;0.359999999091087;37;1 A
70.296672822518;0.69964599609375;0.23809814453125;0.36999999906584;38;1 A
70.3066728224927;0.69964599609375;0.237060546875;0.379999999040592;39;1 A
70.3166728224675;0.6995849609375;0.2366943359375;0.389999999015345;40;1 A
70.3266728224422;0.6995849609375;0.235992431640625;0.399999998990097;41;1 A
70.336672822417;0.699615478515625;0.235382080078125;0.40999999896485;42;1 A
70.3466728223917;0.69964599609375;0.2344970703125;0.419999998939602;43;1 A
70.3566728223665;0.69964599609375;0.234039306640625;0.429999998914354;44;1 A
70.3666728223412;0.69970703125;0.233306884765625;0.439999998889107;45;1 A
70.376672822316;0.699676513671875;0.233062744140625;0.449999998863859;46;1 A
70.3866728222907;0.699737548828125;0.234039306640625;0.459999998838612;47;1 A
70.3966728222655;0.699615478515625;0.2337646484375;0.469999998813364;48;1 A
70.4066728222402;0.69970703125;0.23419189453125;0.479999998788116;49;1 A
70.416672822215;0.69964599609375;0.234466552734375;0.489999998762869;50;1 A
70.4266728221897;0.69964599609375;0.23443603515625;0.499999998737621;51;1 A
70.4366728221645;0.69964599609375;0.23468017578125;0.509999998712374;52;1 A
70.4466728221392;0.69964599609375;0.23394775390625;0.519999998687126;53;1 A
70.456672822114;0.69964599609375;0.23345947265625;0.529999998661879;54;1 A
70.4666728220888;0.69964599609375;0.23284912109375;0.539999998636631;55;1 A
70.4766728220635;0.699676513671875;0.233245849609375;0.549999998611383;56;1 A
70.4866728220383;0.699615478515625;0.23309326171875;0.559999998586136;57;1 A
70.496672822013;0.699676513671875;0.232666015625;0.569999998560888;58;1 A
70.5066728219878;0.69964599609375;0.232757568359375;0.579999998535641;59;1 A
70.5166728219625;0.6995849609375;0.231597900390625;0.589999998510393;60;1 A
70.5266728219373;0.699676513671875;0.232177734375;0.599999998485146;61;1 A
70.536672821912;0.699615478515625;0.23236083984375;0.609999998459898;62;1 A
70.5466728218868;0.69964599609375;0.23175048828125;0.61999999843465;63;1 A
70.5566728218615;0.6995849609375;0.23175048828125;0.629999998409403;64;1 A
70.5666728218363;0.699615478515625;0.23077392578125;0.639999998384155;65;1 A
70.576672821811;0.699554443359375;0.230682373046875;0.649999998358908;66;1 A
70.5866728217858;0.699554443359375;0.230682373046875;0.65999999833366;67;1 A
70.5966728217605;0.699676513671875;0.230987548828125;0.669999998308413;68;1 A
70.6066728217353;0.699676513671875;0.231109619140625;0.679999998283165;69;1 A
70.61667282171;0.699615478515625;0.231292724609375;0.689999998257917;70;1 A
70.6266728216848;0.69976806640625;0.231781005859375;0.69999999823267;71;1 A
70.6366728216595;0.6995849609375;0.230621337890625;0.709999998207422;72;1 A
70.6466728216343;0.69964599609375;0.23004150390625;0.719999998182175;73;1 A
70.656672821609;0.69964599609375;0.22906494140625;0.729999998156927;74;1 A
70.6666728215838;0.6995849609375;0.228363037109375;0.73999999813168;75;1 A
70.6766728215586;0.6995849609375;0.228607177734375;0.749999998106432;76;1 A
70.6866728215333;0.6995849609375;0.228363037109375;0.759999998081184;77;1 A
70.6966728215081;0.699615478515625;0.228546142578125;0.769999998055937;78;1 A
70.7066728214828;0.699615478515625;0.229034423828125;0.779999998030689;79;1 A
70.7166728214576;0.699615478515625;0.23040771484375;0.789999998005442;80;1 A
70.7266728214323;0.69970703125;0.23114013671875;0.799999997980194;81;1 A
70.7366728214071;0.69964599609375;0.23138427734375;0.809999997954947;82;1 A
70.7466728213818;0.69964599609375;0.231475830078125;0.819999997929699;83;1 A
70.7566728213566;0.69964599609375;0.230743408203125;0.829999997904451;84;1 A
70.7666728213313;0.699676513671875;0.231964111328125;0.839999997879204;85;1 A
70.7766728213061;0.69964599609375;0.232269287109375;0.849999997853956;86;1 A
70.7866728212808;0.6995849609375;0.23272705078125;0.859999997828709;87;1 A
70.7966728212556;0.6995849609375;0.23431396484375;0.869999997803461;88;1 A
70.8066728212303;0.69964599609375;0.2347412109375;0.879999997778214;89;1 A
70.8166728212051;0.699615478515625;0.235809326171875;0.889999997752966;90;1 A
70.8266728211798;0.6995849609375;0.23614501953125;0.899999997727718;91;1 A
70.8366728211546;0.6995849609375;0.236358642578125;0.909999997702471;92;1 A
70.8466728211293;0.6995849609375;0.23699951171875;0.919999997677223;93;1 A
70.8566728211041;0.6995849609375;0.237579345703125;0.929999997651976;94;1 A
70.8666728210789;0.699737548828125;0.23846435546875;0.939999997626728;95;1 A
70.8766728210536;0.6995849609375;0.23809814453125;0.949999997601481;96;1 A
70.8866728210284;0.69964599609375;0.23858642578125;0.959999997576233;97;1 A
70.8966728210031;0.69964599609375;0.238433837890625;0.969999997550985;98;1 A
70.9066728209779;0.699615478515625;0.238006591796875;0.979999997525738;99;1 A
70.9166728209526;0.699676513671875;0.23785400390625;0.98999999750049;100;1 A
70.9266728209274;0.69964599609375;0.236358642578125;0.999999997475243;101;1 A
70.9366728209021;0.699676513671875;0.23553466796875;1.00999999745;102;1 A
70.9466728208769;0.699676513671875;0.234832763671875;1.01999999742475;103;1 A
70.9566728208516;0.69964599609375;0.2344970703125;1.0299999973995;104;1 A
70.9666728208264;0.69964599609375;0.23382568359375;1.03999999737425;105;1 A
70.9766728208011;0.69964599609375;0.233062744140625;1.049999997349;106;1 A
70.9866728207759;0.69964599609375;0.232330322265625;1.05999999732376;107;1 A
70.9966728207506;0.6995849609375;0.23114013671875;1.06999999729851;108;1 A
71.0066728207254;0.69964599609375;0.23138427734375;1.07999999727326;109;1 A
71.0166728207001;0.699737548828125;0.230682373046875;1.08999999724801;110;1 A
71.0266728206749;0.699615478515625;0.229766845703125;1.09999999722277;111;1 A
71.0366728206496;0.69964599609375;0.229888916015625;1.10999999719752;112;1 A
71.0466728206244;0.69964599609375;0.229400634765625;1.11999999717227;113;1 A
71.0566728205991;0.699554443359375;0.230072021484375;1.12999999714702;114;1 A
71.0666728205739;0.6995849609375;0.230255126953125;1.13999999712178;115;1 A
71.0766728205487;0.699615478515625;0.229766845703125;1.14999999709653;116;1 A
71.0866728205234;0.69964599609375;0.229248046875;1.15999999707128;117;1 A
71.0966728204982;0.69964599609375;0.228790283203125;1.16999999704603;118;1 A
71.1066728204729;0.69970703125;0.228363037109375;1.17999999702079;119;1 A
71.1166728204477;0.6995849609375;0.226959228515625;1.18999999699554;120;1 A
71.1266728204224;0.699676513671875;0.22637939453125;1.19999999697029;121;1 A
71.1366728203972;0.6995849609375;0.225250244140625;1.20999999694504;122;1 A
71.1466728203719;0.699615478515625;0.225128173828125;1.2199999969198;123;1 A
71.1566728203467;0.6995849609375;0.22589111328125;1.22999999689455;124;1 A
71.1666728203214;0.699615478515625;0.225555419921875;1.2399999968693;125;1 A
71.1766728202962;0.69964599609375;0.226470947265625;1.24999999684405;126;1 A
71.1866728202709;0.69964599609375;0.227081298828125;1.25999999681881;127;1 A
71.1966728202457;0.69964599609375;0.227294921875;1.26999999679356;128;1 A
71.2066728202204;0.69964599609375;0.2271728515625;1.27999999676831;129;1 A
71.2166728201952;0.69970703125;0.2264404296875;1.28999999674306;130;1 A
71.2266728201699;0.69964599609375;0.22607421875;1.29999999671782;131;1 A
71.2366728201447;0.6995849609375;0.2252197265625;1.30999999669257;132;1 A
71.2466728201194;0.69964599609375;0.225250244140625;1.31999999666732;133;1 A
71.2566728200942;0.69970703125;0.22418212890625;1.32999999664207;134;1 A
71.2666728200689;0.69964599609375;0.223602294921875;1.33999999661683;135;1 A
71.2766728200437;0.69964599609375;0.224151611328125;1.34999999659158;136;1 A
71.2866728200185;0.69964599609375;0.224151611328125;1.35999999656633;137;1 A
71.2966728199932;0.6995849609375;0.225311279296875;1.36999999654108;138;1 A
71.306672819968;0.699554443359375;0.225616455078125;1.37999999651583;139;1 A
71.3166728199427;0.6995849609375;0.225738525390625;1.38999999649059;140;1 A
71.3266728199175;0.69964599609375;0.2265625;1.39999999646534;141;1 A
71.3366728198922;0.69964599609375;0.227813720703125;1.40999999644009;142;1 A
71.346672819867;0.69964599609375;0.229217529296875;1.41999999641484;143;1 A
71.3566728198417;0.6995849609375;0.229736328125;1.4299999963896;144;1 A
71.3666728198165;0.69964599609375;0.2305908203125;1.43999999636435;145;1 A
71.3766728197912;0.699615478515625;0.230377197265625;1.4499999963391;146;1 A
71.386672819766;0.699554443359375;0.230804443359375;1.45999999631385;147;1 A
71.3966728197407;0.699676513671875;0.231048583984375;1.46999999628861;148;1 A
71.4066728197155;0.69964599609375;0.229766845703125;1.47999999626336;149;1 A
71.4166728196902;0.699676513671875;0.230072021484375;1.48999999623811;150;1 A
71.426672819665;0.69964599609375;0.229827880859375;1.49999999621286;151;1 A
71.4366728196397;0.69964599609375;0.23004150390625;1.50999999618762;152;1 A
71.4466728196145;0.6995849609375;0.230255126953125;1.51999999616237;153;1 A
71.4566728195892;0.69964599609375;0.22967529296875;1.52999999613712;154;1 A
71.466672819564;0.6995849609375;0.229827880859375;1.53999999611187;155;1 A
71.4766728195387;0.699615478515625;0.229949951171875;1.54999999608663;156;1 A
71.4866728195135;0.69964599609375;0.231353759765625;1.55999999606138;157;1 A
71.4966728194883;0.699798583984375;0.2314453125;1.56999999603613;158;1 A
71.506672819463;0.6995849609375;0.23101806640625;1.57999999601088;159;1 A
71.5166728194378;0.699615478515625;0.23046875;1.58999999598564;160;1 A
71.5266728194125;0.69964599609375;0.229095458984375;1.59999999596039;161;1 A
71.5366728193873;0.699615478515625;0.22882080078125;1.60999999593514;162;1 A
71.546672819362;0.6995849609375;0.227569580078125;1.61999999590989;163;1 A
71.5566728193368;0.69964599609375;0.226348876953125;1.62999999588465;164;1 A
71.5666728193115;0.6995849609375;0.225982666015625;1.6399999958594;165;1 A
71.5766728192863;0.699615478515625;0.225616455078125;1.64999999583415;166;1 A
71.586672819261;0.699676513671875;0.225311279296875;1.6599999958089;167;1 A
71.5966728192358;0.699615478515625;0.22479248046875;1.66999999578366;168;1 A
71.6066728192105;0.699615478515625;0.22479248046875;1.67999999575841;169;1 A
71.6166728191853;0.699676513671875;0.2242431640625;1.68999999573316;170;1 A
71.62667281916;0.699615478515625;0.22503662109375;1.69999999570791;171;1 A
71.6366728191348;0.69976806640625;0.225982666015625;1.70999999568267;172;1 A
71.6466728191095;0.699554443359375;0.2259521484375;1.71999999565742;173;1 A
71.6566728190843;0.69970703125;0.227508544921875;1.72999999563217;174;1 A
71.666672819059;0.699676513671875;0.22808837890625;1.73999999560692;175;1 A
71.6766728190338;0.69970703125;0.228973388671875;1.74999999558167;176;1 A
71.6866728190085;0.6995849609375;0.229644775390625;1.75999999555643;177;1 A
71.6966728189833;0.69964599609375;0.229644775390625;1.76999999553118;178;1 A
71.7066728189581;0.699615478515625;0.230438232421875;1.77999999550593;179;1 A
71.7166728189328;0.69964599609375;0.231048583984375;1.78999999548068;180;1 A
71.7266728189076;0.69964599609375;0.232452392578125;1.79999999545544;181;1 A
71.7366728188823;0.699737548828125;0.232635498046875;1.80999999543019;182;1 A
71.7466728188571;0.69952392578125;0.2327880859375;1.81999999540494;183;1 A
71.7566728188318;0.699676513671875;0.233428955078125;1.82999999537969;184;1 A
71.7666728188066;0.69964599609375;0.23358154296875;1.83999999535445;185;1 A
71.7766728187813;0.69970703125;0.235076904296875;1.8499999953292;186;1 A
71.7866728187561;0.699615478515625;0.234588623046875;1.85999999530395;187;1 A
71.7966728187308;0.69964599609375;0.234222412109375;1.8699999952787;188;1 A
71.8066728187056;0.6995849609375;0.23419189453125;1.87999999525346;189;1 A
71.8166728186803;0.6995849609375;0.233642578125;1.88999999522821;190;1 A
71.8266728186551;0.69964599609375;0.233001708984375;1.89999999520296;191;1 A
71.8366728186298;0.69964599609375;0.231658935546875;1.90999999517771;192;1 A
71.8466728186046;0.699615478515625;0.230255126953125;1.91999999515247;193;1 A
71.8566728185793;0.69964599609375;0.22845458984375;1.92999999512722;194;1 A
71.8666728185541;0.6995849609375;0.227996826171875;1.93999999510197;195;1 A
71.8766728185288;0.699676513671875;0.227935791015625;1.94999999507672;196;1 A
71.8866728185036;0.699676513671875;0.22723388671875;1.95999999505148;197;1 A
71.8966728184784;0.699676513671875;0.227996826171875;1.96999999502623;198;1 A
71.9066728184531;0.699676513671875;0.2279052734375;1.97999999500098;199;1 A
71.9166728184279;0.69970703125;0.22833251953125;1.98999999497573;200;1 A
71.9266728184026;0.69952392578125;0.228729248046875;1.99999999495049;201;1 A
71.9366728183774;0.699676513671875;0.2283935546875;2.00999999492524;202;1 A
71.9466728183521;0.699554443359375;0.228607177734375;2.01999999489999;203;1 A
71.9566728183269;0.699615478515625;0.22845458984375;2.02999999487474;204;1 A
71.9666728183016;0.699676513671875;0.228912353515625;2.0399999948495;205;1 A
71.9766728182764;0.69976806640625;0.22857666015625;2.04999999482425;206;1 A
71.9866728182511;0.699554443359375;0.22845458984375;2.059999994799;207;1 A
71.9966728182259;0.699676513671875;0.228302001953125;2.06999999477375;208;1 A
72.0066728182006;0.699676513671875;0.22772216796875;2.0799999947485;209;1 A
72.0166728181754;0.69964599609375;0.228485107421875;2.08999999472326;210;1 A
72.0266728181501;0.6995849609375;0.22772216796875;2.09999999469801;211;1 A
72.0366728181249;0.699615478515625;0.22711181640625;2.10999999467276;212;1 A
72.0466728180996;0.699615478515625;0.227325439453125;2.11999999464751;213;1 A
72.0566728180744;0.69964599609375;0.227203369140625;2.12999999462227;214;1 A
72.0666728180491;0.699676513671875;0.2279052734375;2.13999999459702;215;1 A
72.0766728180239;0.699615478515625;0.22808837890625;2.14999999457177;216;1 A
72.0866728179986;0.6995849609375;0.2283935546875;2.15999999454652;217;1 A
72.0966728179734;0.699676513671875;0.228118896484375;2.16999999452128;218;1 A
72.1066728179482;0.699554443359375;0.227935791015625;2.17999999449603;219;1 A
72.1166728179229;0.699737548828125;0.227752685546875;2.18999999447078;220;1 A
72.1266728178977;0.699554443359375;0.226531982421875;2.19999999444553;221;1 A
72.1366728178724;0.69970703125;0.22662353515625;2.20999999442029;222;1 A
72.1466728178472;0.699676513671875;0.226531982421875;2.21999999439504;223;1 A
72.1566728178219;0.699676513671875;0.2274169921875;2.22999999436979;224;1 A
72.1666728177967;0.699493408203125;0.228973388671875;2.23999999434454;225;1 A
72.1766728177714;0.699737548828125;0.229644775390625;2.2499999943193;226;1 A
72.1866728177462;0.699615478515625;0.23089599609375;2.25999999429405;227;1 A
72.1966728177209;0.699615478515625;0.232208251953125;2.2699999942688;228;1 A
72.2066728176957;0.699615478515625;0.233856201171875;2.27999999424355;229;1 A
72.2166728176704;0.699737548828125;0.234832763671875;2.28999999421831;230;1 A
72.2266728176452;0.699493408203125;0.236053466796875;2.29999999419306;231;1 A
72.2366728176199;0.69964599609375;0.237060546875;2.30999999416781;232;1 A
72.2466728175947;0.699676513671875;0.237091064453125;2.31999999414256;233;1 A
72.2566728175694;0.699676513671875;0.23822021484375;2.32999999411732;234;1 A
72.2666728175442;0.69964599609375;0.236846923828125;2.33999999409207;235;1 A
72.2766728175189;0.69964599609375;0.235565185546875;2.34999999406682;236;1 A
72.2866728174937;0.699615478515625;0.234588623046875;2.35999999404157;237;1 A
72.2966728174684;0.69964599609375;0.23309326171875;2.36999999401633;238;1 A
72.3066728174432;0.69964599609375;0.232696533203125;2.37999999399108;239;1 A
72.316672817418;0.69970703125;0.23187255859375;2.38999999396583;240;1 A
72.3266728173927;0.6995849609375;0.23126220703125;2.39999999394058;241;1 A
72.3366728173675;0.69964599609375;0.23077392578125;2.40999999391533;242;1 A
72.3466728173422;0.69952392578125;0.230926513671875;2.41999999389009;243;1 A
72.356672817317;0.69964599609375;0.231048583984375;2.42999999386484;244;1 A
72.3666728172917;0.699554443359375;0.230377197265625;2.43999999383959;245;1 A
72.3766728172665;0.699676513671875;0.230682373046875;2.44999999381434;246;1 A
72.3866728172412;0.69970703125;0.230010986328125;2.4599999937891;247;1 A
72.396672817216;0.69964599609375;0.230194091796875;2.46999999376385;248;1 A
72.4066728171907;0.699554443359375;0.230377197265625;2.4799999937386;249;1 A
72.4166728171655;0.69964599609375;0.22918701171875;2.48999999371335;250;1 A
72.4266728171402;0.6995849609375;0.229156494140625;2.49999999368811;251;1 A
72.436672817115;0.69964599609375;0.22869873046875;2.50999999366286;252;1 A
72.4466728170897;0.699554443359375;0.228851318359375;2.51999999363761;253;1 A
72.4566728170645;0.699676513671875;0.22894287109375;2.52999999361236;254;1 A
72.4666728170392;0.69952392578125;0.229217529296875;2.53999999358712;255;1 A
72.476672817014;0.699676513671875;0.22955322265625;2.54999999356187;256;1 A
72.4866728169887;0.699676513671875;0.22979736328125;2.55999999353662;257;1 A
72.4966728169635;0.69964599609375;0.231231689453125;2.56999999351137;258;1 A
72.5066728169382;0.69964599609375;0.231170654296875;2.57999999348613;259;1 A
72.516672816913;0.699676513671875;0.231781005859375;2.58999999346088;260;1 A
72.5266728168878;0.699615478515625;0.2327880859375;2.59999999343563;261;1 A
72.5366728168625;0.69970703125;0.2330322265625;2.60999999341038;262;1 A
72.5466728168373;0.699615478515625;0.233612060546875;2.61999999338514;263;1 A
72.556672816812;0.6995849609375;0.232940673828125;2.62999999335989;264;1 A
72.5666728167868;0.69952392578125;0.232513427734375;2.63999999333464;265;1 A
72.5766728167615;0.6995849609375;0.23211669921875;2.64999999330939;266;1 A
72.5866728167363;0.699554443359375;0.232208251953125;2.65999999328415;267;1 A
72.596672816711;0.69964599609375;0.2320556640625;2.6699999932589;268;1 A
72.6066728166858;0.6995849609375;0.231689453125;2.67999999323365;269;1 A
72.6166728166605;0.69964599609375;0.232147216796875;2.6899999932084;270;1 A
72.6266728166353;0.699676513671875;0.23193359375;2.69999999318316;271;1 A
72.63667281661;0.699615478515625;0.23297119140625;2.70999999315791;272;1 A
72.6466728165848;0.69952392578125;0.233306884765625;2.71999999313266;273;1 A
72.6566728165595;0.699615478515625;0.23248291015625;2.72999999310741;274;1 A
72.6666728165343;0.6995849609375;0.233123779296875;2.73999999308217;275;1 A
72.676672816509;0.69964599609375;0.23321533203125;2.74999999305692;276;1 A
72.6866728164838;0.69964599609375;0.2337646484375;2.75999999303167;277;1 A
72.6966728164585;0.699615478515625;0.23388671875;2.76999999300642;278;1 A
72.7066728164333;0.6995849609375;0.233551025390625;2.77999999298117;279;1 A
72.716672816408;0.69964599609375;0.2332763671875;2.78999999295593;280;1 A
72.7266728163828;0.6995849609375;0.232635498046875;2.79999999293068;281;1 A
72.7366728163576;0.699676513671875;0.232940673828125;2.80999999290543;282;1 A
72.7466728163323;0.69964599609375;0.23223876953125;2.81999999288018;283;1 A
72.7566728163071;0.699676513671875;0.232086181640625;2.82999999285494;284;1 A
72.7666728162818;0.69964599609375;0.232147216796875;2.83999999282969;285;1 A
72.7766728162566;0.69970703125;0.231475830078125;2.84999999280444;286;1 A
72.7866728162313;0.699676513671875;0.231536865234375;2.85999999277919;287;1 A
72.7966728162061;0.699554443359375;0.23046875;2.86999999275395;288;1 A
72.8066728161808;0.699615478515625;0.22955322265625;2.8799999927287;289;1 A
72.8166728161556;0.69964599609375;0.22882080078125;2.88999999270345;290;1 A
72.8266728161303;0.69964599609375;0.22845458984375;2.8999999926782;291;1 A
72.8366728161051;0.699676513671875;0.22808837890625;2.90999999265296;292;1 A
72.8466728160798;0.6995849609375;0.227752685546875;2.91999999262771;293;1 A
72.8566728160546;0.699676513671875;0.228057861328125;2.92999999260246;294;1 A
72.8666728160293;0.699676513671875;0.227752685546875;2.93999999257721;295;1 A
72.8766728160041;0.69964599609375;0.228485107421875;2.94999999255197;296;1 A
72.8866728159788;0.699554443359375;0.22845458984375;2.95999999252672;297;1 A
72.8966728159536;0.699615478515625;0.227813720703125;2.96999999250147;298;1 A
72.9066728159283;0.699615478515625;0.22882080078125;2.97999999247622;299;1 A
72.9166728159031;0.699676513671875;0.229278564453125;2.98999999245098;300;1 A
72.9266728158779;0.699615478515625;0.230255126953125;2.99999999242573;301;1 A
72.9366728158526;0.69970703125;0.230804443359375;3.00999999240048;302;1 A
72.9466728158274;0.6995849609375;0.23040771484375;3.01999999237523;303;1 A
72.9566728158021;0.6995849609375;0.230316162109375;3.02999999234999;304;1 A
72.9666728157769;0.699676513671875;0.230133056640625;3.03999999232474;305;1 A
72.9766728157516;0.699615478515625;0.230926513671875;3.04999999229949;306;1 A
72.9866728157264;0.699676513671875;0.230804443359375;3.05999999227424;307;1 A
72.9966728157011;0.69964599609375;0.23114013671875;3.069999992249;308;1 A
73.0066728156759;0.69964599609375;0.23138427734375;3.07999999222375;309;1 A
73.0166728156506;0.699676513671875;0.2314453125;3.0899999921985;310;1 A
73.0266728156254;0.69964599609375;0.232757568359375;3.09999999217325;311;1 A
73.0366728156001;0.6995849609375;0.233062744140625;3.109999992148;312;1 A
73.0466728155749;0.699554443359375;0.23358154296875;3.11999999212276;313;1 A
73.0566728155496;0.699615478515625;0.234344482421875;3.12999999209751;314;1 A
73.0666728155244;0.69964599609375;0.23486328125;3.13999999207226;315;1 A
73.0766728154991;0.699676513671875;0.235137939453125;3.14999999204701;316;1 A
73.0866728154739;0.69952392578125;0.235198974609375;3.15999999202177;317;1 A
73.0966728154486;0.69964599609375;0.235443115234375;3.16999999199652;318;1 A
73.1066728154234;0.69964599609375;0.235107421875;3.17999999197127;319;1 A
73.1166728153981;0.69964599609375;0.23626708984375;3.18999999194602;320;1 A
73.1266728153729;0.699615478515625;0.23675537109375;3.19999999192078;321;1 A
73.1366728153477;0.699676513671875;0.236297607421875;3.20999999189553;322;1 A
73.1466728153224;0.69952392578125;0.23687744140625;3.21999999187028;323;1 A
73.1566728152972;0.69964599609375;0.23638916015625;3.22999999184503;324;1 A
73.1666728152719;0.699676513671875;0.236846923828125;3.23999999181979;325;1 A
73.1766728152467;0.69970703125;0.236785888671875;3.24999999179454;326;1 A
73.1866728152214;0.699554443359375;0.235931396484375;3.25999999176929;327;1 A
73.1966728151962;0.6995849609375;0.235595703125;3.26999999174404;328;1 A
73.2066728151709;0.69964599609375;0.23529052734375;3.2799999917188;329;1 A
73.2166728151457;0.69970703125;0.23583984375;3.28999999169355;330;1 A
73.2266728151204;0.699676513671875;0.235321044921875;3.2999999916683;331;1 A
73.2366728150952;0.69964599609375;0.23529052734375;3.30999999164305;332;1 A
73.2466728150699;0.699615478515625;0.23529052734375;3.31999999161781;333;1 A
73.2566728150447;0.699676513671875;0.235198974609375;3.32999999159256;334;1 A
73.2666728150194;0.69970703125;0.236175537109375;3.33999999156731;335;1 A
73.2766728149942;0.699615478515625;0.235198974609375;3.34999999154206;336;1 A
73.2866728149689;0.69964599609375;0.23529052734375;3.35999999151682;337;1 A
73.2966728149437;0.6995849609375;0.2352294921875;3.36999999149157;338;1 A
73.3066728149184;0.699615478515625;0.234588623046875;3.37999999146632;339;1 A
73.3166728148932;0.69964599609375;0.23431396484375;3.38999999144107;340;1 A
73.3266728148679;0.699554443359375;0.233642578125;3.39999999141583;341;1 A
73.3366728148427;0.699554443359375;0.23333740234375;3.40999999139058;342;1 A
73.3466728148175;0.69970703125;0.232940673828125;3.41999999136533;343;1 A
73.3566728147922;0.69964599609375;0.233642578125;3.42999999134008;344;1 A
73.366672814767;0.699615478515625;0.23388671875;3.43999999131483;345;1 A
73.3766728147417;0.699615478515625;0.23333740234375;3.44999999128959;346;1 A
73.3866728147165;0.699615478515625;0.233642578125;3.45999999126434;347;1 A
73.3966728146912;0.699615478515625;0.2327880859375;3.46999999123909;348;1 A
73.406672814666;0.699676513671875;0.23297119140625;3.47999999121384;349;1 A
73.4166728146407;0.69970703125;0.233123779296875;3.4899999911886;350;1 A
73.4266728146155;0.6995849609375;0.23291015625;3.49999999116335;351;1 A
73.4366728145902;0.6995849609375;0.23358154296875;3.5099999911381;352;1 A
73.446672814565;0.699676513671875;0.23443603515625;3.51999999111285;353;1 A
73.4566728145397;0.699676513671875;0.235687255859375;3.52999999108761;354;1 A
73.4666728145145;0.699615478515625;0.23529052734375;3.53999999106236;355;1 A
73.4766728144892;0.69964599609375;0.235137939453125;3.54999999103711;356;1 A
73.486672814464;0.699615478515625;0.234527587890625;3.55999999101186;357;1 A
73.4966728144387;0.69970703125;0.234375;3.56999999098662;358;1 A
73.5066728144135;0.699676513671875;0.23529052734375;3.57999999096137;359;1 A
73.5166728143882;0.699615478515625;0.23443603515625;3.58999999093612;360;1 A
73.526672814363;0.699554443359375;0.234710693359375;3.59999999091087;361;1 A
73.5366728143377;0.699615478515625;0.23468017578125;3.60999999088563;362;1 A
73.5466728143125;0.69964599609375;0.234588623046875;3.61999999086038;363;1 A
73.5566728142873;0.699615478515625;0.235504150390625;3.62999999083513;364;1 A
73.566672814262;0.6995849609375;0.235687255859375;3.63999999080988;365;1 A
73.5766728142368;0.699554443359375;0.236053466796875;3.64999999078464;366;1 A
73.5866728142115;0.69970703125;0.23577880859375;3.65999999075939;367;1 A
73.5966728141863;0.699554443359375;0.236236572265625;3.66999999073414;368;1 A
73.606672814161;0.69964599609375;0.235870361328125;3.67999999070889;369;1 A
73.6166728141358;0.699615478515625;0.23504638671875;3.68999999068365;370;1 A
73.6266728141105;0.69964599609375;0.234954833984375;3.6999999906584;371;1 A
73.6366728140853;0.699676513671875;0.233673095703125;3.70999999063315;372;1 A
73.64667281406;0.69970703125;0.233489990234375;3.7199999906079;373;1 A
73.6566728140348;0.699676513671875;0.23321533203125;3.72999999058266;374;1 A
73.6666728140095;0.69952392578125;0.232330322265625;3.73999999055741;375;1 A
73.6766728139843;0.69964599609375;0.232391357421875;3.74999999053216;376;1 A
73.686672813959;0.699676513671875;0.23223876953125;3.75999999050691;377;1 A
73.6966728139338;0.69970703125;0.232269287109375;3.76999999048167;378;1 A
73.7066728139085;0.699676513671875;0.2318115234375;3.77999999045642;379;1 A
73.7166728138833;0.699676513671875;0.2315673828125;3.78999999043117;380;1 A
73.726672813858;0.69970703125;0.23095703125;3.79999999040592;381;1 A
73.7366728138328;0.69964599609375;0.231201171875;3.80999999038067;382;1 A
73.7466728138075;0.69970703125;0.232452392578125;3.81999999035543;383;1 A
73.7566728137823;0.699554443359375;0.23199462890625;3.82999999033018;384;1 A
73.7666728137571;0.69952392578125;0.232818603515625;3.83999999030493;385;1 A
73.7766728137318;0.69964599609375;0.23297119140625;3.84999999027968;386;1 A
73.7866728137066;0.699615478515625;0.232879638671875;3.85999999025444;387;1 A
73.7966728136813;0.6995849609375;0.2333984375;3.86999999022919;388;1 A
73.8066728136561;0.699462890625;0.233123779296875;3.87999999020394;389;1 A
73.8166728136308;0.6995849609375;0.233428955078125;3.88999999017869;390;1 A
73.8266728136056;0.699737548828125;0.233245849609375;3.89999999015345;391;1 A
73.8366728135803;0.69964599609375;0.2335205078125;3.9099999901282;392;1 A
73.8466728135551;0.699737548828125;0.23284912109375;3.91999999010295;393;1 A
73.8566728135298;0.69964599609375;0.231903076171875;3.9299999900777;394;1 A
73.8666728135046;0.699676513671875;0.231719970703125;3.93999999005246;395;1 A
73.8766728134793;0.699615478515625;0.230621337890625;3.94999999002721;396;1 A
73.8866728134541;0.69970703125;0.2310791015625;3.95999999000196;397;1 A
73.8966728134288;0.69964599609375;0.2308349609375;3.96999998997671;398;1 A
73.9066728134036;0.699615478515625;0.22998046875;3.97999998995147;399;1 A
73.9166728133783;0.6995849609375;0.230072021484375;3.98999998992622;400;1 A
73.9266728133531;0.699676513671875;0.2294921875;3.99999998990097;401;1 A
73.9366728133278;0.69964599609375;0.229278564453125;4.00999998987572;402;1 A
73.9466728133026;0.699676513671875;0.228759765625;4.01999998985048;403;1 A
73.9566728132774;0.699676513671875;0.228240966796875;4.02999998982523;404;1 A
73.9666728132521;0.699737548828125;0.227813720703125;4.03999998979998;405;1 A
73.9766728132269;0.6995849609375;0.228057861328125;4.04999998977473;406;1 A
73.9866728132016;0.69970703125;0.229217529296875;4.05999998974949;407;1 A
73.9966728131764;0.6995849609375;0.2291259765625;4.06999998972424;408;1 A
74.0066728131511;0.69952392578125;0.230255126953125;4.07999998969899;409;1 A
74.0166728131259;0.69964599609375;0.230712890625;4.08999998967374;410;1 A
74.0266728131006;0.699676513671875;0.23095703125;4.0999999896485;411;1 A
74.0366728130754;0.699554443359375;0.23193359375;4.10999998962325;412;1 A
74.0466728130501;0.699615478515625;0.232208251953125;4.119999989598;413;1 A
74.0566728130249;0.69964599609375;0.23297119140625;4.12999998957275;414;1 A
74.0666728129996;0.69970703125;0.233367919921875;4.1399999895475;415;1 A
74.0766728129744;0.699615478515625;0.234100341796875;4.14999998952226;416;1 A
74.0866728129491;0.69964599609375;0.23370361328125;4.15999998949701;417;1 A
74.0966728129239;0.6995849609375;0.23284912109375;4.16999998947176;418;1 A
74.1066728128986;0.69970703125;0.232391357421875;4.17999998944651;419;1 A
74.1166728128734;0.699676513671875;0.231597900390625;4.18999998942127;420;1 A
74.1266728128481;0.699676513671875;0.23309326171875;4.19999998939602;421;1 A
74.1366728128229;0.69970703125;0.233795166015625;4.20999998937077;422;1 A
74.1466728127976;0.6995849609375;0.23388671875;4.21999998934552;423;1 A
74.1566728127724;0.6995849609375;0.234771728515625;4.22999998932028;424;1 A
74.1666728127472;0.699676513671875;0.234649658203125;4.23999998929503;425;1 A
74.1766728127219;0.699676513671875;0.235107421875;4.24999998926978;426;1 A
74.1866728126967;0.699737548828125;0.234619140625;4.25999998924453;427;1 A
74.1966728126714;0.699615478515625;0.233428955078125;4.26999998921929;428;1 A
74.2066728126462;0.699676513671875;0.23193359375;4.27999998919404;429;1 A
74.2166728126209;0.699676513671875;0.23065185546875;4.28999998916879;430;1 A
74.2266728125957;0.69964599609375;0.2301025390625;4.29999998914354;431;1 A
74.2366728125704;0.699554443359375;0.228546142578125;4.3099999891183;432;1 A
74.2466728125452;0.6995849609375;0.228668212890625;4.31999998909305;433;1 A
74.2566728125199;0.6995849609375;0.22869873046875;4.3299999890678;434;1 A
74.2666728124947;0.69964599609375;0.229034423828125;4.33999998904255;435;1 A
74.2766728124694;0.699554443359375;0.229766845703125;4.34999998901731;436;1 A
74.2866728124442;0.699493408203125;0.2291259765625;4.35999998899206;437;1 A
74.2966728124189;0.6995849609375;0.228790283203125;4.36999998896681;438;1 A
74.3066728123937;0.69970703125;0.228363037109375;4.37999998894156;439;1 A
74.3166728123684;0.699615478515625;0.227874755859375;4.38999998891632;440;1 A
74.3266728123432;0.69964599609375;0.226837158203125;4.39999998889107;441;1 A
74.3366728123179;0.6995849609375;0.22601318359375;4.40999998886582;442;1 A
74.3466728122927;0.699615478515625;0.22576904296875;4.41999998884057;443;1 A
74.3566728122674;0.69964599609375;0.225555419921875;4.42999998881533;444;1 A
74.3666728122422;0.69970703125;0.22705078125;4.43999998879008;445;1 A
74.376672812217;0.699676513671875;0.227447509765625;4.44999998876483;446;1 A
74.3866728121917;0.69964599609375;0.227386474609375;4.45999998873958;447;1 A
74.3966728121665;0.699615478515625;0.228363037109375;4.46999998871433;448;1 A
74.4066728121412;0.69964599609375;0.228302001953125;4.47999998868909;449;1 A
74.416672812116;0.699676513671875;0.228851318359375;4.48999998866384;450;1 A
74.4266728120907;0.69970703125;0.2283935546875;4.49999998863859;451;1 A
74.4366728120655;0.6995849609375;0.227508544921875;4.50999998861334;452;1 A
74.4466728120402;0.69970703125;0.226837158203125;4.5199999885881;453;1 A
74.456672812015;0.699615478515625;0.226593017578125;4.52999998856285;454;1 A
74.4666728119897;0.69964599609375;0.22705078125;4.5399999885376;455;1 A
74.4766728119645;0.699615478515625;0.226898193359375;4.54999998851235;456;1 A
74.4866728119392;0.6995849609375;0.227752685546875;4.55999998848711;457;1 A
74.496672811914;0.69964599609375;0.22796630859375;4.56999998846186;458;1 A
74.5066728118887;0.69964599609375;0.228759765625;4.57999998843661;459;1 A
74.5166728118635;0.6995849609375;0.230194091796875;4.58999998841136;460;1 A
74.5266728118382;0.6995849609375;0.2298583984375;4.59999998838612;461;1 A
74.536672811813;0.6995849609375;0.23046875;4.60999998836087;462;1 A
74.5466728117877;0.699737548828125;0.230804443359375;4.61999998833562;463;1 A
74.5566728117625;0.699615478515625;0.23101806640625;4.62999998831037;464;1 A
74.5666728117372;0.699615478515625;0.230865478515625;4.63999998828513;465;1 A
74.576672811712;0.69964599609375;0.230316162109375;4.64999998825988;466;1 A
74.5866728116868;0.699615478515625;0.230133056640625;4.65999998823463;467;1 A
74.5966728116615;0.69964599609375;0.22967529296875;4.66999998820938;468;1 A
74.6066728116363;0.699737548828125;0.230712890625;4.67999998818414;469;1 A
74.616672811611;0.699798583984375;0.2305908203125;4.68999998815889;470;1 A
74.6266728115858;0.69964599609375;0.230316162109375;4.69999998813364;471;1 A
74.6366728115605;0.69964599609375;0.230926513671875;4.70999998810839;472;1 A
74.6466728115353;0.699615478515625;0.2305908203125;4.71999998808315;473;1 A
74.65667281151;0.699676513671875;0.2310791015625;4.7299999880579;474;1 A
74.6666728114848;0.69970703125;0.230865478515625;4.73999998803265;475;1 A
74.6766728114595;0.6995849609375;0.230438232421875;4.7499999880074;476;1 A
74.6866728114343;0.69964599609375;0.230712890625;4.75999998798216;477;1 A
74.696672811409;0.6995849609375;0.231109619140625;4.76999998795691;478;1 A
74.7066728113838;0.69964599609375;0.2314453125;4.77999998793166;479;1 A
74.7166728113585;0.6995849609375;0.231109619140625;4.78999998790641;480;1 A
74.7266728113333;0.699615478515625;0.23150634765625;4.79999998788116;481;1 A
74.736672811308;0.69964599609375;0.231231689453125;4.80999998785592;482;1 A
74.7466728112828;0.69970703125;0.2318115234375;4.81999998783067;483;1 A
74.7566728112575;0.69964599609375;0.232818603515625;4.82999998780542;484;1 A
74.7666728112323;0.69952392578125;0.23211669921875;4.83999998778017;485;1 A
74.776672811207;0.69952392578125;0.232513427734375;4.84999998775493;486;1 A
74.7866728111818;0.699676513671875;0.232452392578125;4.85999998772968;487;1 A
74.7966728111566;0.6995849609375;0.2322998046875;4.86999998770443;488;1 A
74.8066728111313;0.69964599609375;0.232513427734375;4.87999998767918;489;1 A
74.8166728111061;0.699676513671875;0.232177734375;4.88999998765394;490;1 A
74.8266728110808;0.699676513671875;0.231964111328125;4.89999998762869;491;1 A
74.8366728110556;0.69964599609375;0.231109619140625;4.90999998760344;492;1 A
74.8466728110303;0.699676513671875;0.231109619140625;4.91999998757819;493;1 A
74.8566728110051;0.69970703125;0.2301025390625;4.92999998755295;494;1 A
74.8666728109798;0.69964599609375;0.22918701171875;4.9399999875277;495;1 A
74.8766728109546;0.6995849609375;0.22869873046875;4.94999998750245;496;1 A
74.8866728109293;0.69964599609375;0.22735595703125;4.9599999874772;497;1 A
74.8966728109041;0.699676513671875;0.227569580078125;4.96999998745196;498;1 A
74.9066728108788;0.699737548828125;0.22747802734375;4.97999998742671;499;1 A
74.9166728108536;0.699615478515625;0.227569580078125;4.98999998740146;500;1 A
74.9266728108283;0.69970703125;0.228424072265625;4.99999998737621;501;1 A
74.9366728108031;0.699615478515625;0.228973388671875;5.00999998735097;502;1 A
74.9466728107778;0.69964599609375;0.22930908203125;5.01999998732572;503;1 A
74.9566728107526;0.6995849609375;0.22894287109375;5.02999998730047;504;1 A
74.9666728107273;0.6995849609375;0.228851318359375;5.03999998727522;505;1 A
74.9766728107021;0.69964599609375;0.228515625;5.04999998724998;506;1 A
74.9866728106769;0.69964599609375;0.229736328125;5.05999998722473;507;1 A
74.9966728106516;0.69964599609375;0.23175048828125;5.06999998719948;508;1 A
75.0066728106264;0.699554443359375;0.232269287109375;5.07999998717423;509;1 A
75.0166728106011;0.699554443359375;0.23370361328125;5.08999998714899;510;1 A
75.0266728105759;0.69976806640625;0.23382568359375;5.09999998712374;511;1 A
75.0366728105506;0.6995849609375;0.23388671875;5.10999998709849;512;1 A
75.0466728105254;0.69964599609375;0.233673095703125;5.11999998707324;513;1 A
75.0566728105001;0.699615478515625;0.232452392578125;5.129999987048;514;1 A
75.0666728104749;0.69964599609375;0.231597900390625;5.13999998702275;515;1 A
75.0766728104496;0.699676513671875;0.230255126953125;5.1499999869975;516;1 A
75.0866728104244;0.699676513671875;0.2301025390625;5.15999998697225;517;1 A
75.0966728103991;0.699676513671875;0.229248046875;5.169999986947;518;1 A
75.1066728103739;0.699676513671875;0.22869873046875;5.17999998692176;519;1 A
75.1166728103486;0.699676513671875;0.228668212890625;5.18999998689651;520;1 A
75.1266728103234;0.69964599609375;0.227935791015625;5.19999998687126;521;1 A
75.1366728102981;0.699676513671875;0.228851318359375;5.20999998684601;522;1 A
75.1466728102729;0.699676513671875;0.228759765625;5.21999998682077;523;1 A
75.1566728102476;0.6995849609375;0.228240966796875;5.22999998679552;524;1 A
75.1666728102224;0.699676513671875;0.22857666015625;5.23999998677027;525;1 A
75.1766728101971;0.699615478515625;0.228759765625;5.24999998674502;526;1 A
75.1866728101719;0.699615478515625;0.22918701171875;5.25999998671978;527;1 A
75.1966728101467;0.6995849609375;0.228729248046875;5.26999998669453;528;1 A
75.2066728101214;0.699615478515625;0.22808837890625;5.27999998666928;529;1 A
75.2166728100962;0.69964599609375;0.22711181640625;5.28999998664403;530;1 A
75.2266728100709;0.69964599609375;0.227142333984375;5.29999998661879;531;1 A
75.2366728100457;0.699554443359375;0.227447509765625;5.30999998659354;532;1 A
75.2466728100204;0.69964599609375;0.22698974609375;5.31999998656829;533;1 A
75.2566728099952;0.6995849609375;0.227752685546875;5.32999998654304;534;1 A
75.2666728099699;0.699676513671875;0.227691650390625;5.3399999865178;535;1 A
75.2766728099447;0.699615478515625;0.228179931640625;5.34999998649255;536;1 A
75.2866728099194;0.69964599609375;0.228912353515625;5.3599999864673;537;1 A
75.2966728098942;0.6995849609375;0.228851318359375;5.36999998644205;538;1 A
75.3066728098689;0.69964599609375;0.229217529296875;5.37999998641681;539;1 A
75.3166728098437;0.699676513671875;0.2291259765625;5.38999998639156;540;1 A
75.3266728098184;0.699676513671875;0.22943115234375;5.39999998636631;541;1 A
75.3366728097932;0.69970703125;0.228668212890625;5.40999998634106;542;1 A
75.3466728097679;0.69970703125;0.227996826171875;5.41999998631582;543;1 A
75.3566728097427;0.69964599609375;0.22747802734375;5.42999998629057;544;1 A
75.3666728097174;0.699676513671875;0.22650146484375;5.43999998626532;545;1 A
75.3766728096922;0.69964599609375;0.226776123046875;5.44999998624007;546;1 A
75.3866728096669;0.69970703125;0.226104736328125;5.45999998621483;547;1 A
75.3966728096417;0.699554443359375;0.2261962890625;5.46999998618958;548;1 A
75.4066728096165;0.69964599609375;0.227142333984375;5.47999998616433;549;1 A
75.4166728095912;0.699615478515625;0.227447509765625;5.48999998613908;550;1 A
75.426672809566;0.69970703125;0.22808837890625;5.49999998611383;551;1 A
75.4366728095407;0.6995849609375;0.2281494140625;5.50999998608859;552;1 A
75.4466728095155;0.699676513671875;0.228302001953125;5.51999998606334;553;1 A
75.4566728094902;0.69964599609375;0.228240966796875;5.52999998603809;554;1 A
75.466672809465;0.699676513671875;0.22869873046875;5.53999998601284;555;1 A
75.4766728094397;0.699615478515625;0.228973388671875;5.5499999859876;556;1 A
75.4866728094145;0.69952392578125;0.228424072265625;5.55999998596235;557;1 A
75.4966728093892;0.6995849609375;0.22900390625;5.5699999859371;558;1 A
75.506672809364;0.699737548828125;0.228790283203125;5.57999998591185;559;1 A
75.5166728093387;0.69964599609375;0.229400634765625;5.58999998588661;560;1 A
75.5266728093135;0.699615478515625;0.2303466796875;5.59999998586136;561;1 A
75.5366728092882;0.69964599609375;0.23016357421875;5.60999998583611;562;1 A
75.546672809263;0.6995849609375;0.23077392578125;5.61999998581086;563;1 A
75.5566728092377;0.69964599609375;0.230987548828125;5.62999998578562;564;1 A
75.5666728092125;0.699676513671875;0.23162841796875;5.63999998576037;565;1 A
75.5766728091872;0.69964599609375;0.23175048828125;5.64999998573512;566;1 A
75.586672809162;0.699737548828125;0.23211669921875;5.65999998570987;567;1 A
75.5966728091367;0.69970703125;0.23248291015625;5.66999998568463;568;1 A
75.6066728091115;0.699615478515625;0.23248291015625;5.67999998565938;569;1 A
75.6166728090863;0.69964599609375;0.233795166015625;5.68999998563413;570;1 A
75.626672809061;0.69964599609375;0.2335205078125;5.69999998560888;571;1 A
75.6366728090358;0.6995849609375;0.233551025390625;5.70999998558364;572;1 A
75.6466728090105;0.69964599609375;0.233795166015625;5.71999998555839;573;1 A
75.6566728089853;0.699676513671875;0.2332763671875;5.72999998553314;574;1 A
75.66667280896;0.699615478515625;0.233612060546875;5.73999998550789;575;1 A
75.6766728089348;0.699676513671875;0.233123779296875;5.74999998548265;576;1 A
75.6866728089095;0.699615478515625;0.23272705078125;5.7599999854574;577;1 A
75.6966728088843;0.69964599609375;0.232452392578125;5.76999998543215;578;1 A
75.706672808859;0.699737548828125;0.23291015625;5.7799999854069;579;1 A
75.7166728088338;0.699615478515625;0.233154296875;5.78999998538166;580;1 A
75.7266728088085;0.699615478515625;0.232421875;5.79999998535641;581;1 A
75.7366728087833;0.699554443359375;0.232452392578125;5.80999998533116;582;1 A
75.746672808758;0.69970703125;0.231903076171875;5.81999998530591;583;1 A
75.7566728087328;0.699554443359375;0.2322998046875;5.82999998528066;584;1 A
75.7666728087075;0.69970703125;0.233245849609375;5.83999998525542;585;1 A
75.7766728086823;0.699615478515625;0.233062744140625;5.84999998523017;586;1 A
75.786672808657;0.69964599609375;0.23370361328125;5.85999998520492;587;1 A
75.7966728086318;0.699737548828125;0.23394775390625;5.86999998517967;588;1 A
75.8066728086065;0.69970703125;0.2342529296875;5.87999998515443;589;1 A
75.8166728085813;0.699737548828125;0.234100341796875;5.88999998512918;590;1 A
75.8266728085561;0.69970703125;0.233734130859375;5.89999998510393;591;1 A
75.8366728085308;0.699615478515625;0.233367919921875;5.90999998507868;592;1 A
75.8466728085056;0.699615478515625;0.23291015625;5.91999998505344;593;1 A
75.8566728084803;0.699615478515625;0.23358154296875;5.92999998502819;594;1 A
75.8666728084551;0.69964599609375;0.233245849609375;5.93999998500294;595;1 A
75.8766728084298;0.699554443359375;0.2333984375;5.94999998497769;596;1 A
75.8866728084046;0.699676513671875;0.233978271484375;5.95999998495245;597;1 A
75.8966728083793;0.699615478515625;0.23394775390625;5.9699999849272;598;1 A
75.9066728083541;0.6995849609375;0.234832763671875;5.97999998490195;599;1 A
75.9166728083288;0.699615478515625;0.23492431640625;5.9899999848767;600;1 A
75.9266728083036;0.6995849609375;0.234954833984375;5.99999998485146;601;1 A
75.9366728082783;0.69970703125;0.235076904296875;6.00999998482621;602;1 A
75.9466728082531;0.699676513671875;0.235748291015625;6.01999998480096;603;1 A
75.9566728082278;0.69964599609375;0.236236572265625;6.02999998477571;604;1 A
75.9666728082026;0.6995849609375;0.2359619140625;6.03999998475047;605;1 A
75.9766728081773;0.699554443359375;0.236083984375;6.04999998472522;606;1 A
75.9866728081521;0.69970703125;0.23504638671875;6.05999998469997;607;1 A
75.9966728081268;0.699615478515625;0.235076904296875;6.06999998467472;608;1 A
76.0066728081016;0.69970703125;0.235015869140625;6.07999998464948;609;1 A
76.0166728080764;0.69964599609375;0.234161376953125;6.08999998462423;610;1 A
76.0266728080511;0.69964599609375;0.234832763671875;6.09999998459898;611;1 A
76.0366728080259;0.69970703125;0.235137939453125;6.10999998457373;612;1 A
76.0466728080006;0.699676513671875;0.235870361328125;6.11999998454849;613;1 A
76.0566728079754;0.699737548828125;0.23614501953125;6.12999998452324;614;1 A
76.0666728079501;0.699737548828125;0.235870361328125;6.13999998449799;615;1 A
76.0766728079249;0.69964599609375;0.235870361328125;6.14999998447274;616;1 A
76.0866728078996;0.699615478515625;0.236114501953125;6.1599999844475;617;1 A
76.0966728078744;0.69964599609375;0.237335205078125;6.16999998442225;618;1 A
76.1066728078491;0.69970703125;0.237213134765625;6.179999984397;619;1 A
76.1166728078239;0.6995849609375;0.237030029296875;6.18999998437175;620;1 A
76.1266728077986;0.69964599609375;0.236724853515625;6.1999999843465;621;1 A
76.1366728077734;0.69964599609375;0.235809326171875;6.20999998432126;622;1 A
76.1466728077481;0.69964599609375;0.235748291015625;6.21999998429601;623;1 A
76.1566728077229;0.6995849609375;0.234832763671875;6.22999998427076;624;1 A
76.1666728076976;0.69952392578125;0.2337646484375;6.23999998424551;625;1 A
76.1766728076724;0.69970703125;0.233062744140625;6.24999998422027;626;1 A
76.1866728076471;0.69970703125;0.232635498046875;6.25999998419502;627;1 A
76.1966728076219;0.699615478515625;0.232208251953125;6.26999998416977;628;1 A
76.2066728075966;0.699615478515625;0.231842041015625;6.27999998414452;629;1 A
76.2166728075714;0.6995849609375;0.232025146484375;6.28999998411928;630;1 A
76.2266728075462;0.69970703125;0.231719970703125;6.29999998409403;631;1 A
76.2366728075209;0.6995849609375;0.233062744140625;6.30999998406878;632;1 A
76.2466728074957;0.699676513671875;0.2340087890625;6.31999998404353;633;1 A
76.2566728074704;0.69964599609375;0.2337646484375;6.32999998401829;634;1 A
76.2666728074452;0.69964599609375;0.234344482421875;6.33999998399304;635;1 A
76.2766728074199;0.69964599609375;0.2335205078125;6.34999998396779;636;1 A
76.2866728073947;0.69970703125;0.233245849609375;6.35999998394254;637;1 A
76.2966728073694;0.699798583984375;0.232879638671875;6.3699999839173;638;1 A
76.3066728073442;0.699676513671875;0.23175048828125;6.37999998389205;639;1 A
76.3166728073189;0.69964599609375;0.230926513671875;6.3899999838668;640;1 A
76.3266728072937;0.69964599609375;0.229888916015625;6.39999998384155;641;1 A
76.3366728072684;0.699615478515625;0.229461669921875;6.40999998381631;642;1 A
76.3466728072432;0.699676513671875;0.2279052734375;6.41999998379106;643;1 A
76.3566728072179;0.6995849609375;0.227081298828125;6.42999998376581;644;1 A
76.3666728071927;0.699615478515625;0.226531982421875;6.43999998374056;645;1 A
76.3766728071674;0.699676513671875;0.225860595703125;6.44999998371532;646;1 A
76.3866728071422;0.699615478515625;0.2265625;6.45999998369007;647;1 A
76.3966728071169;0.6995849609375;0.22601318359375;6.46999998366482;648;1 A
76.4066728070917;0.699615478515625;0.2259521484375;6.47999998363957;649;1 A
76.4166728070664;0.69970703125;0.226318359375;6.48999998361433;650;1 A
76.4266728070412;0.699737548828125;0.2265625;6.49999998358908;651;1 A
76.436672807016;0.699615478515625;0.226806640625;6.50999998356383;652;1 A
76.4466728069907;0.699554443359375;0.226776123046875;6.51999998353858;653;1 A
76.4566728069655;0.6995849609375;0.226837158203125;6.52999998351333;654;1 A
76.4666728069402;0.69964599609375;0.22625732421875;6.53999998348809;655;1 A
76.476672806915;0.699615478515625;0.22674560546875;6.54999998346284;656;1 A
76.4866728068897;0.69970703125;0.226348876953125;6.55999998343759;657;1 A
76.4966728068645;0.699615478515625;0.225341796875;6.56999998341234;658;1 A
76.5066728068392;0.69964599609375;0.225799560546875;6.5799999833871;659;1 A
76.516672806814;0.699676513671875;0.225555419921875;6.58999998336185;660;1 A
76.5266728067887;0.699676513671875;0.226348876953125;6.5999999833366;661;1 A
76.5366728067635;0.699676513671875;0.226898193359375;6.60999998331135;662;1 A
76.5466728067382;0.699737548828125;0.22662353515625;6.61999998328611;663;1 A
76.556672806713;0.699615478515625;0.2265625;6.62999998326086;664;1 A
76.5666728066877;0.699676513671875;0.226409912109375;6.63999998323561;665;1 A
76.5766728066625;0.69964599609375;0.22686767578125;6.64999998321036;666;1 A
76.5866728066372;0.699676513671875;0.226593017578125;6.65999998318512;667;1 A
76.596672806612;0.69964599609375;0.22698974609375;6.66999998315987;668;1 A
76.6066728065867;0.699615478515625;0.227264404296875;6.67999998313462;669;1 A
76.6166728065615;0.699676513671875;0.2276611328125;6.68999998310937;670;1 A
76.6266728065362;0.699554443359375;0.229095458984375;6.69999998308413;671;1 A
76.636672806511;0.69964599609375;0.228790283203125;6.70999998305888;672;1 A
76.6466728064858;0.6995849609375;0.228790283203125;6.71999998303363;673;1 A
76.6566728064605;0.699676513671875;0.228546142578125;6.72999998300838;674;1 A
76.6666728064353;0.69976806640625;0.22796630859375;6.73999998298314;675;1 A
76.67667280641;0.6995849609375;0.227691650390625;6.74999998295789;676;1 A
76.6866728063848;0.699615478515625;0.227142333984375;6.75999998293264;677;1 A
76.6966728063595;0.699554443359375;0.227203369140625;6.76999998290739;678;1 A
76.7066728063343;0.69964599609375;0.226898193359375;6.77999998288215;679;1 A
76.716672806309;0.69952392578125;0.22735595703125;6.7899999828569;680;1 A
76.7266728062838;0.69976806640625;0.226898193359375;6.79999998283165;681;1 A
76.7366728062585;0.699737548828125;0.226165771484375;6.8099999828064;682;1 A
76.7466728062333;0.699676513671875;0.22662353515625;6.81999998278116;683;1 A
76.756672806208;0.69964599609375;0.22613525390625;6.82999998275591;684;1 A
76.7666728061828;0.699737548828125;0.226593017578125;6.83999998273066;685;1 A
76.7766728061575;0.699737548828125;0.226806640625;6.84999998270541;686;1 A
76.7866728061323;0.69970703125;0.226348876953125;6.85999998268016;687;1 A
76.796672806107;0.699676513671875;0.2266845703125;6.86999998265492;688;1 A
76.8066728060818;0.699676513671875;0.226837158203125;6.87999998262967;689;1 A
76.8166728060565;0.699615478515625;0.226959228515625;6.88999998260442;690;1 A
76.8266728060313;0.69970703125;0.2264404296875;6.89999998257917;691;1 A
76.836672806006;0.6995849609375;0.226470947265625;6.90999998255393;692;1 A
76.8466728059808;0.699676513671875;0.22625732421875;6.91999998252868;693;1 A
76.8566728059556;0.69964599609375;0.22650146484375;6.92999998250343;694;1 A
76.8666728059303;0.699554443359375;0.22784423828125;6.93999998247818;695;1 A
76.8766728059051;0.69964599609375;0.227569580078125;6.94999998245294;696;1 A
76.8866728058798;0.69964599609375;0.22821044921875;6.95999998242769;697;1 A
76.8966728058546;0.69964599609375;0.22833251953125;6.96999998240244;698;1 A
76.9066728058293;0.69970703125;0.227813720703125;6.97999998237719;699;1 A
76.9166728058041;0.6995849609375;0.227783203125;6.98999998235195;700;1 A
